48
0.6256
1.4985e+003
3.6005
3.671408e-003 
9.745494e-003 
1.541858e-002 
2.119363e-002 
2.690431e-002 
3.255095e-002 
3.829969e-002 
4.364905e-002 
5.139270e-002 
6.182489e-002 
6.791093e-002 
7.258495e-002 
7.913946e-002 
8.606726e-002 
9.136969e-002 
9.594902e-002 
1.001891e-001 
1.049366e-001 
1.080976e-001 
1.098429e-001 
1.132434e-001 
1.156528e-001 
1.160076e-001 
1.158476e-001 
1.180505e-001 
1.211735e-001 
1.263571e-001 
1.324815e-001 
1.374511e-001 
1.412498e-001 
1.457031e-001 
1.521636e-001 
1.600337e-001 
1.683169e-001 
1.766059e-001 
1.857957e-001 
1.939478e-001 
2.025767e-001 
2.140217e-001 
2.265128e-001 
2.376784e-001 
2.488903e-001 
2.622335e-001 
2.769681e-001 
2.925476e-001 
3.091252e-001 
3.260768e-001 
3.428864e-001 
3.594041e-001 
3.768971e-001 
3.974764e-001 
4.181296e-001 
4.370798e-001 
4.567901e-001 
4.760594e-001 
4.939272e-001 
5.129520e-001 
5.311680e-001 
5.475767e-001 
5.639067e-001 
5.790994e-001 
5.947988e-001 
6.092965e-001 
6.197708e-001 
6.283072e-001 
6.364775e-001 
6.427859e-001 
6.484998e-001 
6.545201e-001 
6.579485e-001 
6.577329e-001 
6.528966e-001 
6.456753e-001 
6.385213e-001 
6.304397e-001 
6.196180e-001 
6.059799e-001 
5.895186e-001 
5.693470e-001 
5.472404e-001 
5.232115e-001 
4.981075e-001 
4.709470e-001 
4.412164e-001 
4.109786e-001 
3.812962e-001 
3.512355e-001 
3.202093e-001 
2.885460e-001 
2.571898e-001 
2.275994e-001 
1.990199e-001 
1.728055e-001 
1.482724e-001 
1.242184e-001 
1.007840e-001 
7.970427e-002 
6.163213e-002 
4.623090e-002 
3.193132e-002 
1.797306e-002 
4.686386e-003 
-7.020787e-003 
-1.570124e-002 
-2.189989e-002 
-2.744177e-002 
-3.486266e-002 
-4.254815e-002 
-4.863526e-002 
-5.225922e-002 
-5.360405e-002 
-5.321723e-002 
-5.388865e-002 
-5.555537e-002 
-5.705345e-002 
-5.791143e-002 
-5.658820e-002 
-5.373184e-002 
-5.032628e-002 
-4.764043e-002 
-4.596333e-002 
-4.420753e-002 
-3.918439e-002 
-3.407560e-002 
-3.089799e-002 
-2.795557e-002 
-2.447834e-002 
-2.012882e-002 
-1.617022e-002 
-1.278577e-002 
-9.148229e-003 
-6.258847e-003 
-4.836081e-003 
-2.902325e-003 
-9.140976e-004 
1.846084e-003 
3.990819e-003 
4.096650e-003 
3.861304e-003 
4.741898e-003 
6.875694e-003 
9.198673e-003 
8.695672e-003 
7.143665e-003 
6.828445e-003 
6.307171e-003 
5.398428e-003 
4.675376e-003 
4.215889e-003 
2.383937e-003 
-9.053892e-004 
-4.945102e-003 
-7.421573e-003 
-9.469553e-003 
-1.320046e-002 
-1.906693e-002 
-2.336496e-002 
-2.712788e-002 
-3.151224e-002 
-3.531004e-002 
-4.119828e-002 
-4.746800e-002 
-5.248732e-002 
-5.864962e-002 
-6.389418e-002 
-6.752498e-002 
-7.351175e-002 
-7.900060e-002 
-8.428345e-002 
-9.073739e-002 
-9.469243e-002 
-9.828122e-002 
-1.043299e-001 
-1.091795e-001 
-1.136470e-001 
-1.177691e-001 
-1.206469e-001 
-1.248137e-001 
-1.296097e-001 
-1.336339e-001 
-1.384343e-001 
-1.416800e-001 
-1.430425e-001 
-1.455671e-001 
-1.485975e-001 
-1.527965e-001 
-1.560838e-001 
-1.579033e-001 
-1.589010e-001 
-1.600690e-001 
-1.618096e-001 
-1.644704e-001 
-1.662624e-001 
-1.660625e-001 
-1.648109e-001 
-1.629265e-001 
-1.624621e-001 
-1.617327e-001 
-1.609872e-001 
-1.591201e-001 
-1.558880e-001 
-1.526606e-001 
-1.503538e-001 
-1.490319e-001 
-1.477028e-001 
-1.452772e-001 
-1.409627e-001 
-1.380587e-001 
-1.374269e-001 
-1.388347e-001 
-1.411496e-001 
-1.439456e-001 
-1.469639e-001 
-1.505759e-001 
-1.563208e-001 
-1.630685e-001 
-1.697696e-001 
-1.749174e-001 
-1.769945e-001 
-1.778155e-001 
-1.805873e-001 
-1.827879e-001 
-1.853229e-001 
-1.881893e-001 
-1.878151e-001 
-1.869494e-001 
-1.875063e-001 
-1.869328e-001 
-1.870996e-001 
-1.870973e-001 
-1.845013e-001 
-1.831621e-001 
-1.824195e-001 
-1.816375e-001 
-1.827518e-001 
-1.839101e-001 
-1.845808e-001 
-1.870458e-001 
-1.906343e-001 
-1.945098e-001 
-1.987031e-001 
-2.015493e-001 
-2.020222e-001 
-2.007452e-001 
-1.998791e-001 
-1.992896e-001 
-1.981994e-001 
-1.964932e-001 
-1.936454e-001 
-1.917655e-001 
-1.902596e-001 
-1.874220e-001 
-1.847213e-001 
-1.845174e-001 
-1.851469e-001 
-1.858603e-001 
-1.856311e-001 
-1.836405e-001 
-1.786610e-001 
-1.647997e-001 
-1.372885e-001 
-9.459896e-002 
-3.294387e-002 
5.299387e-002 
1.657143e-001 
3.040325e-001 
4.556773e-001 
6.081525e-001 
7.510803e-001 
8.707658e-001 
9.567286e-001 
1.007405e+000 
1.027655e+000 
1.029724e+000 
1.017871e+000 
9.877360e-001 
9.410702e-001 
8.754476e-001 
7.869667e-001 
6.777858e-001 
5.542643e-001 
4.258720e-001 
2.995363e-001 
1.701038e-001 
3.739063e-002 
-9.182760e-002 
-2.097824e-001 
-3.037633e-001 
-3.636845e-001 
-3.866331e-001 
-3.753248e-001 
-3.415307e-001 
-3.010705e-001 
-2.613147e-001 
-2.286649e-001 
-2.066456e-001 
-1.944289e-001 
-1.914644e-001 
-1.947275e-001 
-1.984754e-001 
-2.015539e-001 
-2.039097e-001 
-2.037805e-001 
-2.034573e-001 
-2.037060e-001 
-2.036521e-001 
-2.022991e-001 
-2.002797e-001 
-1.966423e-001 
-1.937803e-001 
-1.924906e-001 
-1.899947e-001 
-1.861734e-001 
-1.814793e-001 
-1.766647e-001 
-1.726342e-001 
-1.704722e-001 
-1.681171e-001 
-1.661213e-001 
-1.625273e-001 
-1.559526e-001 
-1.490469e-001 
-1.444169e-001 
-1.413613e-001 
-1.373646e-001 
-1.329612e-001 
-1.274621e-001 
-1.213781e-001 
-1.151155e-001 
-1.095661e-001 
-1.034993e-001 
-9.696781e-002 
-8.859400e-002 
-8.010714e-002 
-7.344580e-002 
-6.473608e-002 
-5.415235e-002 
-4.447346e-002 
-3.420805e-002 
-2.196439e-002 
-1.117447e-002 
7.906120e-005 
1.252296e-002 
2.695311e-002 
4.520802e-002 
6.319330e-002 
7.756432e-002 
9.423400e-002 
1.128478e-001 
1.310722e-001 
1.522618e-001 
1.738125e-001 
1.936052e-001 
2.136997e-001 
2.327217e-001 
2.523952e-001 
2.747291e-001 
2.960701e-001 
3.155824e-001 
3.338007e-001 
3.505386e-001 
3.663750e-001 
3.829339e-001 
3.992633e-001 
4.127544e-001 
4.235426e-001 
4.347981e-001 
4.439228e-001 
4.511169e-001 
4.575432e-001 
4.603019e-001 
4.609123e-001 
4.596167e-001 
4.551664e-001 
4.503213e-001 
4.437107e-001 
4.314924e-001 
4.171836e-001 
4.015425e-001 
3.828279e-001 
3.627791e-001 
3.410845e-001 
3.162590e-001 
2.886046e-001 
2.600212e-001 
2.301062e-001 
2.006838e-001 
1.716199e-001 
1.397499e-001 
1.088757e-001 
7.994773e-002 
5.091448e-002 
2.377876e-002 
-1.499190e-003 
-2.790292e-002 
-5.188320e-002 
-7.372309e-002 
-9.416275e-002 
-1.100235e-001 
-1.253767e-001 
-1.415620e-001 
-1.557421e-001 
-1.680736e-001 
-1.783486e-001 
-1.846294e-001 
-1.899174e-001 
-1.970288e-001 
-2.035224e-001 
-2.092593e-001 
-2.137096e-001 
-2.149708e-001 
-2.152293e-001 
-2.162413e-001 
-2.163736e-001 
-2.168769e-001 
-2.184725e-001 
-2.167790e-001 
-2.139523e-001 
-2.121291e-001 
-2.098642e-001 
-2.070455e-001 
-2.025665e-001 
-1.963176e-001 
-1.922471e-001 
-1.901625e-001 
-1.866939e-001 
-1.835391e-001 
-1.809328e-001 
-1.760911e-001 
-1.692472e-001 
-1.637788e-001 
-1.613125e-001 
-1.605679e-001 
-1.580076e-001 
-1.543102e-001 
-1.509003e-001 
-1.478631e-001 
-1.443164e-001 
-1.416389e-001 
-1.407481e-001 
-1.404588e-001 
-1.405300e-001 
-1.408741e-001 
-1.407866e-001 
-1.407301e-001 
-1.412332e-001 
-1.404842e-001 
-1.410164e-001 
-1.434990e-001 
-1.467137e-001 
-1.501917e-001 
-1.515255e-001 
-1.523310e-001 
-1.560930e-001 
-1.599943e-001 
-1.639737e-001 
-1.692854e-001 
-1.728950e-001 
-1.755972e-001 
-1.785443e-001 
-1.818638e-001 
-1.872977e-001 
-1.929941e-001 
-1.971531e-001 
-2.015019e-001 
-2.052321e-001 
-2.099735e-001 
-2.162109e-001 
-2.211447e-001 
-2.253067e-001 
-2.293154e-001 
-2.330825e-001 
-2.376316e-001 
-2.427123e-001 
-2.474383e-001 
-2.517145e-001 
-2.543309e-001 
-2.555460e-001 
-2.589670e-001 
-2.637029e-001 
-2.671702e-001 
-2.698465e-001 
-2.719365e-001 
-2.730182e-001 
-2.748378e-001 
-2.767378e-001 
-2.781630e-001 
-2.805352e-001 
-2.811609e-001 
-2.812364e-001 
-2.835638e-001 
-2.860411e-001 
-2.872907e-001 
-2.875898e-001 
-2.864498e-001 
-2.857505e-001 
-2.868882e-001 
-2.881981e-001 
-2.900156e-001 
-2.912191e-001 
-2.894413e-001 
-2.866316e-001 
-2.847753e-001 
-2.843006e-001 
-2.837693e-001 
-2.824063e-001 
-2.804335e-001 
-2.778009e-001 
-2.748881e-001 
-2.718602e-001 
-2.694158e-001 
-2.673898e-001 
-2.652346e-001 
-2.623791e-001 
-2.607978e-001 
-2.598125e-001 
-2.565558e-001 
-2.539531e-001 
-2.511237e-001 
-2.485600e-001 
-2.492555e-001 
-2.520833e-001 
-2.546489e-001 
-2.575078e-001 
-2.593699e-001 
-2.620811e-001 
-2.671901e-001 
-2.698105e-001 
-2.712689e-001 
-2.722760e-001 
-2.708618e-001 
-2.683804e-001 
-2.669406e-001 
-2.669045e-001 
-2.668340e-001 
-2.643568e-001 
-2.595976e-001 
-2.559633e-001 
-2.541454e-001 
-2.533121e-001 
-2.522353e-001 
-2.503493e-001 
-2.481637e-001 
-2.442925e-001 
-2.423543e-001 
-2.430586e-001 
-2.446348e-001 
-2.480588e-001 
-2.517002e-001 
-2.539664e-001 
-2.571439e-001 
-2.602307e-001 
-2.617817e-001 
-2.640182e-001 
-2.634042e-001 
-2.625655e-001 
-2.642206e-001 
-2.641220e-001 
-2.622290e-001 
-2.605204e-001 
-2.575270e-001 
-2.545488e-001 
-2.524805e-001 
-2.507305e-001 
-2.525653e-001 
-2.549968e-001 
-2.546731e-001 
-2.529056e-001 
-2.509415e-001 
-2.451037e-001 
-2.312961e-001 
-2.035795e-001 
-1.567840e-001 
-8.766937e-002 
7.778500e-003 
1.314683e-001 
2.760779e-001 
4.279317e-001 
5.736192e-001 
6.950511e-001 
7.796119e-001 
8.244176e-001 
8.388542e-001 
8.403979e-001 
8.394286e-001 
8.303237e-001 
8.051480e-001 
7.586764e-001 
6.849850e-001 
5.860582e-001 
4.739497e-001 
3.624375e-001 
2.550506e-001 
1.446656e-001 
2.425705e-002 
-1.018926e-001 
-2.228095e-001 
-3.267656e-001 
-3.996744e-001 
-4.292401e-001 
-4.173160e-001 
-3.801858e-001 
-3.353367e-001 
-2.953819e-001 
-2.678109e-001 
-2.545703e-001 
-2.528615e-001 
-2.566373e-001 
-2.580095e-001 
-2.575478e-001 
-2.581105e-001 
-2.579124e-001 
-2.569178e-001 
-2.560564e-001 
-2.543171e-001 
-2.517835e-001 
-2.495488e-001 
-2.459491e-001 
-2.428905e-001 
-2.387785e-001 
-2.316376e-001 
-2.250433e-001 
-2.211483e-001 
-2.183877e-001 
-2.152035e-001 
-2.107796e-001 
-2.043314e-001 
-1.984975e-001 
-1.920877e-001 
-1.862102e-001 
-1.821305e-001 
-1.768402e-001 
-1.703494e-001 
-1.630571e-001 
-1.551833e-001 
-1.473512e-001 
-1.387383e-001 
-1.291860e-001 
-1.200142e-001 
-1.095378e-001 
-9.962918e-002 
-9.070096e-002 
-7.765274e-002 
-6.319021e-002 
-4.768035e-002 
-3.103636e-002 
-1.609145e-002 
-5.490990e-004 
1.555484e-002 
3.239383e-002 
5.453495e-002 
7.841345e-002 
9.794587e-002 
1.179482e-001 
1.384070e-001 
1.589264e-001 
1.818042e-001 
2.047717e-001 
2.280389e-001 
2.514000e-001 
2.712512e-001 
2.898222e-001 
3.110655e-001 
3.320751e-001 
3.508526e-001 
3.691900e-001 
3.858661e-001 
4.008967e-001 
4.145251e-001 
4.246266e-001 
4.316106e-001 
4.379540e-001 
4.422938e-001 
4.432233e-001 
4.432298e-001 
4.396784e-001 
4.317789e-001 
4.206358e-001 
4.062553e-001 
3.904415e-001 
3.740458e-001 
3.542626e-001 
3.306872e-001 
3.049774e-001 
2.764976e-001 
2.468144e-001 
2.176648e-001 
1.885930e-001 
1.586846e-001 
1.283025e-001 
9.813047e-002 
6.892690e-002 
4.055962e-002 
1.223149e-002 
-1.522109e-002 
-4.114060e-002 
-6.587415e-002 
-8.790044e-002 
-1.066395e-001 
-1.239453e-001 
-1.413196e-001 
-1.579828e-001 
-1.717504e-001 
-1.817643e-001 
-1.902739e-001 
-1.984492e-001 
-2.058639e-001 
-2.126008e-001 
-2.193328e-001 
-2.240434e-001 
-2.247991e-001 
-2.239758e-001 
-2.247351e-001 
-2.263686e-001 
-2.270124e-001 
-2.259206e-001 
-2.228727e-001 
-2.208931e-001 
-2.187252e-001 
-2.162458e-001 
-2.140489e-001 
-2.121695e-001 
-2.081923e-001 
-2.027405e-001 
-1.979128e-001 
-1.940025e-001 
-1.913090e-001 
-1.875194e-001 
-1.826120e-001 
-1.790055e-001 
-1.786759e-001 
-1.774673e-001 
-1.749448e-001 
-1.729344e-001 
-1.697346e-001 
-1.664425e-001 
-1.638144e-001 
-1.620187e-001 
-1.609985e-001 
-1.602352e-001 
-1.576358e-001 
-1.557733e-001 
-1.566548e-001 
-1.573529e-001 
-1.586679e-001 
-1.584975e-001 
-1.570089e-001 
-1.561667e-001 
-1.583039e-001 
-1.611059e-001 
-1.648908e-001 
-1.690674e-001 
-1.721990e-001 
-1.762367e-001 
-1.808419e-001 
-1.866520e-001 
-1.932481e-001 
-1.998077e-001 
-2.052435e-001 
-2.117140e-001 
-2.185992e-001 
-2.243057e-001 
-2.287960e-001 
-2.332335e-001 
-2.370926e-001 
-2.417248e-001 
-2.479627e-001 
-2.545374e-001 
-2.605533e-001 
-2.646697e-001 
-2.650941e-001 
-2.671184e-001 
-2.721821e-001 
-2.770848e-001 
-2.818591e-001 
-2.856113e-001 
-2.879037e-001 
-2.897155e-001 
-2.916897e-001 
-2.936061e-001 
-2.974492e-001 
-2.998764e-001 
-3.008137e-001 
-3.020595e-001 
-3.041571e-001 
-3.050710e-001 
-3.055367e-001 
-3.060995e-001 
-3.048638e-001 
-3.037199e-001 
-3.045043e-001 
-3.056960e-001 
-3.064022e-001 
-3.059855e-001 
-3.028821e-001 
-3.011879e-001 
-3.016149e-001 
-3.013925e-001 
-3.014570e-001 
-3.013635e-001 
-2.988926e-001 
-2.961515e-001 
-2.947683e-001 
-2.927622e-001 
-2.919595e-001 
-2.907766e-001 
-2.863237e-001 
-2.817768e-001 
-2.787922e-001 
-2.748124e-001 
-2.716872e-001 
-2.693877e-001 
-2.653218e-001 
-2.626428e-001 
-2.603286e-001 
-2.573891e-001 
-2.553208e-001 
-2.534196e-001 
-2.498035e-001 
-2.480456e-001 
-2.479003e-001 
-2.479790e-001 
-2.496712e-001 
-2.516312e-001 
-2.548527e-001 
-2.595727e-001 
-2.644734e-001 
-2.693783e-001 
-2.741475e-001 
-2.753946e-001 
-2.750338e-001 
-2.753017e-001 
-2.760001e-001 
-2.771534e-001 
-2.757007e-001 
-2.732922e-001 
-2.715734e-001 
-2.683844e-001 
-2.658436e-001 
-2.655201e-001 
-2.636982e-001 
-2.607345e-001 
-2.564616e-001 
-2.519528e-001 
-2.506163e-001 
-2.494217e-001 
-2.478160e-001 
-2.471751e-001 
-2.461091e-001 
-2.461737e-001 
-2.485065e-001 
-2.520588e-001 
-2.559947e-001 
-2.579568e-001 
-2.572688e-001 
-2.554674e-001 
-2.539241e-001 
-2.551937e-001 
-2.565954e-001 
-2.568461e-001 
-2.561443e-001 
-2.534270e-001 
-2.515998e-001 
-2.498605e-001 
-2.480230e-001 
-2.507561e-001 
-2.540737e-001 
-2.523425e-001 
-2.483613e-001 
-2.403370e-001 
-2.271453e-001 
-2.039431e-001 
-1.624978e-001 
-1.034863e-001 
-2.477959e-002 
8.099379e-002 
2.105083e-001 
3.526023e-001 
4.953528e-001 
6.245018e-001 
7.272437e-001 
7.949567e-001 
8.306517e-001 
8.448837e-001 
8.475518e-001 
8.422523e-001 
8.248601e-001 
7.922254e-001 
7.385522e-001 
6.584326e-001 
5.599791e-001 
4.548374e-001 
3.455561e-001 
2.353209e-001 
1.235617e-001 
7.972457e-003 
-1.062575e-001 
-2.128213e-001 
-3.001879e-001 
-3.529672e-001 
-3.679012e-001 
-3.526434e-001 
-3.171571e-001 
-2.775494e-001 
-2.464469e-001 
-2.274002e-001 
-2.209903e-001 
-2.234867e-001 
-2.266625e-001 
-2.280264e-001 
-2.281987e-001 
-2.272250e-001 
-2.271658e-001 
-2.272293e-001 
-2.264039e-001 
-2.272182e-001 
-2.277458e-001 
-2.245203e-001 
-2.203592e-001 
-2.163852e-001 
-2.121467e-001 
-2.089862e-001 
-2.076245e-001 
-2.078746e-001 
-2.075054e-001 
-2.027023e-001 
-1.951784e-001 
-1.894228e-001 
-1.862596e-001 
-1.833614e-001 
-1.802372e-001 
-1.770374e-001 
-1.729834e-001 
-1.665714e-001 
-1.598474e-001 
-1.546178e-001 
-1.496982e-001 
-1.438501e-001 
-1.359592e-001 
-1.281959e-001 
-1.218643e-001 
-1.144624e-001 
-1.049190e-001 
-9.477765e-002 
-8.277548e-002 
-6.936794e-002 
-5.651352e-002 
-4.446990e-002 
-3.163085e-002 
-1.673504e-002 
5.005093e-004 
1.817561e-002 
3.564069e-002 
5.502369e-002 
7.545331e-002 
9.523724e-002 
1.153319e-001 
1.377377e-001 
1.592417e-001 
1.793268e-001 
1.998152e-001 
2.220026e-001 
2.460022e-001 
2.685580e-001 
2.882303e-001 
3.080568e-001 
3.288168e-001 
3.472088e-001 
3.652179e-001 
3.827194e-001 
3.981845e-001 
4.113760e-001 
4.227224e-001 
4.332301e-001 
4.446113e-001 
4.542732e-001 
4.581841e-001 
4.584601e-001 
4.569204e-001 
4.536349e-001 
4.478714e-001 
4.396600e-001 
4.289654e-001 
4.160043e-001 
3.990654e-001 
3.780583e-001 
3.568400e-001 
3.356726e-001 
3.109536e-001 
2.832805e-001 
2.562916e-001 
2.284190e-001 
1.993185e-001 
1.688824e-001 
1.374825e-001 
1.074731e-001 
7.883044e-002 
5.074866e-002 
2.491651e-002 
1.002205e-003 
-2.264410e-002 
-4.432779e-002 
-6.568805e-002 
-8.497038e-002 
-1.015644e-001 
-1.161590e-001 
-1.297527e-001 
-1.426935e-001 
-1.532051e-001 
-1.606893e-001 
-1.671773e-001 
-1.740811e-001 
-1.788665e-001 
-1.838054e-001 
-1.876584e-001 
-1.907113e-001 
-1.929282e-001 
-1.936420e-001 
-1.946658e-001 
-1.960860e-001 
-1.960643e-001 
-1.941841e-001 
-1.932701e-001 
-1.922726e-001 
-1.904204e-001 
-1.879360e-001 
-1.849289e-001 
-1.810955e-001 
-1.763638e-001 
-1.719411e-001 
-1.688587e-001 
-1.657622e-001 
-1.606435e-001 
-1.540727e-001 
-1.488404e-001 
-1.437371e-001 
-1.389820e-001 
-1.344219e-001 
-1.308179e-001 
-1.268751e-001 
-1.218730e-001 
-1.176737e-001 
-1.134710e-001 
-1.090152e-001 
-1.045598e-001 
-1.017824e-001 
-9.964132e-002 
-9.805189e-002 
-9.661510e-002 
-9.503631e-002 
-9.259824e-002 
-8.954777e-002 
-8.761135e-002 
-8.925788e-002 
-9.226680e-002 
-9.347565e-002 
-9.376113e-002 
-9.432619e-002 
-9.497960e-002 
-9.739393e-002 
-1.010026e-001 
-1.048689e-001 
-1.098323e-001 
-1.124222e-001 
-1.139242e-001 
-1.179215e-001 
-1.229324e-001 
-1.271137e-001 
-1.311982e-001 
-1.352768e-001 
-1.398318e-001 
-1.448120e-001 
-1.489171e-001 
-1.540928e-001 
-1.596186e-001 
-1.639270e-001 
-1.684619e-001 
-1.749059e-001 
-1.820306e-001 
-1.871790e-001 
-1.909720e-001 
-1.950960e-001 
-1.993520e-001 
-2.042256e-001 
-2.095125e-001 
-2.128471e-001 
-2.156366e-001 
-2.176188e-001 
-2.183412e-001 
-2.210240e-001 
-2.249041e-001 
-2.270478e-001 
-2.285692e-001 
-2.273126e-001 
-2.251153e-001 
-2.269375e-001 
-2.288439e-001 
-2.295906e-001 
-2.308803e-001 
-2.307661e-001 
-2.296299e-001 
-2.294537e-001 
-2.290599e-001 
-2.307546e-001 
-2.338915e-001 
-2.331044e-001 
-2.322070e-001 
-2.333555e-001 
-2.338412e-001 
-2.326226e-001 
-2.314493e-001 
-2.306348e-001 
-2.309354e-001 
-2.314169e-001 
-2.293247e-001 
-2.281757e-001 
-2.267942e-001 
-2.227049e-001 
-2.186374e-001 
-2.181675e-001 
-2.178704e-001 
-2.170666e-001 
-2.155987e-001 
-2.120151e-001 
-2.100499e-001 
-2.088577e-001 
-2.084434e-001 
-2.103250e-001 
-2.131909e-001 
-2.154671e-001 
-2.193559e-001 
-2.245608e-001 
-2.293650e-001 
-2.334413e-001 
-2.353281e-001 
-2.360498e-001 
-2.358454e-001 
-2.366229e-001 
-2.384935e-001 
-2.389873e-001 
-2.385730e-001 
-2.368263e-001 
-2.339931e-001 
-2.306129e-001 
-2.278284e-001 
-2.261102e-001 
-2.252590e-001 
-2.232674e-001 
-2.202527e-001 
-2.190345e-001 
-2.178430e-001 
-2.154363e-001 
-2.132043e-001 
-2.140474e-001 
-2.168723e-001 
-2.208179e-001 
-2.243695e-001 
-2.263632e-001 
-2.271289e-001 
-2.256570e-001 
-2.236864e-001 
-2.236932e-001 
-2.246278e-001 
-2.237257e-001 
-2.223444e-001 
-2.192785e-001 
-2.155705e-001 
-2.127248e-001 
-2.109448e-001 
-2.098744e-001 
-2.102046e-001 
-2.087360e-001 
-2.053318e-001 
-2.000609e-001 
-1.884178e-001 
-1.677043e-001 
-1.329473e-001 
-7.798727e-002 
-8.792770e-004 
9.890447e-002 
2.236754e-001 
3.648424e-001 
5.104565e-001 
6.449900e-001 
7.514887e-001 
8.205255e-001 
8.537958e-001 
8.629471e-001 
8.642071e-001 
8.631093e-001 
8.528193e-001 
8.269814e-001 
7.777617e-001 
6.997589e-001 
5.995032e-001 
4.924214e-001 
3.885653e-001 
2.860637e-001 
1.780568e-001 
6.245037e-002 
-5.589634e-002 
-1.689684e-001 
-2.629471e-001 
-3.214256e-001 
-3.376678e-001 
-3.208308e-001 
-2.853426e-001 
-2.456960e-001 
-2.150057e-001 
-1.980026e-001 
-1.922237e-001 
-1.935869e-001 
-1.974448e-001 
-1.993470e-001 
-1.990255e-001 
-1.976181e-001 
-1.970790e-001 
-1.975402e-001 
-1.963270e-001 
-1.927628e-001 
-1.888374e-001 
-1.853296e-001 
-1.811824e-001 
-1.763201e-001 
-1.716965e-001 
-1.665592e-001 
-1.625631e-001 
-1.593086e-001 
-1.555701e-001 
-1.517742e-001 
-1.482793e-001 
-1.433358e-001 
-1.381561e-001 
-1.351302e-001 
-1.323159e-001 
-1.285082e-001 
-1.221516e-001 
-1.144964e-001 
-1.080073e-001 
-1.030289e-001 
-9.698269e-002 
-9.210456e-002 
-8.670154e-002 
-7.790943e-002 
-6.841978e-002 
-5.929788e-002 
-4.996249e-002 
-3.947358e-002 
-2.621666e-002 
-1.286134e-002 
-4.624160e-004 
1.423062e-002 
2.917233e-002 
4.362538e-002 
5.994745e-002 
7.808986e-002 
9.730574e-002 
1.157125e-001 
1.322840e-001 
1.521952e-001 
1.738669e-001 
1.953211e-001 
2.179096e-001 
2.394394e-001 
2.602268e-001 
2.812656e-001 
3.011606e-001 
3.225618e-001 
3.435157e-001 
3.610916e-001 
3.787619e-001 
3.967049e-001 
4.134417e-001 
4.303333e-001 
4.440743e-001 
4.549197e-001 
4.642704e-001 
4.697098e-001 
4.753190e-001 
4.816216e-001 
4.845398e-001 
4.828375e-001 
4.774931e-001 
4.683162e-001 
4.591515e-001 
4.483822e-001 
4.362163e-001 
4.223607e-001 
4.051624e-001 
3.840203e-001 
3.607644e-001 
3.370179e-001 
3.112388e-001 
2.845429e-001 
2.571813e-001 
2.286269e-001 
1.996657e-001 
1.705586e-001 
1.396549e-001 
1.096885e-001 
8.014061e-002 
5.191168e-002 
2.728464e-002 
3.794098e-003 
-2.029151e-002 
-4.381768e-002 
-6.681545e-002 
-8.746761e-002 
-1.049066e-001 
-1.192415e-001 
-1.316903e-001 
-1.439212e-001 
-1.565724e-001 
-1.678258e-001 
-1.755008e-001 
-1.802487e-001 
-1.854842e-001 
-1.905731e-001 
-1.941647e-001 
-1.986403e-001 
-2.012995e-001 
-2.025778e-001 
-2.028145e-001 
-2.021053e-001 
-2.027923e-001 
-2.040140e-001 
-2.018923e-001 
-1.982773e-001 
-1.950899e-001 
-1.919232e-001 
-1.891459e-001 
-1.857365e-001 
-1.813301e-001 
-1.763789e-001 
-1.709934e-001 
-1.647690e-001 
-1.599840e-001 
-1.555227e-001 
-1.496252e-001 
-1.426272e-001 
-1.367019e-001 
-1.318831e-001 
-1.283557e-001 
-1.238282e-001 
-1.189779e-001 
-1.142350e-001 
-1.097782e-001 
-1.074441e-001 
-1.063568e-001 
-1.061568e-001 
-1.047221e-001 
-1.030149e-001 
-1.026229e-001 
-1.039091e-001 
-1.049269e-001 
-1.069889e-001 
-1.080978e-001 
-1.083471e-001 
-1.090279e-001 
-1.104667e-001 
-1.141752e-001 
-1.193089e-001 
-1.217850e-001 
-1.228187e-001 
-1.248448e-001 
-1.280096e-001 
-1.331049e-001 
-1.371106e-001 
-1.404582e-001 
-1.446692e-001 
-1.485007e-001 
-1.504122e-001 
-1.546358e-001 
-1.607077e-001 
-1.666381e-001 
-1.713911e-001 
-1.752728e-001 
-1.810736e-001 
-1.870093e-001 
-1.899945e-001 
-1.928347e-001 
-1.973038e-001 
-2.009704e-001 
-2.050749e-001 
-2.100990e-001 
-2.139741e-001 
-2.162706e-001 
-2.169888e-001 
-2.192761e-001 
-2.242013e-001 
-2.274287e-001 
-2.292281e-001 
-2.306419e-001 
-2.304644e-001 
-2.286095e-001 
-2.285713e-001 
-2.310050e-001 
-2.332737e-001 
-2.323795e-001 
-2.298504e-001 
-2.292924e-001 
-2.284899e-001 
-2.276777e-001 
-2.265619e-001 
-2.258526e-001 
-2.245858e-001 
-2.223150e-001 
-2.211798e-001 
-2.215026e-001 
-2.209167e-001 
-2.181271e-001 
-2.159089e-001 
-2.135466e-001 
-2.130833e-001 
-2.129601e-001 
-2.113885e-001 
-2.076524e-001 
-2.027242e-001 
-1.981836e-001 
-1.952796e-001 
-1.933333e-001 
-1.915457e-001 
-1.906899e-001 
-1.865146e-001 
-1.809721e-001 
-1.776189e-001 
-1.759008e-001 
-1.741822e-001 
-1.732280e-001 
-1.718831e-001 
-1.729461e-001 
-1.753397e-001 
-1.768525e-001 
-1.807595e-001 
-1.852149e-001 
-1.882253e-001 
-1.919637e-001 
-1.947281e-001 
-1.944431e-001 
-1.943072e-001 
-1.930542e-001 
-1.907207e-001 
-1.885547e-001 
-1.882250e-001 
-1.886650e-001 
-1.877495e-001 
-1.836539e-001 
-1.791604e-001 
-1.781140e-001 
-1.783158e-001 
-1.775488e-001 
-1.764545e-001 
-1.761000e-001 
-1.746460e-001 
-1.738847e-001 
-1.743382e-001 
-1.770886e-001 
-1.822824e-001 
-1.857982e-001 
-1.872512e-001 
-1.897930e-001 
-1.935271e-001 
-1.961590e-001 
-1.967338e-001 
-1.945218e-001 
-1.924259e-001 
-1.902175e-001 
-1.874363e-001 
-1.859913e-001 
-1.853931e-001 
-1.840547e-001 
-1.828495e-001 
-1.827972e-001 
-1.834070e-001 
-1.824977e-001 
-1.770901e-001 
-1.665987e-001 
-1.468561e-001 
-1.107526e-001 
-5.393177e-002 
2.702268e-002 
1.352929e-001 
2.706807e-001 
4.254019e-001 
5.833109e-001 
7.259501e-001 
8.408105e-001 
9.209190e-001 
9.652825e-001 
9.825566e-001 
9.868394e-001 
9.858969e-001 
9.745203e-001 
9.448538e-001 
8.896448e-001 
8.086966e-001 
7.057111e-001 
5.897365e-001 
4.722073e-001 
3.581722e-001 
2.413141e-001 
1.143052e-001 
-1.732599e-002 
-1.422216e-001 
-2.438754e-001 
-3.089327e-001 
-3.295681e-001 
-3.131164e-001 
-2.762173e-001 
-2.366961e-001 
-2.055983e-001 
-1.842246e-001 
-1.741539e-001 
-1.727034e-001 
-1.746258e-001 
-1.771735e-001 
-1.806374e-001 
-1.812948e-001 
-1.802217e-001 
-1.791223e-001 
-1.780082e-001 
-1.772637e-001 
-1.747923e-001 
-1.710213e-001 
-1.682306e-001 
-1.634622e-001 
-1.579603e-001 
-1.552703e-001 
-1.544465e-001 
-1.522391e-001 
-1.473544e-001 
-1.411243e-001 
-1.364367e-001 
-1.333562e-001 
-1.290347e-001 
-1.259716e-001 
-1.226677e-001 
-1.179646e-001 
-1.103379e-001 
-1.032819e-001 
-9.788281e-002 
-9.247649e-002 
-8.590862e-002 
-7.784795e-002 
-7.055602e-002 
-6.366688e-002 
-5.571772e-002 
-4.589395e-002 
-3.574552e-002 
-2.393308e-002 
-1.109691e-002 
2.725933e-004 
1.210031e-002 
2.497312e-002 
4.033873e-002 
5.713270e-002 
7.488733e-002 
9.266407e-002 
1.087855e-001 
1.251336e-001 
1.441722e-001 
1.655097e-001 
1.871419e-001 
2.094611e-001 
2.307904e-001 
2.530232e-001 
2.743316e-001 
2.943982e-001 
3.168784e-001 
3.395461e-001 
3.585031e-001 
3.778820e-001 
3.981949e-001 
4.173202e-001 
4.354665e-001 
4.509222e-001 
4.656164e-001 
4.813297e-001 
4.947330e-001 
5.054048e-001 
5.167055e-001 
5.246801e-001 
5.298898e-001 
5.321106e-001 
5.326808e-001 
5.330613e-001 
5.308466e-001 
5.247442e-001 
5.164165e-001 
5.058902e-001 
4.926494e-001 
4.769267e-001 
4.565381e-001 
4.347251e-001 
4.104223e-001 
3.839044e-001 
3.570428e-001 
3.287679e-001 
2.981873e-001 
2.664363e-001 
2.327791e-001 
1.989642e-001 
1.676144e-001 
1.376678e-001 
1.081890e-001 
7.853000e-002 
4.921101e-002 
2.133892e-002 
-4.155953e-003 
-2.762600e-002 
-4.927435e-002 
-6.957586e-002 
-8.826199e-002 
-1.053444e-001 
-1.190542e-001 
-1.297365e-001 
-1.405853e-001 
-1.514529e-001 
-1.610245e-001 
-1.689275e-001 
-1.737544e-001 
-1.765578e-001 
-1.793536e-001 
-1.812135e-001 
-1.839909e-001 
-1.880392e-001 
-1.895814e-001 
-1.881370e-001 
-1.851910e-001 
-1.817944e-001 
-1.810561e-001 
-1.793651e-001 
-1.759398e-001 
-1.731722e-001 
-1.694368e-001 
-1.652965e-001 
-1.615182e-001 
-1.570607e-001 
-1.523731e-001 
-1.473862e-001 
-1.408503e-001 
-1.354983e-001 
-1.306633e-001 
-1.256238e-001 
-1.209426e-001 
-1.154094e-001 
-1.096622e-001 
-1.060080e-001 
-1.037363e-001 
-1.023328e-001 
-1.005095e-001 
-9.776186e-002 
-9.603490e-002 
-9.629338e-002 
-9.706458e-002 
-9.833836e-002 
-9.987225e-002 
-1.005483e-001 
-1.023950e-001 
-1.035067e-001 
-1.053750e-001 
-1.090989e-001 
-1.117271e-001 
-1.126323e-001 
-1.148330e-001 
-1.182030e-001 
-1.218061e-001 
-1.249777e-001 
-1.257739e-001 
-1.275607e-001 
-1.294069e-001 
-1.308621e-001 
-1.340411e-001 
-1.376043e-001 
-1.397268e-001 
-1.399639e-001 
-1.398562e-001 
-1.420251e-001 
-1.464314e-001 
-1.496963e-001 
-1.518505e-001 
-1.540482e-001 
-1.552487e-001 
-1.572603e-001 
-1.594632e-001 
-1.619853e-001 
-1.658572e-001 
-1.687197e-001 
-1.696668e-001 
-1.725720e-001 
-1.763784e-001 
-1.800332e-001 
-1.844808e-001 
-1.875942e-001 
-1.916294e-001 
-1.967539e-001 
-2.008426e-001 
-2.043288e-001 
-2.078198e-001 
-2.107675e-001 
-2.143442e-001 
-2.173161e-001 
-2.205222e-001 
-2.236957e-001 
-2.236255e-001 
-2.225370e-001 
-2.227120e-001 
-2.238878e-001 
-2.255908e-001 
-2.254312e-001 
-2.240163e-001 
-2.230690e-001 
-2.210052e-001 
-2.187170e-001 
-2.183048e-001 
-2.174525e-001 
-2.145781e-001 
-2.109286e-001 
-2.078438e-001 
-2.063722e-001 
-2.050563e-001 
-2.034094e-001 
-2.006599e-001 
-1.977329e-001 
-1.943473e-001 
-1.914426e-001 
-1.901289e-001 
-1.875880e-001 
-1.834087e-001 
-1.785959e-001 
-1.748595e-001 
-1.713494e-001 
-1.684404e-001 
-1.649916e-001 
-1.627969e-001 
-1.605061e-001 
-1.579205e-001 
-1.588822e-001 
-1.620442e-001 
-1.655634e-001 
-1.685263e-001 
-1.706372e-001 
-1.727358e-001 
-1.762911e-001 
-1.768849e-001 
-1.769175e-001 
-1.766163e-001 
-1.742754e-001 
-1.733352e-001 
-1.725148e-001 
-1.706203e-001 
-1.687509e-001 
-1.657838e-001 
-1.608973e-001 
-1.588964e-001 
-1.569560e-001 
-1.548610e-001 
-1.527778e-001 
-1.482077e-001 
-1.438980e-001 
-1.415430e-001 
-1.421764e-001 
-1.455864e-001 
-1.494095e-001 
-1.509595e-001 
-1.540943e-001 
-1.571967e-001 
-1.606997e-001 
-1.638356e-001 
-1.664741e-001 
-1.685637e-001 
-1.671548e-001 
-1.645536e-001 
-1.655602e-001 
-1.682809e-001 
-1.681377e-001 
-1.665082e-001 
-1.629951e-001 
-1.606620e-001 
-1.586692e-001 
-1.565724e-001 
-1.569272e-001 
-1.589032e-001 
-1.592083e-001 
-1.587344e-001 
-1.579800e-001 
-1.546170e-001 
-1.478233e-001 
-1.352986e-001 
-1.135261e-001 
-7.793824e-002 
-2.345289e-002 
5.329869e-002 
1.556479e-001 
2.847027e-001 
4.357766e-001 
5.962684e-001 
7.539386e-001 
8.989332e-001 
1.018015e+000 
1.101192e+000 
1.146802e+000 
1.164139e+000 
1.161583e+000 
1.142103e+000 
1.103896e+000 
1.045452e+000 
9.651169e-001 
8.603043e-001 
7.343312e-001 
5.988257e-001 
4.648730e-001 
3.309007e-001 
1.937833e-001 
5.320044e-002 
-8.331793e-002 
-2.011243e-001 
-2.903873e-001 
-3.444729e-001 
-3.580044e-001 
-3.393549e-001 
-3.048135e-001 
-2.635305e-001 
-2.228411e-001 
-1.877499e-001 
-1.622550e-001 
-1.503493e-001 
-1.488516e-001 
-1.494644e-001 
-1.510380e-001 
-1.534659e-001 
-1.529687e-001 
-1.510631e-001 
-1.524540e-001 
-1.556776e-001 
-1.583834e-001 
-1.584728e-001 
-1.536319e-001 
-1.508252e-001 
-1.511322e-001 
-1.498082e-001 
-1.486653e-001 
-1.476306e-001 
-1.437754e-001 
-1.391473e-001 
-1.343798e-001 
-1.307094e-001 
-1.303294e-001 
-1.282008e-001 
-1.223490e-001 
-1.161574e-001 
-1.109260e-001 
-1.052844e-001 
-9.914526e-002 
-9.324001e-002 
-8.737056e-002 
-8.126553e-002 
-7.491935e-002 
-6.770012e-002 
-6.165010e-002 
-5.676993e-002 
-5.105281e-002 
-4.535410e-002 
-4.016768e-002 
-3.473333e-002 
-2.865442e-002 
-2.084736e-002 
-1.206288e-002 
-4.217973e-003 
2.957331e-003 
1.111561e-002 
2.239066e-002 
3.463382e-002 
4.677521e-002 
6.037720e-002 
7.417012e-002 
8.790935e-002 
1.037830e-001 
1.214649e-001 
1.420219e-001 
1.627713e-001 
1.808842e-001 
1.982673e-001 
2.176307e-001 
2.386457e-001 
2.605672e-001 
2.815172e-001 
3.004378e-001 
3.184117e-001 
3.355970e-001 
3.532886e-001 
3.716010e-001 
3.913252e-001 
4.099582e-001 
4.266705e-001 
4.423193e-001 
4.578867e-001 
4.742274e-001 
4.896599e-001 
5.015570e-001 
5.121368e-001 
5.237687e-001 
5.353636e-001 
5.463991e-001 
5.551363e-001 
5.610566e-001 
5.653178e-001 
5.666157e-001 
5.656875e-001 
5.654501e-001 
5.643980e-001 
5.589423e-001 
5.486221e-001 
5.352206e-001 
5.206794e-001 
5.051470e-001 
4.865328e-001 
4.662393e-001 
4.447150e-001 
4.212708e-001 
3.963577e-001 
3.695842e-001 
3.420440e-001 
3.138595e-001 
2.832407e-001 
2.525029e-001 
2.241576e-001 
1.964991e-001 
1.703253e-001 
1.432306e-001 
1.146231e-001 
8.987715e-002 
6.680731e-002 
4.392953e-002 
2.358355e-002 
3.787180e-003 
-1.551639e-002 
-3.337856e-002 
-5.086080e-002 
-6.517397e-002 
-7.679504e-002 
-8.972428e-002 
-1.019780e-001 
-1.113603e-001 
-1.185250e-001 
-1.235896e-001 
-1.280088e-001 
-1.314884e-001 
-1.340335e-001 
-1.360161e-001 
-1.362060e-001 
-1.341733e-001 
-1.318569e-001 
-1.310839e-001 
-1.306962e-001 
-1.295789e-001 
-1.260694e-001 
-1.222728e-001 
-1.177217e-001 
-1.135216e-001 
-1.111962e-001 
-1.088614e-001 
-1.057907e-001 
-1.017500e-001 
-9.763524e-002 
-9.388497e-002 
-9.161380e-002 
-8.930481e-002 
-8.675524e-002 
-8.237259e-002 
-7.805479e-002 
-7.503619e-002 
-7.134066e-002 
-6.671428e-002 
-6.129637e-002 
-5.670704e-002 
-5.282012e-002 
-4.945761e-002 
-4.796080e-002 
-4.679696e-002 
-4.259314e-002 
-3.839599e-002 
-3.527832e-002 
-3.338562e-002 
-3.350867e-002 
-3.349649e-002 
-3.370377e-002 
-3.292148e-002 
-3.090566e-002 
-3.115806e-002 
-3.429025e-002 
-3.627875e-002 
-3.764060e-002 
-3.843519e-002 
-3.970206e-002 
-4.133103e-002 
-4.301196e-002 
-4.639221e-002 
-4.938873e-002 
-5.306717e-002 
-5.643700e-002 
-5.943436e-002 
-6.185595e-002 
-6.473509e-002 
-6.612728e-002 
-6.822826e-002 
-7.109181e-002 
-7.551840e-002 
-8.231582e-002 
-8.563676e-002 
-8.726204e-002 
-8.928234e-002 
-9.298810e-002 
-9.794380e-002 
-1.045129e-001 
-1.093078e-001 
-1.126163e-001 
-1.139559e-001 
-1.146265e-001 
-1.187041e-001 
-1.228273e-001 
-1.273621e-001 
-1.321977e-001 
-1.362770e-001 
-1.378446e-001 
-1.414479e-001 
-1.462288e-001 
-1.500326e-001 
-1.523382e-001 
-1.528297e-001 
-1.556428e-001 
-1.603457e-001 
-1.644567e-001 
-1.665964e-001 
-1.697429e-001 
-1.699787e-001 
-1.686134e-001 
-1.688938e-001 
-1.699174e-001 
-1.710053e-001 
-1.719172e-001 
-1.714798e-001 
-1.704476e-001 
-1.709560e-001 
-1.711740e-001 
-1.709745e-001 
-1.707884e-001 
-1.691527e-001 
-1.678091e-001 
-1.689286e-001 
-1.694743e-001 
-1.684538e-001 
-1.682908e-001 
-1.665319e-001 
-1.638786e-001 
-1.642614e-001 
-1.640324e-001 
-1.628345e-001 
-1.611977e-001 
-1.569444e-001 
-1.529805e-001 
-1.509740e-001 
-1.479485e-001 
-1.454417e-001 
-1.429723e-001 
-1.379875e-001 
-1.346115e-001 
-1.326830e-001 
-1.295775e-001 
-1.261296e-001 
-1.226197e-001 
-1.189552e-001 
-1.168322e-001 
-1.184398e-001 
-1.227666e-001 
-1.275239e-001 
-1.301792e-001 
-1.313731e-001 
-1.335474e-001 
-1.361310e-001 
-1.372283e-001 
-1.384728e-001 
-1.388485e-001 
-1.373165e-001 
-1.356076e-001 
-1.344228e-001 
-1.338914e-001 
-1.327671e-001 
-1.296645e-001 
-1.261805e-001 
-1.237589e-001 
-1.218938e-001 
-1.214690e-001 
-1.194215e-001 
-1.151166e-001 
-1.108487e-001 
-1.079068e-001 
-1.083021e-001 
-1.121472e-001 
-1.165383e-001 
-1.202582e-001 
-1.234174e-001 
-1.251494e-001 
-1.275315e-001 
-1.302488e-001 
-1.318690e-001 
-1.334242e-001 
-1.336671e-001 
-1.310327e-001 
-1.290285e-001 
-1.285093e-001 
-1.256102e-001 
-1.203103e-001 
-1.149529e-001 
-1.106927e-001 
-1.103862e-001 
-1.101995e-001 
-1.087076e-001 
-1.073361e-001 
-1.013585e-001 
-9.023913e-002 
-7.773187e-002 
-5.882311e-002 
-2.443204e-002 
3.045012e-002 
1.105199e-001 
2.124360e-001 
3.364755e-001 
4.786015e-001 
6.233783e-001 
7.614676e-001 
8.873300e-001 
9.895304e-001 
1.059199e+000 
1.095336e+000 
1.106043e+000 
1.103777e+000 
1.085314e+000 
1.047745e+000 
9.952009e-001 
9.255268e-001 
8.354119e-001 
7.261970e-001 
6.041944e-001 
4.783208e-001 
3.514715e-001 
2.209716e-001 
9.407217e-002 
-2.023795e-002 
-1.167472e-001 
-1.910799e-001 
-2.375902e-001 
-2.522354e-001 
-2.369796e-001 
-2.031331e-001 
-1.645409e-001 
-1.295256e-001 
-1.061110e-001 
-9.693831e-002 
-9.769267e-002 
-1.001684e-001 
-1.006234e-001 
-9.923546e-002 
-9.873829e-002 
-9.881243e-002 
-9.979478e-002 
-1.018850e-001 
-1.019079e-001 
-1.003120e-001 
-9.847518e-002 
-9.770485e-002 
-9.618151e-002 
-9.359482e-002 
-9.069916e-002 
-8.828611e-002 
-8.541226e-002 
-8.309762e-002 
-8.116393e-002 
-7.823901e-002 
-7.573051e-002 
-7.269614e-002 
-7.089959e-002 
-6.921921e-002 
-6.629012e-002 
-6.282640e-002 
-5.951771e-002 
-5.494067e-002 
-5.095265e-002 
-4.849763e-002 
-4.506742e-002 
-4.092028e-002 
-3.620541e-002 
-3.213057e-002 
-2.845964e-002 
-2.445086e-002 
-1.826047e-002 
-1.142269e-002 
-4.079937e-003 
4.948094e-003 
1.474161e-002 
2.376346e-002 
3.499262e-002 
4.871153e-002 
6.444742e-002 
8.023087e-002 
9.459291e-002 
1.092843e-001 
1.267990e-001 
1.454560e-001 
1.644447e-001 
1.857720e-001 
2.059280e-001 
2.251412e-001 
2.449587e-001 
2.661545e-001 
2.881626e-001 
3.119092e-001 
3.333347e-001 
3.539348e-001 
3.749831e-001 
3.944643e-001 
4.148388e-001 
4.357504e-001 
4.538965e-001 
4.710804e-001 
4.883184e-001 
5.040726e-001 
5.198545e-001 
5.336615e-001 
5.452523e-001 
5.554451e-001 
5.638830e-001 
5.705526e-001 
5.754810e-001 
5.789300e-001 
5.807458e-001 
5.792605e-001 
5.752268e-001 
5.689508e-001 
5.605642e-001 
5.511068e-001 
5.366431e-001 
5.190857e-001 
5.022712e-001 
4.837155e-001 
4.626412e-001 
4.385426e-001 
4.107064e-001 
3.826478e-001 
3.538870e-001 
3.236034e-001 
2.961927e-001 
2.683747e-001 
2.390024e-001 
2.094222e-001 
1.795910e-001 
1.521991e-001 
1.277177e-001 
1.044130e-001 
8.198545e-002 
5.992345e-002 
4.028019e-002 
2.406258e-002 
8.231943e-003 
-5.705775e-003 
-1.883395e-002 
-3.163584e-002 
-4.201507e-002 
-5.206440e-002 
-5.952936e-002 
-6.391261e-002 
-7.154233e-002 
-7.913509e-002 
-8.379158e-002 
-8.929038e-002 
-9.239266e-002 
-9.391833e-002 
-9.661053e-002 
-9.788249e-002 
-9.927776e-002 
-1.008533e-001 
-9.990559e-002 
-9.959768e-002 
-1.002953e-001 
-9.931238e-002 
-9.769382e-002 
-9.540301e-002 
-9.210385e-002 
-8.904523e-002 
-8.704165e-002 
-8.444963e-002 
-8.164758e-002 
-7.777790e-002 
-7.248891e-002 
-6.802616e-002 
-6.545491e-002 
-6.318270e-002 
-6.078270e-002 
-5.677599e-002 
-5.092777e-002 
-4.757009e-002 
-4.452376e-002 
-4.231341e-002 
-4.075436e-002 
-3.671563e-002 
-3.245719e-002 
-2.953530e-002 
-2.687496e-002 
-2.685130e-002 
-2.809750e-002 
-2.696369e-002 
-2.644872e-002 
-2.549513e-002 
-2.502142e-002 
-2.663716e-002 
-2.727096e-002 
-2.760318e-002 
-2.883160e-002 
-2.973009e-002 
-3.265889e-002 
-3.733276e-002 
-3.975632e-002 
-4.111938e-002 
-4.171343e-002 
-4.362641e-002 
-4.769586e-002 
-5.201703e-002 
-5.678842e-002 
-6.079311e-002 
-6.191139e-002 
-6.247485e-002 
-6.542152e-002 
-7.142564e-002 
-7.920691e-002 
-8.479133e-002 
-8.925281e-002 
-9.359358e-002 
-9.812965e-002 
-1.030588e-001 
-1.087427e-001 
-1.154164e-001 
-1.220300e-001 
-1.266649e-001 
-1.305850e-001 
-1.360573e-001 
-1.406884e-001 
-1.447010e-001 
-1.474472e-001 
-1.503282e-001 
-1.542769e-001 
-1.567250e-001 
-1.578516e-001 
-1.588566e-001 
-1.589011e-001 
-1.594125e-001 
-1.617942e-001 
-1.630985e-001 
-1.640850e-001 
-1.639614e-001 
-1.623652e-001 
-1.623319e-001 
-1.635505e-001 
-1.650890e-001 
-1.675711e-001 
-1.678428e-001 
-1.659111e-001 
-1.653623e-001 
-1.647377e-001 
-1.660216e-001 
-1.684348e-001 
-1.687727e-001 
-1.682855e-001 
-1.680152e-001 
-1.674745e-001 
-1.676620e-001 
-1.673656e-001 
-1.661325e-001 
-1.653696e-001 
-1.632329e-001 
-1.613066e-001 
-1.593885e-001 
-1.581153e-001 
-1.559847e-001 
-1.525482e-001 
-1.492638e-001 
-1.481980e-001 
-1.467587e-001 
-1.434213e-001 
-1.402871e-001 
-1.363354e-001 
-1.344930e-001 
-1.334683e-001 
-1.338315e-001 
-1.361858e-001 
-1.394941e-001 
-1.404162e-001 
-1.428690e-001 
-1.470884e-001 
-1.485372e-001 
-1.489337e-001 
-1.477958e-001 
-1.459310e-001 
-1.451806e-001 
-1.453705e-001 
-1.448790e-001 
-1.447247e-001 
-1.422051e-001 
-1.388532e-001 
-1.373083e-001 
-1.361128e-001 
-1.364761e-001 
-1.364476e-001 
-1.341858e-001 
-1.305918e-001 
-1.278382e-001 
-1.277849e-001 
-1.292682e-001 
-1.303902e-001 
-1.327378e-001 
-1.357425e-001 
-1.382894e-001 
-1.411493e-001 
-1.442997e-001 
-1.466880e-001 
-1.462663e-001 
-1.434961e-001 
-1.414925e-001 
-1.412747e-001 
-1.411929e-001 
-1.396806e-001 
-1.362837e-001 
-1.336469e-001 
-1.313629e-001 
-1.310616e-001 
-1.328048e-001 
-1.336624e-001 
-1.303057e-001 
-1.202873e-001 
-1.029461e-001 
-7.730297e-002 
-3.305526e-002 
3.639635e-002 
1.296395e-001 
2.500074e-001 
3.931240e-001 
5.471794e-001 
6.943011e-001 
8.164448e-001 
9.062697e-001 
9.642452e-001 
9.895593e-001 
9.947422e-001 
9.943339e-001 
9.884008e-001 
9.688161e-001 
9.266977e-001 
8.578965e-001 
7.648566e-001 
6.562859e-001 
5.428306e-001 
4.313186e-001 
3.192255e-001 
2.003059e-001 
7.254169e-002 
-5.415583e-002 
-1.648912e-001 
-2.442206e-001 
-2.808282e-001 
-2.792774e-001 
-2.521114e-001 
-2.124928e-001 
-1.758074e-001 
-1.501316e-001 
-1.361141e-001 
-1.337884e-001 
-1.376507e-001 
-1.424736e-001 
-1.463828e-001 
-1.454934e-001 
-1.433555e-001 
-1.429528e-001 
-1.425222e-001 
-1.428324e-001 
-1.427857e-001 
-1.394459e-001 
-1.344909e-001 
-1.305360e-001 
-1.272715e-001 
-1.262788e-001 
-1.237918e-001 
-1.198797e-001 
-1.163475e-001 
-1.117250e-001 
-1.065363e-001 
-1.024245e-001 
-1.002069e-001 
-9.737734e-002 
-9.279290e-002 
-8.624305e-002 
-8.106655e-002 
-7.630790e-002 
-7.097075e-002 
-6.404557e-002 
-5.678380e-002 
-5.137933e-002 
-4.471585e-002 
-3.615731e-002 
-2.667343e-002 
-1.678774e-002 
-5.768691e-003 
5.630227e-003 
1.730322e-002 
2.688573e-002 
3.727654e-002 
5.194647e-002 
6.841831e-002 
8.518210e-002 
1.009424e-001 
1.167169e-001 
1.340141e-001 
1.509287e-001 
1.693215e-001 
1.906642e-001 
2.111132e-001 
2.306327e-001 
2.511222e-001 
2.725156e-001 
2.949257e-001 
3.161016e-001 
3.356940e-001 
3.565704e-001 
3.769040e-001 
3.969699e-001 
4.179558e-001 
4.381807e-001 
4.555956e-001 
4.715052e-001 
4.860634e-001 
4.994840e-001 
5.128767e-001 
5.252571e-001 
5.357469e-001 
5.427314e-001 
5.475870e-001 
5.518247e-001 
5.543071e-001 
5.522029e-001 
5.481405e-001 
5.431448e-001 
5.345036e-001 
5.231474e-001 
5.100865e-001 
4.944505e-001 
4.745783e-001 
4.506491e-001 
4.258008e-001 
4.020694e-001 
3.763795e-001 
3.472003e-001 
3.177044e-001 
2.872972e-001 
2.548097e-001 
2.232280e-001 
1.935317e-001 
1.647299e-001 
1.353385e-001 
1.057024e-001 
7.680916e-002 
5.199963e-002 
2.880716e-002 
6.055194e-003 
-1.594466e-002 
-3.617401e-002 
-5.327554e-002 
-6.864921e-002 
-8.158736e-002 
-9.375957e-002 
-1.048323e-001 
-1.156779e-001 
-1.255636e-001 
-1.335726e-001 
-1.385139e-001 
-1.426299e-001 
-1.470485e-001 
-1.508378e-001 
-1.548275e-001 
-1.565028e-001 
-1.559151e-001 
-1.552242e-001 
-1.555213e-001 
-1.560548e-001 
-1.544919e-001 
-1.516159e-001 
-1.486873e-001 
-1.456719e-001 
-1.419374e-001 
-1.386282e-001 
-1.365612e-001 
-1.336489e-001 
-1.285028e-001 
-1.218268e-001 
-1.180236e-001 
-1.160233e-001 
-1.128041e-001 
-1.075026e-001 
-1.028137e-001 
-9.905317e-002 
-9.439970e-002 
-9.002755e-002 
-8.586564e-002 
-8.346888e-002 
-8.034660e-002 
-7.543150e-002 
-7.171419e-002 
-7.053677e-002 
-6.878044e-002 
-6.589350e-002 
-6.364887e-002 
-6.182833e-002 
-6.192178e-002 
-6.204923e-002 
-6.141679e-002 
-6.078153e-002 
-6.106191e-002 
-6.232513e-002 
-6.435869e-002 
-6.724857e-002 
-6.942689e-002 
-7.129087e-002 
-7.306689e-002 
-7.494924e-002 
-7.823534e-002 
-8.350072e-002 
-8.787209e-002 
-9.109268e-002 
-9.420196e-002 
-9.732940e-002 
-1.033175e-001 
-1.106215e-001 
-1.162355e-001 
-1.198234e-001 
-1.226965e-001 
-1.271888e-001 
-1.339751e-001 
-1.403230e-001 
-1.460018e-001 
-1.518939e-001 
-1.556388e-001 
-1.573623e-001 
-1.614433e-001 
-1.686780e-001 
-1.759266e-001 
-1.801859e-001 
-1.825262e-001 
-1.849196e-001 
-1.887070e-001 
-1.919855e-001 
-1.949109e-001 
-1.993966e-001 
-2.013835e-001 
-2.011533e-001 
-2.017434e-001 
-2.035586e-001 
-2.035304e-001 
-2.032528e-001 
-2.025445e-001 
-2.026141e-001 
-2.025329e-001 
-2.014228e-001 
-2.016390e-001 
-2.001885e-001 
-1.959085e-001 
-1.911959e-001 
-1.906192e-001 
-1.911424e-001 
-1.891672e-001 
-1.847299e-001 
-1.814242e-001 
-1.784118e-001 
-1.735888e-001 
-1.708441e-001 
-1.706636e-001 
-1.698114e-001 
-1.648986e-001 
-1.593469e-001 
-1.557085e-001 
-1.535132e-001 
-1.511376e-001 
-1.491366e-001 
-1.493285e-001 
-1.501406e-001 
-1.510314e-001 
-1.539026e-001 
-1.580653e-001 
-1.618111e-001 
-1.657029e-001 
-1.692859e-001 
-1.710900e-001 
-1.714690e-001 
-1.709732e-001 
-1.704839e-001 
-1.696955e-001 
-1.680510e-001 
-1.684086e-001 
-1.684562e-001 
-1.652276e-001 
-1.592728e-001 
-1.552353e-001 
-1.539197e-001 
-1.537498e-001 
-1.525699e-001 
-1.505136e-001 
-1.481005e-001 
-1.431169e-001 
-1.393503e-001 
-1.403982e-001 
-1.457635e-001 
-1.501811e-001 
-1.523077e-001 
-1.523042e-001 
-1.533239e-001 
-1.549042e-001 
-1.556805e-001 
-1.580450e-001 
-1.588221e-001 
-1.565627e-001 
-1.538272e-001 
-1.508551e-001 
-1.484977e-001 
-1.481639e-001 
-1.449385e-001 
-1.419037e-001 
-1.413795e-001 
-1.411065e-001 
-1.428752e-001 
-1.445669e-001 
-1.410370e-001 
-1.349840e-001 
-1.251342e-001 
-1.066964e-001 
-7.622898e-002 
-2.534081e-002 
5.105093e-002 
1.544934e-001 
2.869446e-001 
4.419647e-001 
6.015896e-001 
7.518268e-001 
8.782296e-001 
9.696214e-001 
1.022520e+000 
1.044516e+000 
1.049218e+000 
1.046948e+000 
1.034490e+000 
1.001683e+000 
9.424624e-001 
8.545871e-001 
7.455800e-001 
6.284472e-001 
5.118824e-001 
3.952912e-001 
2.735778e-001 
1.409246e-001 
8.949330e-004 
-1.326501e-001 
-2.401879e-001 
-3.081499e-001 
-3.341260e-001 
-3.252784e-001 
-2.938709e-001 
-2.523089e-001 
-2.102179e-001 
-1.765936e-001 
-1.545439e-001 
-1.429898e-001 
-1.416931e-001 
-1.447559e-001 
-1.467749e-001 
-1.476617e-001 
-1.469692e-001 
-1.460463e-001 
-1.474966e-001 
-1.477441e-001 
-1.460115e-001 
-1.437428e-001 
-1.400691e-001 
-1.370995e-001 
-1.356456e-001 
-1.336688e-001 
-1.308715e-001 
-1.269721e-001 
-1.225986e-001 
-1.187509e-001 
-1.153298e-001 
-1.118105e-001 
-1.066558e-001 
-1.001635e-001 
-9.430963e-002 
-8.858357e-002 
-8.270189e-002 
-7.617502e-002 
-6.808726e-002 
-5.962249e-002 
-5.140901e-002 
-4.333177e-002 
-3.658473e-002 
-2.900580e-002 
-1.928391e-002 
-8.230486e-003 
2.735205e-003 
1.281325e-002 
2.279502e-002 
3.301416e-002 
4.468271e-002 
5.780752e-002 
7.124537e-002 
8.410026e-002 
9.717667e-002 
1.109276e-001 
1.264080e-001 
1.443068e-001 
1.624620e-001 
1.797861e-001 
1.963604e-001 
2.142987e-001 
2.342834e-001 
2.553212e-001 
2.766987e-001 
2.974944e-001 
3.170718e-001 
3.351461e-001 
3.548432e-001 
3.761249e-001 
3.975355e-001 
4.169321e-001 
4.352862e-001 
4.534721e-001 
4.712081e-001 
4.887005e-001 
5.063822e-001 
5.233083e-001 
5.367827e-001 
5.492075e-001 
5.615383e-001 
5.728885e-001 
5.819030e-001 
5.888822e-001 
5.934773e-001 
5.957645e-001 
5.966523e-001 
5.950812e-001 
5.911920e-001 
5.841797e-001 
5.737460e-001 
5.611449e-001 
5.473320e-001 
5.306621e-001 
5.120181e-001 
4.901271e-001 
4.635289e-001 
4.367244e-001 
4.101581e-001 
3.819820e-001 
3.528655e-001 
3.229684e-001 
2.914129e-001 
2.603148e-001 
2.295128e-001 
2.005402e-001 
1.734281e-001 
1.456374e-001 
1.174975e-001 
9.220067e-002 
6.985448e-002 
4.867833e-002 
2.893060e-002 
1.072475e-002 
-6.236358e-003 
-2.159859e-002 
-3.456541e-002 
-4.618341e-002 
-5.591648e-002 
-6.561630e-002 
-7.553331e-002 
-8.285639e-002 
-8.779871e-002 
-9.235603e-002 
-9.660956e-002 
-1.000990e-001 
-1.041620e-001 
-1.071144e-001 
-1.075784e-001 
-1.066855e-001 
-1.053469e-001 
-1.041696e-001 
-1.037603e-001 
-1.013981e-001 
-9.686779e-002 
-9.318370e-002 
-8.883748e-002 
-8.427284e-002 
-8.062789e-002 
-7.587113e-002 
-6.955382e-002 
-6.309283e-002 
-5.516216e-002 
-4.864011e-002 
-4.426230e-002 
-3.918702e-002 
-3.222326e-002 
-2.542259e-002 
-1.929937e-002 
-1.370761e-002 
-8.681115e-003 
-4.073819e-003 
9.403095e-005 
4.421391e-003 
8.849409e-003 
1.240870e-002 
1.469644e-002 
1.738530e-002 
1.966590e-002 
2.004219e-002 
1.771838e-002 
1.557164e-002 
1.302784e-002 
1.006171e-002 
9.288256e-003 
9.371391e-003 
5.255407e-003 
-1.173537e-004 
-5.682054e-003 
-1.073988e-002 
-1.289017e-002 
-1.585125e-002 
-1.963290e-002 
-2.303064e-002 
-2.964217e-002 
-3.783286e-002 
-4.084515e-002 
-4.324267e-002 
-4.717363e-002 
-5.209502e-002 
-5.801914e-002 
-6.326784e-002 
-6.682806e-002 
-7.004475e-002 
-7.257996e-002 
-7.497950e-002 
-8.105184e-002 
-8.759201e-002 
-9.112732e-002 
-9.268749e-002 
-9.396710e-002 
-9.400195e-002 
-9.567613e-002 
-9.919596e-002 
-1.018817e-001 
-1.041892e-001 
-1.050374e-001 
-1.057149e-001 
-1.069082e-001 
-1.069132e-001 
-1.069791e-001 
-1.092465e-001 
-1.112240e-001 
-1.130453e-001 
-1.157985e-001 
-1.168863e-001 
-1.166742e-001 
-1.160045e-001 
-1.162452e-001 
-1.168014e-001 
-1.160193e-001 
-1.140942e-001 
-1.119498e-001 
-1.084506e-001 
-1.041613e-001 
-1.015104e-001 
-1.006227e-001 
-9.901268e-002 
-9.416100e-002 
-8.838721e-002 
-8.414173e-002 
-8.216531e-002 
-8.015473e-002 
-7.794987e-002 
-7.519997e-002 
-7.283779e-002 
-7.049958e-002 
-7.018434e-002 
-7.388394e-002 
-8.006300e-002 
-8.568608e-002 
-8.853226e-002 
-9.048985e-002 
-9.114254e-002 
-9.082094e-002 
-9.043397e-002 
-8.992205e-002 
-8.771747e-002 
-8.591136e-002 
-8.413362e-002 
-8.184841e-002 
-7.923169e-002 
-7.480361e-002 
-7.155099e-002 
-7.070865e-002 
-6.855381e-002 
-6.650076e-002 
-6.533260e-002 
-6.163072e-002 
-5.755110e-002 
-5.554953e-002 
-5.574205e-002 
-5.917292e-002 
-6.267800e-002 
-6.449967e-002 
-6.749508e-002 
-6.961721e-002 
-7.086393e-002 
-7.234064e-002 
-7.403275e-002 
-7.433381e-002 
-7.247655e-002 
-6.905472e-002 
-6.720855e-002 
-6.601475e-002 
-6.276333e-002 
-5.841894e-002 
-5.471677e-002 
-5.425082e-002 
-5.505333e-002 
-5.501791e-002 
-5.265329e-002 
-4.670848e-002 
-3.506796e-002 
-1.783476e-002 
9.503389e-003 
5.444819e-002 
1.221014e-001 
2.158387e-001 
3.368173e-001 
4.800599e-001 
6.327536e-001 
7.803635e-001 
9.107580e-001 
1.013724e+000 
1.080878e+000 
1.112108e+000 
1.118098e+000 
1.112468e+000 
1.096895e+000 
1.066571e+000 
1.017667e+000 
9.451278e-001 
8.462053e-001 
7.299260e-001 
6.083767e-001 
4.885470e-001 
3.694660e-001 
2.437488e-001 
1.125739e-001 
-1.478388e-002 
-1.269833e-001 
-2.093838e-001 
-2.506572e-001 
-2.538679e-001 
-2.283818e-001 
-1.884038e-001 
-1.454440e-001 
-1.055458e-001 
-7.552253e-002 
-5.912277e-002 
-5.328945e-002 
-5.328854e-002 
-5.462400e-002 
-5.395601e-002 
-5.216793e-002 
-4.941183e-002 
-4.793125e-002 
-4.789424e-002 
-4.781018e-002 
-4.574135e-002 
-4.213070e-002 
-3.879536e-002 
-3.608398e-002 
-3.433702e-002 
-3.141396e-002 
-2.626622e-002 
-2.060207e-002 
-1.629801e-002 
-1.257543e-002 
-1.026482e-002 
-8.076289e-003 
-3.352965e-003 
1.760508e-003 
7.644923e-003 
1.226081e-002 
1.522978e-002 
1.874765e-002 
2.328129e-002 
2.762449e-002 
3.285390e-002 
3.784334e-002 
4.122450e-002 
4.591733e-002 
5.169692e-002 
5.935275e-002 
6.658631e-002 
7.321093e-002 
8.030882e-002 
8.934428e-002 
1.003154e-001 
1.126509e-001 
1.251645e-001 
1.374003e-001 
1.489024e-001 
1.602067e-001 
1.751501e-001 
1.933566e-001 
2.124470e-001 
2.295387e-001 
2.455932e-001 
2.638368e-001 
2.843311e-001 
3.040934e-001 
3.241457e-001 
3.452005e-001 
3.649496e-001 
3.828739e-001 
4.010620e-001 
4.218822e-001 
4.442295e-001 
4.634308e-001 
4.793978e-001 
4.964404e-001 
5.140888e-001 
5.305348e-001 
5.459989e-001 
5.603890e-001 
5.739037e-001 
5.870059e-001 
5.976454e-001 
6.077080e-001 
6.181389e-001 
6.256608e-001 
6.300908e-001 
6.324621e-001 
6.334492e-001 
6.335896e-001 
6.309707e-001 
6.235343e-001 
6.136996e-001 
6.020897e-001 
5.877303e-001 
5.702675e-001 
5.503851e-001 
5.284469e-001 
5.034093e-001 
4.763127e-001 
4.483484e-001 
4.206094e-001 
3.908396e-001 
3.583283e-001 
3.250706e-001 
2.934919e-001 
2.641103e-001 
2.353035e-001 
2.073128e-001 
1.804384e-001 
1.536572e-001 
1.271158e-001 
1.039312e-001 
8.411155e-002 
6.647837e-002 
4.995546e-002 
3.327516e-002 
1.819741e-002 
4.959590e-003 
-7.803014e-003 
-1.803891e-002 
-2.614069e-002 
-3.257258e-002 
-3.699660e-002 
-4.030393e-002 
-4.324087e-002 
-4.603384e-002 
-4.910212e-002 
-5.028170e-002 
-4.901987e-002 
-4.718883e-002 
-4.395788e-002 
-4.198168e-002 
-4.053506e-002 
-3.909533e-002 
-3.605686e-002 
-3.079229e-002 
-2.368102e-002 
-1.827513e-002 
-1.514206e-002 
-1.182067e-002 
-8.780764e-003 
-4.389728e-003 
2.862958e-005 
4.367489e-003 
7.353133e-003 
1.005532e-002 
1.236425e-002 
1.662447e-002 
2.196803e-002 
2.577255e-002 
2.782783e-002 
2.843148e-002 
2.905716e-002 
3.058649e-002 
3.368034e-002 
3.540141e-002 
3.591069e-002 
3.488819e-002 
3.285325e-002 
3.114081e-002 
3.057129e-002 
3.024925e-002 
2.921900e-002 
2.691700e-002 
2.345379e-002 
2.085597e-002 
1.736351e-002 
1.176472e-002 
6.625349e-003 
2.496611e-003 
-1.269438e-003 
-4.975111e-003 
-8.816769e-003 
-1.329134e-002 
-1.939296e-002 
-2.668054e-002 
-3.293162e-002 
-3.618023e-002 
-3.951649e-002 
-4.447601e-002 
-5.051164e-002 
-5.698082e-002 
-6.345587e-002 
-6.867156e-002 
-7.287014e-002 
-7.630106e-002 
-8.018314e-002 
-8.629474e-002 
-9.192856e-002 
-9.577146e-002 
-9.961320e-002 
-1.033822e-001 
-1.069683e-001 
-1.108469e-001 
-1.128313e-001 
-1.134950e-001 
-1.150853e-001 
-1.170337e-001 
-1.188410e-001 
-1.224110e-001 
-1.249783e-001 
-1.248476e-001 
-1.236986e-001 
-1.235213e-001 
-1.252985e-001 
-1.286806e-001 
-1.297775e-001 
-1.278522e-001 
-1.274099e-001 
-1.259931e-001 
-1.237531e-001 
-1.255013e-001 
-1.277672e-001 
-1.268875e-001 
-1.247190e-001 
-1.215623e-001 
-1.194422e-001 
-1.195522e-001 
-1.172692e-001 
-1.144037e-001 
-1.126500e-001 
-1.086855e-001 
-1.050602e-001 
-1.032199e-001 
-1.009892e-001 
-9.842256e-002 
-9.517155e-002 
-9.172950e-002 
-9.120083e-002 
-9.209176e-002 
-9.334093e-002 
-9.507951e-002 
-9.758900e-002 
-1.016496e-001 
-1.069194e-001 
-1.115114e-001 
-1.154494e-001 
-1.171038e-001 
-1.157607e-001 
-1.141635e-001 
-1.134039e-001 
-1.150668e-001 
-1.165101e-001 
-1.142427e-001 
-1.102820e-001 
-1.076641e-001 
-1.049451e-001 
-1.030514e-001 
-1.014781e-001 
-9.942532e-002 
-9.736276e-002 
-9.234916e-002 
-8.705913e-002 
-8.530593e-002 
-8.574314e-002 
-8.583986e-002 
-8.648249e-002 
-8.895052e-002 
-9.301944e-002 
-9.651843e-002 
-9.790516e-002 
-9.947868e-002 
-1.010595e-001 
-1.023884e-001 
-1.034459e-001 
-1.049743e-001 
-1.057126e-001 
-1.041416e-001 
-1.009628e-001 
-9.944432e-002 
-1.006291e-001 
-1.025978e-001 
-1.053400e-001 
-1.075686e-001 
-1.074888e-001 
-1.049081e-001 
-9.897925e-002 
-8.967632e-002 
-7.486879e-002 
-4.351090e-002 
8.076926e-003 
7.976108e-002 
1.743731e-001 
2.929465e-001 
4.306737e-001 
5.786655e-001 
7.225328e-001 
8.558107e-001 
9.680644e-001 
1.043889e+000 
1.084634e+000 
1.099913e+000 
1.096905e+000 
1.077556e+000 
1.042006e+000 
9.906171e-001 
9.234546e-001 
8.328185e-001 
7.222697e-001 
6.013404e-001 
4.751955e-001 
3.462891e-001 
2.168076e-001 
9.109393e-002 
-2.629122e-002 
-1.305119e-001 
-2.126969e-001 
-2.628796e-001 
-2.796241e-001 
-2.655077e-001 
-2.306718e-001 
-1.876989e-001 
-1.454594e-001 
-1.145727e-001 
-9.791614e-002 
-9.027713e-002 
-8.996335e-002 
-9.301832e-002 
-9.371557e-002 
-9.463029e-002 
-9.422791e-002 
-9.214256e-002 
-9.298369e-002 
-9.304715e-002 
-9.198012e-002 
-9.252989e-002 
-9.150001e-002 
-8.886216e-002 
-8.712329e-002 
-8.454897e-002 
-8.289839e-002 
-8.157353e-002 
-7.840965e-002 
-7.510274e-002 
-7.133206e-002 
-6.677805e-002 
-6.346470e-002 
-6.007012e-002 
-5.643396e-002 
-5.187803e-002 
-4.647210e-002 
-4.197236e-002 
-3.797103e-002 
-3.344681e-002 
-2.888102e-002 
-2.398455e-002 
-1.763939e-002 
-1.185543e-002 
-7.111613e-003 
-2.952564e-003 
2.935266e-003 
1.054348e-002 
1.787271e-002 
2.463133e-002 
3.179046e-002 
3.962782e-002 
4.792529e-002 
5.743564e-002 
6.888527e-002 
8.081621e-002 
9.136360e-002 
1.012701e-001 
1.130528e-001 
1.261330e-001 
1.404009e-001 
1.555459e-001 
1.702948e-001 
1.848755e-001 
1.998534e-001 
2.162897e-001 
2.336182e-001 
2.510952e-001 
2.674961e-001 
2.850218e-001 
3.044678e-001 
3.245553e-001 
3.443055e-001 
3.620843e-001 
3.792670e-001 
3.954932e-001 
4.122127e-001 
4.302151e-001 
4.494511e-001 
4.667283e-001 
4.802148e-001 
4.898796e-001 
4.987579e-001 
5.090203e-001 
5.176447e-001 
5.255728e-001 
5.300250e-001 
5.299329e-001 
5.271378e-001 
5.226257e-001 
5.168870e-001 
5.100196e-001 
4.993087e-001 
4.855951e-001 
4.694669e-001 
4.491593e-001 
4.277824e-001 
4.057631e-001 
3.808565e-001 
3.548233e-001 
3.272410e-001 
2.993501e-001 
2.711953e-001 
2.417008e-001 
2.127367e-001 
1.847240e-001 
1.570739e-001 
1.312792e-001 
1.070679e-001 
8.246503e-002 
5.843465e-002 
3.468322e-002 
1.439095e-002 
-2.309681e-003 
-1.778945e-002 
-3.187916e-002 
-4.462191e-002 
-5.729281e-002 
-6.819732e-002 
-7.628561e-002 
-8.412808e-002 
-9.037147e-002 
-9.619009e-002 
-1.026550e-001 
-1.069431e-001 
-1.083071e-001 
-1.090719e-001 
-1.090049e-001 
-1.096946e-001 
-1.103863e-001 
-1.083484e-001 
-1.066726e-001 
-1.037226e-001 
-9.929915e-002 
-9.638634e-002 
-9.488506e-002 
-9.236365e-002 
-8.731510e-002 
-8.003518e-002 
-7.563266e-002 
-7.230333e-002 
-6.790760e-002 
-6.436681e-002 
-6.047964e-002 
-5.591530e-002 
-5.066036e-002 
-4.459284e-002 
-4.177063e-002 
-4.098297e-002 
-3.733611e-002 
-3.358704e-002 
-3.059012e-002 
-2.891493e-002 
-2.792786e-002 
-2.560288e-002 
-2.282130e-002 
-2.321463e-002 
-2.433337e-002 
-2.534502e-002 
-2.714473e-002 
-2.864806e-002 
-3.007843e-002 
-3.025577e-002 
-3.060225e-002 
-3.448400e-002 
-4.067457e-002 
-4.541220e-002 
-4.883232e-002 
-5.165324e-002 
-5.566914e-002 
-6.144975e-002 
-6.647661e-002 
-7.168593e-002 
-7.747338e-002 
-8.167694e-002 
-8.601738e-002 
-9.111961e-002 
-9.745539e-002 
-1.044886e-001 
-1.102966e-001 
-1.140772e-001 
-1.184077e-001 
-1.243006e-001 
-1.301601e-001 
-1.352357e-001 
-1.396159e-001 
-1.440807e-001 
-1.478318e-001 
-1.512739e-001 
-1.545827e-001 
-1.593143e-001 
-1.629230e-001 
-1.652509e-001 
-1.680886e-001 
-1.718240e-001 
-1.749834e-001 
-1.761320e-001 
-1.765955e-001 
-1.782857e-001 
-1.809612e-001 
-1.840810e-001 
-1.880651e-001 
-1.902166e-001 
-1.895327e-001 
-1.880827e-001 
-1.878147e-001 
-1.894128e-001 
-1.918629e-001 
-1.932802e-001 
-1.931622e-001 
-1.903583e-001 
-1.856938e-001 
-1.820299e-001 
-1.815787e-001 
-1.810773e-001 
-1.799839e-001 
-1.786381e-001 
-1.768751e-001 
-1.751162e-001 
-1.725606e-001 
-1.695340e-001 
-1.677068e-001 
-1.663582e-001 
-1.647203e-001 
-1.653759e-001 
-1.666366e-001 
-1.684745e-001 
-1.699680e-001 
-1.709838e-001 
-1.748824e-001 
-1.800482e-001 
-1.837299e-001 
-1.854650e-001 
-1.839460e-001 
-1.807560e-001 
-1.785179e-001 
-1.765568e-001 
-1.761921e-001 
-1.763393e-001 
-1.725271e-001 
-1.674512e-001 
-1.626322e-001 
-1.589124e-001 
-1.580833e-001 
-1.577098e-001 
-1.555324e-001 
-1.531275e-001 
-1.503332e-001 
-1.467353e-001 
-1.462013e-001 
-1.471677e-001 
-1.483736e-001 
-1.509129e-001 
-1.541131e-001 
-1.576595e-001 
-1.623683e-001 
-1.651342e-001 
-1.647327e-001 
-1.647232e-001 
-1.637702e-001 
-1.633633e-001 
-1.646976e-001 
-1.645835e-001 
-1.628607e-001 
-1.607532e-001 
-1.575778e-001 
-1.555814e-001 
-1.559528e-001 
-1.584552e-001 
-1.617307e-001 
-1.622766e-001 
-1.605885e-001 
-1.573806e-001 
-1.497324e-001 
-1.339991e-001 
-1.035440e-001 
-5.429089e-002 
1.446635e-002 
1.100265e-001 
2.326773e-001 
3.761200e-001 
5.330101e-001 
6.905153e-001 
8.356312e-001 
9.554360e-001 
1.035663e+000 
1.076645e+000 
1.092213e+000 
1.092003e+000 
1.080054e+000 
1.053671e+000 
1.009488e+000 
9.440016e-001 
8.512252e-001 
7.351894e-001 
6.069652e-001 
4.783198e-001 
3.525129e-001 
2.232341e-001 
8.990179e-002 
-3.986797e-002 
-1.578146e-001 
-2.530876e-001 
-3.118373e-001 
-3.296896e-001 
-3.111363e-001 
-2.727828e-001 
-2.318232e-001 
-1.962719e-001 
-1.721230e-001 
-1.602869e-001 
-1.579749e-001 
-1.586799e-001 
-1.615570e-001 
-1.655786e-001 
-1.683804e-001 
-1.691500e-001 
-1.687079e-001 
-1.680483e-001 
-1.668348e-001 
-1.655299e-001 
-1.638861e-001 
-1.631642e-001 
-1.599595e-001 
-1.549530e-001 
-1.518262e-001 
-1.493649e-001 
-1.475674e-001 
-1.449385e-001 
-1.409115e-001 
-1.367047e-001 
-1.318830e-001 
-1.270114e-001 
-1.246948e-001 
-1.232590e-001 
-1.189046e-001 
-1.148150e-001 
-1.095862e-001 
-1.042902e-001 
-9.984488e-002 
-9.474765e-002 
-8.983476e-002 
-8.574493e-002 
-7.927960e-002 
-7.137233e-002 
-6.481931e-002 
-5.580863e-002 
-4.593622e-002 
-3.620315e-002 
-2.682378e-002 
-1.883320e-002 
-9.214444e-003 
3.300407e-003 
1.565159e-002 
2.879014e-002 
4.315905e-002 
5.667159e-002 
6.969312e-002 
8.314545e-002 
9.910309e-002 
1.179935e-001 
1.366705e-001 
1.539450e-001 
1.719840e-001 
1.908478e-001 
2.107366e-001 
2.309325e-001 
2.514697e-001 
2.720590e-001 
2.929037e-001 
3.139701e-001 
3.354637e-001 
3.581155e-001 
3.780890e-001 
3.962703e-001 
4.142464e-001 
4.322982e-001 
4.500165e-001 
4.674425e-001 
4.826574e-001 
4.955889e-001 
5.059380e-001 
5.141025e-001 
5.234474e-001 
5.321462e-001 
5.368590e-001 
5.384989e-001 
5.385430e-001 
5.360629e-001 
5.313101e-001 
5.252719e-001 
5.161906e-001 
5.040953e-001 
4.882929e-001 
4.687661e-001 
4.495238e-001 
4.290982e-001 
4.047148e-001 
3.784706e-001 
3.502550e-001 
3.199440e-001 
2.907276e-001 
2.601642e-001 
2.284899e-001 
1.983862e-001 
1.664612e-001 
1.352429e-001 
1.077066e-001 
8.067829e-002 
5.530711e-002 
3.021172e-002 
4.809145e-003 
-1.647769e-002 
-3.423685e-002 
-5.034901e-002 
-6.352145e-002 
-7.649267e-002 
-8.983305e-002 
-1.010128e-001 
-1.102584e-001 
-1.172690e-001 
-1.229759e-001 
-1.289811e-001 
-1.336564e-001 
-1.376243e-001 
-1.400325e-001 
-1.413479e-001 
-1.424007e-001 
-1.435042e-001 
-1.442967e-001 
-1.452008e-001 
-1.443429e-001 
-1.420460e-001 
-1.398232e-001 
-1.358035e-001 
-1.323664e-001 
-1.290074e-001 
-1.236565e-001 
-1.176466e-001 
-1.135060e-001 
-1.095248e-001 
-1.054384e-001 
-9.972136e-002 
-9.262535e-002 
-8.753250e-002 
-8.451633e-002 
-8.072103e-002 
-7.797408e-002 
-7.508915e-002 
-6.977849e-002 
-6.352945e-002 
-5.926003e-002 
-5.772468e-002 
-5.846244e-002 
-5.907432e-002 
-5.769142e-002 
-5.609144e-002 
-5.449407e-002 
-5.443083e-002 
-5.606162e-002 
-5.809138e-002 
-5.735310e-002 
-5.619511e-002 
-5.643822e-002 
-5.847224e-002 
-6.128262e-002 
-6.495451e-002 
-6.912590e-002 
-7.279748e-002 
-7.560471e-002 
-7.812400e-002 
-8.267742e-002 
-8.716578e-002 
-9.080002e-002 
-9.375859e-002 
-9.829109e-002 
-1.037740e-001 
-1.090909e-001 
-1.134984e-001 
-1.171824e-001 
-1.205473e-001 
-1.252853e-001 
-1.318122e-001 
-1.389146e-001 
-1.459036e-001 
-1.495296e-001 
-1.515974e-001 
-1.544877e-001 
-1.572308e-001 
-1.620648e-001 
-1.680952e-001 
-1.715125e-001 
-1.750577e-001 
-1.769391e-001 
-1.771625e-001 
-1.803003e-001 
-1.833501e-001 
-1.846243e-001 
-1.865385e-001 
-1.874028e-001 
-1.883414e-001 
-1.893651e-001 
-1.877196e-001 
-1.867533e-001 
-1.870308e-001 
-1.874526e-001 
-1.879715e-001 
-1.887021e-001 
-1.889531e-001 
-1.873935e-001 
-1.852198e-001 
-1.845442e-001 
-1.854282e-001 
-1.871200e-001 
-1.883647e-001 
-1.867546e-001 
-1.844023e-001 
-1.822547e-001 
-1.806893e-001 
-1.805603e-001 
-1.795499e-001 
-1.769079e-001 
-1.743583e-001 
-1.714188e-001 
-1.687247e-001 
-1.665255e-001 
-1.641256e-001 
-1.613940e-001 
-1.586021e-001 
-1.564485e-001 
-1.563757e-001 
-1.584315e-001 
-1.603208e-001 
-1.618024e-001 
-1.635498e-001 
-1.678507e-001 
-1.737295e-001 
-1.788789e-001 
-1.815049e-001 
-1.819603e-001 
-1.810147e-001 
-1.791975e-001 
-1.794009e-001 
-1.810335e-001 
-1.820765e-001 
-1.800380e-001 
-1.745500e-001 
-1.692651e-001 
-1.664945e-001 
-1.646993e-001 
-1.624923e-001 
-1.608043e-001 
-1.569695e-001 
-1.536276e-001 
-1.515721e-001 
-1.512097e-001 
-1.541241e-001 
-1.564277e-001 
-1.572433e-001 
-1.593393e-001 
-1.625312e-001 
-1.649094e-001 
-1.677259e-001 
-1.677313e-001 
-1.665273e-001 
-1.649355e-001 
-1.622759e-001 
-1.609928e-001 
-1.598605e-001 
-1.567594e-001 
-1.536415e-001 
-1.509949e-001 
-1.464974e-001 
-1.430259e-001 
-1.400986e-001 
-1.371731e-001 
-1.359438e-001 
-1.352303e-001 
-1.336643e-001 
-1.306872e-001 
-1.223211e-001 
-1.057207e-001 
-7.866464e-002 
-3.515601e-002 
2.835254e-002 
1.114648e-001 
2.171311e-001 
3.458857e-001 
4.899944e-001 
6.392245e-001 
7.847188e-001 
9.162105e-001 
1.022522e+000 
1.093936e+000 
1.128174e+000 
1.135863e+000 
1.124603e+000 
1.096044e+000 
1.052132e+000 
9.922456e-001 
9.116015e-001 
8.078158e-001 
6.846081e-001 
5.529201e-001 
4.210294e-001 
2.902393e-001 
1.598044e-001 
3.033944e-002 
-9.059051e-002 
-1.921022e-001 
-2.653528e-001 
-3.040248e-001 
-3.097603e-001 
-2.912181e-001 
-2.572388e-001 
-2.181153e-001 
-1.804537e-001 
-1.489071e-001 
-1.282069e-001 
-1.185656e-001 
-1.179522e-001 
-1.231572e-001 
-1.287063e-001 
-1.305970e-001 
-1.283085e-001 
-1.262522e-001 
-1.278583e-001 
-1.291084e-001 
-1.290885e-001 
-1.292923e-001 
-1.282820e-001 
-1.263146e-001 
-1.230806e-001 
-1.211244e-001 
-1.216223e-001 
-1.197503e-001 
-1.156740e-001 
-1.134447e-001 
-1.119596e-001 
-1.097883e-001 
-1.062225e-001 
-1.024770e-001 
-1.000148e-001 
-9.680309e-002 
-9.420466e-002 
-9.300261e-002 
-9.019795e-002 
-8.457853e-002 
-7.753105e-002 
-7.157905e-002 
-6.852221e-002 
-6.522164e-002 
-6.063074e-002 
-5.567487e-002 
-4.774612e-002 
-3.835423e-002 
-2.957946e-002 
-2.194428e-002 
-1.597860e-002 
-7.691476e-003 
3.587579e-003 
1.441917e-002 
2.461121e-002 
3.640237e-002 
4.832569e-002 
6.146152e-002 
7.450564e-002 
8.810204e-002 
1.042713e-001 
1.195004e-001 
1.330836e-001 
1.477519e-001 
1.646407e-001 
1.816708e-001 
1.987383e-001 
2.146661e-001 
2.320556e-001 
2.513323e-001 
2.688541e-001 
2.849448e-001 
3.018948e-001 
3.194144e-001 
3.368106e-001 
3.548638e-001 
3.716256e-001 
3.869907e-001 
4.021312e-001 
4.144013e-001 
4.276557e-001 
4.426132e-001 
4.570216e-001 
4.707251e-001 
4.821658e-001 
4.888702e-001 
4.954945e-001 
5.023716e-001 
5.057766e-001 
5.086760e-001 
5.083671e-001 
5.060356e-001 
5.019292e-001 
4.951858e-001 
4.860565e-001 
4.752861e-001 
4.608560e-001 
4.435994e-001 
4.251912e-001 
4.056085e-001 
3.844766e-001 
3.598475e-001 
3.324150e-001 
3.037957e-001 
2.751435e-001 
2.484843e-001 
2.219386e-001 
1.944747e-001 
1.669165e-001 
1.376855e-001 
1.090801e-001 
8.452567e-002 
6.269197e-002 
4.126215e-002 
2.057165e-002 
-6.850759e-004 
-1.961601e-002 
-3.494547e-002 
-4.914146e-002 
-6.147685e-002 
-7.134059e-002 
-8.124693e-002 
-9.164663e-002 
-9.970236e-002 
-1.053836e-001 
-1.093933e-001 
-1.131768e-001 
-1.184412e-001 
-1.219359e-001 
-1.227081e-001 
-1.230878e-001 
-1.245754e-001 
-1.249990e-001 
-1.245892e-001 
-1.244226e-001 
-1.224453e-001 
-1.205763e-001 
-1.189367e-001 
-1.161146e-001 
-1.144428e-001 
-1.129788e-001 
-1.083149e-001 
-1.034625e-001 
-9.944934e-002 
-9.528760e-002 
-9.317331e-002 
-8.929158e-002 
-8.387330e-002 
-7.986102e-002 
-7.587249e-002 
-7.248011e-002 
-7.019920e-002 
-6.607873e-002 
-6.064170e-002 
-5.522149e-002 
-5.069396e-002 
-4.906762e-002 
-4.742872e-002 
-4.611352e-002 
-4.326789e-002 
-3.887225e-002 
-3.673769e-002 
-3.627839e-002 
-3.630233e-002 
-3.727114e-002 
-3.624888e-002 
-3.367711e-002 
-3.243506e-002 
-3.153189e-002 
-3.358650e-002 
-3.657402e-002 
-3.695095e-002 
-3.699717e-002 
-3.835234e-002 
-4.036756e-002 
-4.338233e-002 
-4.642337e-002 
-4.902163e-002 
-5.020310e-002 
-5.110875e-002 
-5.483495e-002 
-5.964836e-002 
-6.449530e-002 
-6.951118e-002 
-7.274003e-002 
-7.702237e-002 
-8.272538e-002 
-8.708532e-002 
-9.408800e-002 
-1.005984e-001 
-1.033984e-001 
-1.084514e-001 
-1.140550e-001 
-1.186656e-001 
-1.252969e-001 
-1.299850e-001 
-1.338046e-001 
-1.398670e-001 
-1.442902e-001 
-1.488014e-001 
-1.544838e-001 
-1.564292e-001 
-1.586037e-001 
-1.623678e-001 
-1.656840e-001 
-1.702380e-001 
-1.741859e-001 
-1.748351e-001 
-1.754832e-001 
-1.764385e-001 
-1.775989e-001 
-1.808511e-001 
-1.832315e-001 
-1.840220e-001 
-1.845326e-001 
-1.843219e-001 
-1.846131e-001 
-1.875206e-001 
-1.899419e-001 
-1.905144e-001 
-1.905517e-001 
-1.906615e-001 
-1.904745e-001 
-1.918009e-001 
-1.935596e-001 
-1.943610e-001 
-1.944065e-001 
-1.937213e-001 
-1.931207e-001 
-1.930971e-001 
-1.920708e-001 
-1.897783e-001 
-1.889504e-001 
-1.875463e-001 
-1.856735e-001 
-1.838022e-001 
-1.807853e-001 
-1.759447e-001 
-1.717247e-001 
-1.698171e-001 
-1.696750e-001 
-1.703970e-001 
-1.688178e-001 
-1.652002e-001 
-1.605039e-001 
-1.572414e-001 
-1.559690e-001 
-1.583719e-001 
-1.619720e-001 
-1.642577e-001 
-1.653695e-001 
-1.667292e-001 
-1.704248e-001 
-1.756646e-001 
-1.814902e-001 
-1.844324e-001 
-1.861208e-001 
-1.861048e-001 
-1.851996e-001 
-1.844034e-001 
-1.843289e-001 
-1.824644e-001 
-1.802743e-001 
-1.773825e-001 
-1.734805e-001 
-1.720439e-001 
-1.707574e-001 
-1.683731e-001 
-1.650625e-001 
-1.615773e-001 
-1.592945e-001 
-1.590166e-001 
-1.570565e-001 
-1.562444e-001 
-1.577768e-001 
-1.601531e-001 
-1.629992e-001 
-1.666831e-001 
-1.718721e-001 
-1.756940e-001 
-1.764119e-001 
-1.769477e-001 
-1.788297e-001 
-1.807897e-001 
-1.812761e-001 
-1.794530e-001 
-1.779023e-001 
-1.769774e-001 
-1.737617e-001 
-1.721496e-001 
-1.724755e-001 
-1.709373e-001 
-1.691352e-001 
-1.674537e-001 
-1.673198e-001 
-1.699303e-001 
-1.723846e-001 
-1.723873e-001 
-1.713020e-001 
-1.667406e-001 
-1.584815e-001 
-1.470538e-001 
-1.278330e-001 
-9.358812e-002 
-3.831365e-002 
4.077248e-002 
1.469077e-001 
2.795631e-001 
4.331705e-001 
5.966117e-001 
7.558744e-001 
8.996045e-001 
1.016625e+000 
1.096798e+000 
1.141326e+000 
1.160620e+000 
1.160182e+000 
1.140458e+000 
1.099690e+000 
1.037356e+000 
9.541263e-001 
8.493188e-001 
7.280933e-001 
5.996325e-001 
4.662830e-001 
3.284605e-001 
1.860757e-001 
4.241720e-002 
-9.289813e-002 
-2.090263e-001 
-2.952357e-001 
-3.444571e-001 
-3.578872e-001 
-3.420369e-001 
-3.058778e-001 
-2.631472e-001 
-2.241920e-001 
-1.927878e-001 
-1.707379e-001 
-1.600474e-001 
-1.586367e-001 
-1.618113e-001 
-1.662905e-001 
-1.696401e-001 
-1.722235e-001 
-1.727867e-001 
-1.701955e-001 
-1.696681e-001 
-1.712545e-001 
-1.711840e-001 
-1.699935e-001 
-1.675169e-001 
-1.638862e-001 
-1.609906e-001 
-1.572363e-001 
-1.550046e-001 
-1.552317e-001 
-1.522325e-001 
-1.470888e-001 
-1.431080e-001 
-1.394586e-001 
-1.361959e-001 
-1.324561e-001 
-1.278121e-001 
-1.245170e-001 
-1.217030e-001 
-1.172659e-001 
-1.138522e-001 
-1.112489e-001 
-1.066457e-001 
-1.014071e-001 
-9.669129e-002 
-9.272090e-002 
-8.975640e-002 
-8.510787e-002 
-7.851490e-002 
-7.322631e-002 
-6.696517e-002 
-6.049129e-002 
-5.457332e-002 
-4.744973e-002 
-3.908984e-002 
-2.969659e-002 
-2.005509e-002 
-1.267980e-002 
-4.514206e-003 
6.161283e-003 
1.726429e-002 
3.003308e-002 
4.403404e-002 
5.765601e-002 
7.123781e-002 
8.490551e-002 
1.009473e-001 
1.198876e-001 
1.376148e-001 
1.540808e-001 
1.716115e-001 
1.904340e-001 
2.106662e-001 
2.314426e-001 
2.512753e-001 
2.708079e-001 
2.891332e-001 
3.070470e-001 
3.265102e-001 
3.475080e-001 
3.662995e-001 
3.833184e-001 
3.982973e-001 
4.119198e-001 
4.262117e-001 
4.406120e-001 
4.535284e-001 
4.650534e-001 
4.740718e-001 
4.801696e-001 
4.867512e-001 
4.904189e-001 
4.914480e-001 
4.909217e-001 
4.881903e-001 
4.833720e-001 
4.775926e-001 
4.696279e-001 
4.587266e-001 
4.445900e-001 
4.268695e-001 
4.088772e-001 
3.907973e-001 
3.712974e-001 
3.483933e-001 
3.234253e-001 
2.967077e-001 
2.696555e-001 
2.437972e-001 
2.179047e-001 
1.918609e-001 
1.650556e-001 
1.361146e-001 
1.078270e-001 
8.314052e-002 
5.981040e-002 
3.756287e-002 
1.382209e-002 
-1.070652e-002 
-3.209383e-002 
-5.116324e-002 
-6.841610e-002 
-8.314749e-002 
-9.606627e-002 
-1.082258e-001 
-1.197893e-001 
-1.303810e-001 
-1.379039e-001 
-1.436787e-001 
-1.490950e-001 
-1.534892e-001 
-1.566061e-001 
-1.576941e-001 
-1.589383e-001 
-1.602275e-001 
-1.602295e-001 
-1.596193e-001 
-1.579385e-001 
-1.540200e-001 
-1.502162e-001 
-1.477426e-001 
-1.461062e-001 
-1.448097e-001 
-1.420317e-001 
-1.373861e-001 
-1.322484e-001 
-1.270607e-001 
-1.234286e-001 
-1.217769e-001 
-1.189389e-001 
-1.137267e-001 
-1.075211e-001 
-1.021618e-001 
-9.765841e-002 
-9.475445e-002 
-9.226517e-002 
-8.914883e-002 
-8.495132e-002 
-8.065818e-002 
-7.707833e-002 
-7.418970e-002 
-7.266473e-002 
-7.035762e-002 
-6.844249e-002 
-6.687734e-002 
-6.561502e-002 
-6.570804e-002 
-6.631651e-002 
-6.517131e-002 
-6.489049e-002 
-6.754454e-002 
-6.996532e-002 
-7.312767e-002 
-7.574317e-002 
-7.726795e-002 
-7.965872e-002 
-8.289344e-002 
-8.671788e-002 
-9.270818e-002 
-9.876603e-002 
-1.026771e-001 
-1.070056e-001 
-1.114381e-001 
-1.167252e-001 
-1.247823e-001 
-1.326710e-001 
-1.378723e-001 
-1.419896e-001 
-1.472421e-001 
-1.530262e-001 
-1.590816e-001 
-1.642154e-001 
-1.689641e-001 
-1.748172e-001 
-1.795025e-001 
-1.829447e-001 
-1.881666e-001 
-1.937653e-001 
-1.956309e-001 
-1.969570e-001 
-1.999131e-001 
-2.031077e-001 
-2.069940e-001 
-2.092262e-001 
-2.103708e-001 
-2.111616e-001 
-2.108078e-001 
-2.114416e-001 
-2.157288e-001 
-2.192974e-001 
-2.191295e-001 
-2.191989e-001 
-2.198397e-001 
-2.204212e-001 
-2.205956e-001 
-2.217378e-001 
-2.235706e-001 
-2.249789e-001 
-2.244356e-001 
-2.238090e-001 
-2.256203e-001 
-2.268354e-001 
-2.258990e-001 
-2.247304e-001 
-2.252510e-001 
-2.256793e-001 
-2.260730e-001 
-2.260785e-001 
-2.247104e-001 
-2.236133e-001 
-2.217094e-001 
-2.195073e-001 
-2.188880e-001 
-2.179703e-001 
-2.143884e-001 
-2.113770e-001 
-2.086580e-001 
-2.051936e-001 
-2.029503e-001 
-2.003633e-001 
-1.968271e-001 
-1.930651e-001 
-1.893693e-001 
-1.862754e-001 
-1.850326e-001 
-1.830967e-001 
-1.803534e-001 
-1.785732e-001 
-1.778193e-001 
-1.786846e-001 
-1.830383e-001 
-1.891697e-001 
-1.937526e-001 
-1.986226e-001 
-2.030517e-001 
-2.058293e-001 
-2.068817e-001 
-2.068864e-001 
-2.070815e-001 
-2.082181e-001 
-2.088747e-001 
-2.089711e-001 
-2.092511e-001 
-2.076307e-001 
-2.039328e-001 
-1.997541e-001 
-1.979574e-001 
-1.969997e-001 
-1.958394e-001 
-1.938813e-001 
-1.907293e-001 
-1.873504e-001 
-1.852457e-001 
-1.854043e-001 
-1.886632e-001 
-1.929172e-001 
-1.947526e-001 
-1.969447e-001 
-2.005174e-001 
-2.033977e-001 
-2.042693e-001 
-2.041607e-001 
-2.039918e-001 
-2.026906e-001 
-2.006036e-001 
-2.005061e-001 
-2.024965e-001 
-2.030510e-001 
-2.000898e-001 
-1.958011e-001 
-1.935555e-001 
-1.922524e-001 
-1.909606e-001 
-1.906013e-001 
-1.902973e-001 
-1.902380e-001 
-1.912488e-001 
-1.942624e-001 
-1.970555e-001 
-1.957393e-001 
-1.892520e-001 
-1.782881e-001 
-1.592537e-001 
-1.273719e-001 
-7.534961e-002 
1.231781e-003 
1.046851e-001 
2.372688e-001 
3.917359e-001 
5.544551e-001 
7.135258e-001 
8.573961e-001 
9.730251e-001 
1.051149e+000 
1.091039e+000 
1.103805e+000 
1.099371e+000 
1.080282e+000 
1.045003e+000 
9.890853e-001 
9.073088e-001 
7.984104e-001 
6.721482e-001 
5.422196e-001 
4.130359e-001 
2.821354e-001 
1.457539e-001 
4.570264e-003 
-1.326042e-001 
-2.507863e-001 
-3.360793e-001 
-3.791644e-001 
-3.835380e-001 
-3.605689e-001 
-3.212740e-001 
-2.775276e-001 
-2.358463e-001 
-2.016815e-001 
-1.794133e-001 
-1.703716e-001 
-1.695230e-001 
-1.719280e-001 
-1.740821e-001 
-1.751382e-001 
-1.766512e-001 
-1.778565e-001 
-1.791718e-001 
-1.793687e-001 
-1.784290e-001 
-1.750462e-001 
-1.714327e-001 
-1.692020e-001 
-1.683903e-001 
-1.675181e-001 
-1.634858e-001 
-1.580013e-001 
-1.536846e-001 
-1.516965e-001 
-1.489712e-001 
-1.453371e-001 
-1.415810e-001 
-1.379251e-001 
-1.329716e-001 
-1.282926e-001 
-1.254095e-001 
-1.218171e-001 
-1.163891e-001 
-1.092595e-001 
-1.040953e-001 
-1.003573e-001 
-9.480345e-002 
-8.738110e-002 
-8.043402e-002 
-7.266577e-002 
-6.396284e-002 
-5.608557e-002 
-4.843167e-002 
-4.078208e-002 
-2.925643e-002 
-1.558760e-002 
-3.385024e-003 
6.649707e-003 
1.806055e-002 
3.111209e-002 
4.697633e-002 
6.484928e-002 
8.140942e-002 
9.848372e-002 
1.140194e-001 
1.293271e-001 
1.472370e-001 
1.678761e-001 
1.881225e-001 
2.087937e-001 
2.270561e-001 
2.442444e-001 
2.636821e-001 
2.826859e-001 
3.019234e-001 
3.210202e-001 
3.383476e-001 
3.557695e-001 
3.733892e-001 
3.898116e-001 
4.059137e-001 
4.204960e-001 
4.331931e-001 
4.465962e-001 
4.590353e-001 
4.701286e-001 
4.789204e-001 
4.840228e-001 
4.877562e-001 
4.892786e-001 
4.889801e-001 
4.887023e-001 
4.850627e-001 
4.769767e-001 
4.668185e-001 
4.530801e-001 
4.388505e-001 
4.243222e-001 
4.055365e-001 
3.848066e-001 
3.611852e-001 
3.343051e-001 
3.089595e-001 
2.825388e-001 
2.543160e-001 
2.268672e-001 
1.981846e-001 
1.687759e-001 
1.405089e-001 
1.129891e-001 
8.810497e-002 
6.425028e-002 
4.048150e-002 
1.845440e-002 
-1.323453e-003 
-1.981828e-002 
-3.736902e-002 
-5.400646e-002 
-6.805214e-002 
-7.938016e-002 
-8.822994e-002 
-9.601597e-002 
-1.038563e-001 
-1.114907e-001 
-1.173865e-001 
-1.213847e-001 
-1.240913e-001 
-1.243292e-001 
-1.247817e-001 
-1.260757e-001 
-1.284443e-001 
-1.301181e-001 
-1.290718e-001 
-1.243241e-001 
-1.210426e-001 
-1.182043e-001 
-1.154821e-001 
-1.127825e-001 
-1.081174e-001 
-1.037037e-001 
-9.940762e-002 
-9.353582e-002 
-8.806854e-002 
-8.444859e-002 
-8.007089e-002 
-7.472141e-002 
-6.926391e-002 
-6.543605e-002 
-6.253660e-002 
-5.772875e-002 
-5.264859e-002 
-5.020061e-002 
-4.830561e-002 
-4.600753e-002 
-4.461255e-002 
-4.487138e-002 
-4.347875e-002 
-4.015407e-002 
-3.853874e-002 
-4.090140e-002 
-4.337909e-002 
-4.414020e-002 
-4.563172e-002 
-4.851478e-002 
-5.104213e-002 
-5.270064e-002 
-5.648302e-002 
-6.246056e-002 
-6.682905e-002 
-6.976154e-002 
-7.444680e-002 
-8.050793e-002 
-8.608220e-002 
-9.047059e-002 
-9.475485e-002 
-1.003363e-001 
-1.067016e-001 
-1.130423e-001 
-1.194229e-001 
-1.247597e-001 
-1.289216e-001 
-1.325438e-001 
-1.373022e-001 
-1.430373e-001 
-1.494549e-001 
-1.556609e-001 
-1.586680e-001 
-1.601688e-001 
-1.640424e-001 
-1.692479e-001 
-1.743482e-001 
-1.785896e-001 
-1.814864e-001 
-1.848974e-001 
-1.878983e-001 
-1.902483e-001 
-1.939162e-001 
-1.978153e-001 
-1.997739e-001 
-2.003667e-001 
-2.012772e-001 
-2.038195e-001 
-2.065943e-001 
-2.078559e-001 
-2.071608e-001 
-2.055130e-001 
-2.052447e-001 
-2.055164e-001 
-2.048207e-001 
-2.041806e-001 
-2.034247e-001 
-2.015817e-001 
-1.999810e-001 
-1.992904e-001 
-1.996411e-001 
-1.998375e-001 
-1.979173e-001 
-1.951639e-001 
-1.940482e-001 
-1.941005e-001 
-1.946460e-001 
-1.948163e-001 
-1.932474e-001 
-1.903906e-001 
-1.882012e-001 
-1.879450e-001 
-1.880213e-001 
-1.874671e-001 
-1.862891e-001 
-1.837764e-001 
-1.796817e-001 
-1.765338e-001 
-1.747491e-001 
-1.730227e-001 
-1.695629e-001 
-1.652899e-001 
-1.618524e-001 
-1.587496e-001 
-1.558904e-001 
-1.533774e-001 
-1.512880e-001 
-1.488306e-001 
-1.461513e-001 
-1.444993e-001 
-1.438413e-001 
-1.418088e-001 
-1.396740e-001 
-1.394571e-001 
-1.407414e-001 
-1.443208e-001 
-1.489330e-001 
-1.528034e-001 
-1.568578e-001 
-1.601839e-001 
-1.642082e-001 
-1.686754e-001 
-1.719737e-001 
-1.732077e-001 
-1.726543e-001 
-1.702302e-001 
-1.685287e-001 
-1.679854e-001 
-1.667744e-001 
-1.642570e-001 
-1.590925e-001 
-1.542764e-001 
-1.502168e-001 
-1.476722e-001 
-1.457964e-001 
-1.431685e-001 
-1.382949e-001 
-1.330920e-001 
-1.284724e-001 
-1.267440e-001 
-1.293240e-001 
-1.319951e-001 
-1.336010e-001 
-1.338602e-001 
-1.343738e-001 
-1.357581e-001 
-1.366930e-001 
-1.355637e-001 
-1.341750e-001 
-1.324748e-001 
-1.299296e-001 
-1.275992e-001 
-1.261085e-001 
-1.239918e-001 
-1.190859e-001 
-1.134151e-001 
-1.090924e-001 
-1.068952e-001 
-1.054719e-001 
-1.031492e-001 
-9.848304e-002 
-9.322588e-002 
-8.835262e-002 
-8.447570e-002 
-8.198614e-002 
-8.022942e-002 
-7.773237e-002 
-7.506470e-002 
-7.375172e-002 
-7.222905e-002 
-6.926117e-002 
-6.273332e-002 
-5.065900e-002 
-3.303274e-002 
-5.753911e-003 
4.150493e-002 
1.118319e-001 
2.091134e-001 
3.385805e-001 
4.937148e-001 
6.559607e-001 
8.050702e-001 
9.238520e-001 
1.004469e+000 
1.049764e+000 
1.066529e+000 
1.071598e+000 
1.075783e+000 
1.070236e+000 
1.042873e+000 
9.909430e-001 
9.107968e-001 
8.079440e-001 
6.972981e-001 
5.884301e-001 
4.842559e-001 
3.750919e-001 
2.501417e-001 
1.156318e-001 
-1.307076e-002 
-1.211752e-001 
-1.897127e-001 
-2.111958e-001 
-1.944960e-001 
-1.556909e-001 
-1.130568e-001 
-7.693907e-002 
-4.879253e-002 
-3.109396e-002 
-2.389310e-002 
-2.362525e-002 
-2.666359e-002 
-2.984159e-002 
-3.060904e-002 
-2.941794e-002 
-2.651399e-002 
-2.364003e-002 
-2.242277e-002 
-2.174597e-002 
-2.029176e-002 
-1.678421e-002 
-1.170289e-002 
-6.807513e-003 
-2.952279e-003 
6.190913e-004 
4.079886e-003 
8.728763e-003 
1.310791e-002 
1.778701e-002 
2.265299e-002 
2.684436e-002 
3.119762e-002 
3.688183e-002 
4.291782e-002 
4.939665e-002 
5.522593e-002 
6.041623e-002 
6.717006e-002 
7.506837e-002 
8.369448e-002 
9.171032e-002 
9.872928e-002 
1.063503e-001 
1.161118e-001 
1.273384e-001 
1.391362e-001 
1.516638e-001 
1.642775e-001 
1.758232e-001 
1.884376e-001 
2.043715e-001 
2.214276e-001 
2.386133e-001 
2.554522e-001 
2.722464e-001 
2.922711e-001 
3.138405e-001 
3.347408e-001 
3.564183e-001 
3.760972e-001 
3.931538e-001 
4.122543e-001 
4.331450e-001 
4.542464e-001 
4.752959e-001 
4.926612e-001 
5.080375e-001 
5.236229e-001 
5.374114e-001 
5.524971e-001 
5.686016e-001 
5.815702e-001 
5.913645e-001 
5.998247e-001 
6.070674e-001 
6.148928e-001 
6.190811e-001 
6.204537e-001 
6.223764e-001 
6.227696e-001 
6.209153e-001 
6.173138e-001 
6.117740e-001 
6.033142e-001 
5.913642e-001 
5.750040e-001 
5.596943e-001 
5.438880e-001 
5.244746e-001 
5.018649e-001 
4.780242e-001 
4.529953e-001 
4.273821e-001 
4.022868e-001 
3.761730e-001 
3.506039e-001 
3.235607e-001 
2.964090e-001 
2.718274e-001 
2.484319e-001 
2.241505e-001 
2.031134e-001 
1.836144e-001 
1.633254e-001 
1.465124e-001 
1.318662e-001 
1.192010e-001 
1.070970e-001 
9.477987e-002 
8.593544e-002 
8.180891e-002 
7.590570e-002 
7.015415e-002 
6.716642e-002 
6.388964e-002 
6.220975e-002 
6.189635e-002 
6.329720e-002 
6.628051e-002 
6.741769e-002 
6.667746e-002 
6.886661e-002 
7.183570e-002 
7.551936e-002 
8.001014e-002 
8.357353e-002 
8.697212e-002 
9.014285e-002 
9.360929e-002 
9.829212e-002 
1.032383e-001 
1.072413e-001 
1.112825e-001 
1.153832e-001 
1.199475e-001 
1.240894e-001 
1.282430e-001 
1.318246e-001 
1.351909e-001 
1.391863e-001 
1.435112e-001 
1.473270e-001 
1.501458e-001 
1.519226e-001 
1.525764e-001 
1.533182e-001 
1.552592e-001 
1.585480e-001 
1.598922e-001 
1.587835e-001 
1.562779e-001 
1.538375e-001 
1.526880e-001 
1.512174e-001 
1.498777e-001 
1.484924e-001 
1.449177e-001 
1.392068e-001 
1.349425e-001 
1.305868e-001 
1.259399e-001 
1.211210e-001 
1.152018e-001 
1.097259e-001 
1.052459e-001 
9.957330e-002 
9.286022e-002 
8.725013e-002 
8.074949e-002 
7.570215e-002 
7.151058e-002 
6.657322e-002 
6.253372e-002 
5.872280e-002 
5.217188e-002 
4.642279e-002 
4.423891e-002 
4.265582e-002 
3.991565e-002 
3.483638e-002 
2.970364e-002 
2.666250e-002 
2.292844e-002 
1.799006e-002 
1.543098e-002 
1.447517e-002 
1.065666e-002 
4.605775e-003 
2.123218e-004 
-1.720810e-003 
-4.419587e-003 
-9.403674e-003 
-1.242424e-002 
-1.304820e-002 
-1.359892e-002 
-1.646200e-002 
-2.037829e-002 
-2.268348e-002 
-2.366488e-002 
-2.504775e-002 
-2.429927e-002 
-2.161189e-002 
-2.108547e-002 
-2.270927e-002 
-2.543598e-002 
-2.662575e-002 
-2.427721e-002 
-2.186914e-002 
-2.096414e-002 
-2.032889e-002 
-2.033328e-002 
-2.046244e-002 
-1.929973e-002 
-1.657241e-002 
-1.329698e-002 
-1.178875e-002 
-1.267544e-002 
-1.254498e-002 
-1.008699e-002 
-6.135410e-003 
-2.732214e-003 
-2.573063e-004 
2.520339e-003 
3.897463e-003 
4.067053e-003 
6.255147e-003 
9.042275e-003 
1.169966e-002 
1.386655e-002 
1.512130e-002 
1.673712e-002 
1.716795e-002 
1.308625e-002 
8.932136e-003 
5.083685e-003 
1.453778e-003 
6.621697e-004 
1.090929e-003 
7.944516e-004 
4.469880e-004 
-1.206868e-003 
-2.521282e-003 
1.039924e-004 
2.956340e-003 
6.485499e-003 
9.509730e-003 
1.064393e-002 
1.187819e-002 
1.460782e-002 
1.673040e-002 
1.864256e-002 
2.064430e-002 
2.155041e-002 
2.255882e-002 
2.309759e-002 
2.295009e-002 
2.207115e-002 
1.965870e-002 
1.487187e-002 
9.914921e-003 
7.360858e-003 
5.591784e-003 
3.513950e-003 
4.805697e-004 
-1.140536e-003 
-1.693288e-003 
-1.072253e-003 
-3.461931e-004 
1.009303e-003 
2.722162e-003 
3.113988e-003 
2.845650e-003 
4.719651e-003 
8.071215e-003 
9.338939e-003 
1.052182e-002 
1.148028e-002 
1.320398e-002 
1.550958e-002 
1.858151e-002 
1.994401e-002 
2.210185e-002 
2.336964e-002 
2.340187e-002 
2.425579e-002 
2.556139e-002 
2.793498e-002 
3.359491e-002 
4.182030e-002 
5.424970e-002 
8.204214e-002 
1.292143e-001 
1.993303e-001 
2.958718e-001 
4.200835e-001 
5.687042e-001 
7.278681e-001 
8.752512e-001 
9.951707e-001 
1.077678e+000 
1.119503e+000 
1.130803e+000 
1.129058e+000 
1.126456e+000 
1.119464e+000 
1.094452e+000 
1.043877e+000 
9.648663e-001 
8.615061e-001 
7.476600e-001 
6.345380e-001 
5.272518e-001 
4.192854e-001 
2.999720e-001 
1.703464e-001 
4.430407e-002 
-6.408752e-002 
-1.363750e-001 
-1.624746e-001 
-1.467535e-001 
-1.033125e-001 
-5.331573e-002 
-1.300476e-002 
1.320361e-002 
2.744068e-002 
3.061475e-002 
2.906158e-002 
2.751811e-002 
2.681075e-002 
2.635216e-002 
2.640618e-002 
2.481824e-002 
2.512178e-002 
2.685537e-002 
2.681875e-002 
2.766845e-002 
2.823405e-002 
2.801687e-002 
3.108840e-002 
3.599999e-002 
3.807984e-002 
4.060775e-002 
4.150745e-002 
4.231164e-002 
4.583035e-002 
4.915457e-002 
5.233872e-002 
5.630116e-002 
5.848649e-002 
6.052179e-002 
6.543684e-002 
7.034910e-002 
7.558025e-002 
8.044569e-002 
8.308416e-002 
8.595627e-002 
9.094794e-002 
9.665140e-002 
1.025623e-001 
1.088481e-001 
1.153113e-001 
1.222127e-001 
1.304995e-001 
1.399931e-001 
1.515860e-001 
1.633834e-001 
1.742515e-001 
1.862291e-001 
2.015376e-001 
2.175036e-001 
2.332432e-001 
2.503010e-001 
2.675503e-001 
2.850970e-001 
3.030857e-001 
3.217175e-001 
3.408595e-001 
3.593648e-001 
3.762747e-001 
3.934957e-001 
4.111874e-001 
4.279279e-001 
4.433066e-001 
4.579842e-001 
4.717815e-001 
4.850142e-001 
4.990154e-001 
5.134199e-001 
5.243214e-001 
5.326057e-001 
5.386669e-001 
5.447082e-001 
5.505991e-001 
5.557728e-001 
5.587363e-001 
5.598980e-001 
5.571463e-001 
5.508833e-001 
5.455711e-001 
5.391618e-001 
5.303218e-001 
5.178455e-001 
5.029400e-001 
4.859276e-001 
4.666158e-001 
4.449373e-001 
4.235732e-001 
4.000599e-001 
3.736038e-001 
3.466880e-001 
3.203389e-001 
2.944152e-001 
2.671259e-001 
2.373448e-001 
2.096345e-001 
1.834989e-001 
1.569125e-001 
1.324735e-001 
1.093305e-001 
8.636299e-002 
6.470195e-002 
4.445709e-002 
2.633126e-002 
1.243068e-002 
-2.536562e-003 
-1.752518e-002 
-3.019720e-002 
-4.178352e-002 
-5.014388e-002 
-5.614593e-002 
-6.307562e-002 
-7.018922e-002 
-7.629489e-002 
-8.243815e-002 
-8.546212e-002 
-8.600468e-002 
-8.663491e-002 
-8.640488e-002 
-8.698851e-002 
-8.834913e-002 
-8.764504e-002 
-8.521579e-002 
-8.304453e-002 
-8.047968e-002 
-7.692227e-002 
-7.338185e-002 
-6.976102e-002 
-6.651521e-002 
-6.308488e-002 
-6.030147e-002 
-5.740331e-002 
-5.442008e-002 
-4.977157e-002 
-4.507189e-002 
-4.336758e-002 
-4.265977e-002 
-4.069166e-002 
-3.797254e-002 
-3.496053e-002 
-3.038323e-002 
-2.796025e-002 
-2.739371e-002 
-2.826048e-002 
-2.826447e-002 
-2.534055e-002 
-2.189515e-002 
-2.041904e-002 
-1.966991e-002 
-2.025829e-002 
-2.183491e-002 
-2.157391e-002 
-2.117278e-002 
-2.054676e-002 
-2.235051e-002 
-2.663577e-002 
-3.075600e-002 
-3.318821e-002 
-3.582546e-002 
-3.913461e-002 
-4.333744e-002 
-4.902255e-002 
-5.465445e-002 
-6.019778e-002 
-6.500462e-002 
-6.988788e-002 
-7.569365e-002 
-8.300067e-002 
-8.957011e-002 
-9.611014e-002 
-1.023785e-001 
-1.077049e-001 
-1.132348e-001 
-1.200608e-001 
-1.256228e-001 
-1.296121e-001 
-1.333009e-001 
-1.386362e-001 
-1.461135e-001 
-1.524194e-001 
-1.576564e-001 
-1.627766e-001 
-1.675895e-001 
-1.706620e-001 
-1.756121e-001 
-1.820892e-001 
-1.878376e-001 
-1.920310e-001 
-1.953417e-001 
-1.983004e-001 
-2.028487e-001 
-2.087970e-001 
-2.128869e-001 
-2.169624e-001 
-2.190171e-001 
-2.219294e-001 
-2.280871e-001 
-2.332347e-001 
-2.365768e-001 
-2.400737e-001 
-2.430861e-001 
-2.442352e-001 
-2.465633e-001 
-2.504881e-001 
-2.552258e-001 
-2.572250e-001 
-2.564702e-001 
-2.563964e-001 
-2.579934e-001 
-2.598877e-001 
-2.605684e-001 
-2.610611e-001 
-2.605911e-001 
-2.588427e-001 
-2.566953e-001 
-2.555273e-001 
-2.548800e-001 
-2.536817e-001 
-2.511883e-001 
-2.488081e-001 
-2.468623e-001 
-2.452416e-001 
-2.431743e-001 
-2.406236e-001 
-2.381488e-001 
-2.362614e-001 
-2.345190e-001 
-2.325414e-001 
-2.315318e-001 
-2.300868e-001 
-2.272340e-001 
-2.250862e-001 
-2.243768e-001 
-2.235759e-001 
-2.244893e-001 
-2.257794e-001 
-2.274916e-001 
-2.321312e-001 
-2.373249e-001 
-2.422157e-001 
-2.474839e-001 
-2.511745e-001 
-2.546814e-001 
-2.578885e-001 
-2.602162e-001 
-2.623016e-001 
-2.640907e-001 
-2.632767e-001 
-2.618283e-001 
-2.613577e-001 
-2.615042e-001 
-2.608157e-001 
-2.584050e-001 
-2.559646e-001 
-2.533108e-001 
-2.516532e-001 
-2.505976e-001 
-2.504570e-001 
-2.494985e-001 
-2.492022e-001 
-2.492156e-001 
-2.515058e-001 
-2.560021e-001 
-2.615909e-001 
-2.669855e-001 
-2.698690e-001 
-2.710619e-001 
-2.730275e-001 
-2.765280e-001 
-2.785553e-001 
-2.796613e-001 
-2.791922e-001 
-2.781799e-001 
-2.767566e-001 
-2.761769e-001 
-2.770168e-001 
-2.776462e-001 
-2.762618e-001 
-2.733844e-001 
-2.712459e-001 
-2.701347e-001 
-2.691728e-001 
-2.684476e-001 
-2.688293e-001 
-2.667192e-001 
-2.642608e-001 
-2.631461e-001 
-2.621178e-001 
-2.618936e-001 
-2.610368e-001 
-2.600561e-001 
-2.614840e-001 
-2.588602e-001 
-2.504263e-001 
-2.408524e-001 
-2.231175e-001 
-1.927113e-001 
-1.470255e-001 
-8.120962e-002 
5.552436e-003 
1.154171e-001 
2.505681e-001 
3.956153e-001 
5.378520e-001 
6.696946e-001 
7.764616e-001 
8.484721e-001 
8.869872e-001 
8.980397e-001 
8.918637e-001 
8.741182e-001 
8.391351e-001 
7.868535e-001 
7.150429e-001 
6.196011e-001 
5.063384e-001 
3.869539e-001 
2.658927e-001 
1.447114e-001 
2.200900e-002 
-1.038954e-001 
-2.265008e-001 
-3.363777e-001 
-4.208734e-001 
-4.684847e-001 
-4.795033e-001 
-4.625550e-001 
-4.282407e-001 
-3.865348e-001 
-3.473007e-001 
-3.152322e-001 
-2.925291e-001 
-2.792350e-001 
-2.748379e-001 
-2.764972e-001 
-2.789854e-001 
-2.811764e-001 
-2.821202e-001 
-2.819103e-001 
-2.808489e-001 
-2.808648e-001 
-2.809264e-001 
-2.802258e-001 
-2.777052e-001 
-2.757691e-001 
-2.759523e-001 
-2.751377e-001 
-2.722111e-001 
-2.696920e-001 
-2.669268e-001 
-2.631409e-001 
-2.600979e-001 
-2.591462e-001 
-2.598500e-001 
-2.578398e-001 
-2.527651e-001 
-2.481156e-001 
-2.454133e-001 
-2.423493e-001 
-2.397053e-001 
-2.366985e-001 
-2.326728e-001 
-2.259344e-001 
-2.188207e-001 
-2.142968e-001 
-2.109444e-001 
-2.058474e-001 
-1.980521e-001 
-1.903543e-001 
-1.822635e-001 
-1.738512e-001 
-1.656579e-001 
-1.580620e-001 
-1.489901e-001 
-1.378602e-001 
-1.256984e-001 
-1.144329e-001 
-1.043594e-001 
-9.173825e-002 
-7.711462e-002 
-6.228490e-002 
-4.698600e-002 
-3.221785e-002 
-1.702619e-002 
-7.811580e-004 
1.611616e-002 
3.502636e-002 
5.473412e-002 
7.148404e-002 
8.832886e-002 
1.051532e-001 
1.229040e-001 
1.428343e-001 
1.601812e-001 
1.764951e-001 
1.918984e-001 
2.047809e-001 
2.194733e-001 
2.357671e-001 
2.493893e-001 
2.623372e-001 
2.723766e-001 
2.801008e-001 
2.893679e-001 
2.974094e-001 
3.044485e-001 
3.110040e-001 
3.144399e-001 
3.162119e-001 
3.158955e-001 
3.128284e-001 
3.086383e-001 
3.025158e-001 
2.938298e-001 
2.840132e-001 
2.727829e-001 
2.599425e-001 
2.433341e-001 
2.221362e-001 
2.002546e-001 
1.782187e-001 
1.558338e-001 
1.333880e-001 
1.093454e-001 
8.252745e-002 
5.457212e-002 
2.610474e-002 
-8.906679e-004 
-2.510497e-002 
-4.964039e-002 
-7.456920e-002 
-9.912712e-002 
-1.236934e-001 
-1.452106e-001 
-1.640442e-001 
-1.826023e-001 
-2.000436e-001 
-2.161513e-001 
-2.315007e-001 
-2.444619e-001 
-2.550831e-001 
-2.643924e-001 
-2.731438e-001 
-2.818129e-001 
-2.886441e-001 
-2.935219e-001 
-2.970745e-001 
-3.010004e-001 
-3.040430e-001 
-3.065001e-001 
-3.090496e-001 
-3.096891e-001 
-3.079779e-001 
-3.070631e-001 
-3.077209e-001 
-3.072259e-001 
-3.066465e-001 
-3.044557e-001 
-3.012602e-001 
-2.987771e-001 
-2.954662e-001 
-2.926258e-001 
-2.906062e-001 
-2.865085e-001 
-2.817220e-001 
-2.791547e-001 
-2.754378e-001 
-2.718789e-001 
-2.686874e-001 
-2.639165e-001 
-2.597167e-001 
-2.560918e-001 
-2.535983e-001 
-2.526837e-001 
-2.504883e-001 
-2.454949e-001 
-2.423905e-001 
-2.415845e-001 
-2.425402e-001 
-2.438478e-001 
-2.442967e-001 
-2.445846e-001 
-2.437969e-001 
-2.426251e-001 
-2.434406e-001 
-2.476091e-001 
-2.515632e-001 
-2.532771e-001 
-2.550860e-001 
-2.577050e-001 
-2.616530e-001 
-2.663258e-001 
-2.703909e-001 
-2.743187e-001 
-2.774884e-001 
-2.799432e-001 
-2.848252e-001 
-2.910568e-001 
-2.954089e-001 
-3.003365e-001 
-3.051456e-001 
-3.094591e-001 
-3.149093e-001 
-3.212153e-001 
-3.287093e-001 
-3.357941e-001 
-3.405431e-001 
-3.454838e-001 
-3.522215e-001 
-3.579718e-001 
-3.630607e-001 
-3.683920e-001 
-3.738631e-001 
-3.807294e-001 
-3.872062e-001 
-3.933181e-001 
-3.989512e-001 
-4.035364e-001 
-4.064281e-001 
-4.097404e-001 
-4.147086e-001 
-4.200689e-001 
-4.249980e-001 
-4.264867e-001 
-4.275384e-001 
-4.302137e-001 
-4.335117e-001 
-4.360417e-001 
-4.392234e-001 
-4.416665e-001 
-4.421804e-001 
-4.431462e-001 
-4.444967e-001 
-4.473605e-001 
-4.496479e-001 
-4.493925e-001 
-4.486046e-001 
-4.487526e-001 
-4.483413e-001 
-4.484844e-001 
-4.494725e-001 
-4.483690e-001 
-4.461219e-001 
-4.441456e-001 
-4.430186e-001 
-4.409099e-001 
-4.375020e-001 
-4.335733e-001 
-4.301097e-001 
-4.278501e-001 
-4.257557e-001 
-4.254643e-001 
-4.263591e-001 
-4.254291e-001 
-4.225763e-001 
-4.224698e-001 
-4.248454e-001 
-4.293554e-001 
-4.341542e-001 
-4.385079e-001 
-4.445815e-001 
-4.506358e-001 
-4.561312e-001 
-4.618255e-001 
-4.663721e-001 
-4.684576e-001 
-4.691221e-001 
-4.678986e-001 
-4.682665e-001 
-4.686830e-001 
-4.663810e-001 
-4.627909e-001 
-4.582753e-001 
-4.527882e-001 
-4.488403e-001 
-4.461517e-001 
-4.437895e-001 
-4.406814e-001 
-4.356032e-001 
-4.313853e-001 
-4.301712e-001 
-4.292055e-001 
-4.285487e-001 
-4.300201e-001 
-4.325988e-001 
-4.361501e-001 
-4.390592e-001 
-4.427416e-001 
-4.462984e-001 
-4.473679e-001 
-4.467237e-001 
-4.479397e-001 
-4.491552e-001 
-4.492766e-001 
-4.482844e-001 
-4.451647e-001 
-4.417485e-001 
-4.387232e-001 
-4.364703e-001 
-4.355003e-001 
-4.338264e-001 
-4.301798e-001 
-4.280316e-001 
-4.271723e-001 
-4.242098e-001 
-4.187821e-001 
-4.096329e-001 
-3.929011e-001 
-3.648249e-001 
-3.196729e-001 
-2.536469e-001 
-1.644314e-001 
-4.772622e-002 
9.582807e-002 
2.536654e-001 
4.105397e-001 
5.522578e-001 
6.665092e-001 
7.467332e-001 
7.907492e-001 
8.057655e-001 
8.046728e-001 
7.922916e-001 
7.651199e-001 
7.186815e-001 
6.501403e-001 
5.591871e-001 
4.482357e-001 
3.246250e-001 
1.984357e-001 
7.397991e-002 
-5.270690e-002 
-1.843037e-001 
-3.171777e-001 
-4.372622e-001 
-5.310657e-001 
-5.892443e-001 
-6.059832e-001 
-5.873533e-001 
-5.491162e-001 
-5.060047e-001 
-4.675537e-001 
-4.383382e-001 
-4.190012e-001 
-4.116043e-001 
-4.114525e-001 
-4.135484e-001 
-4.167285e-001 
-4.191788e-001 
-4.181109e-001 
-4.151481e-001 
-4.127628e-001 
-4.118857e-001 
-4.114081e-001 
-4.096840e-001 
-4.069308e-001 
-4.031607e-001 
-3.995383e-001 
-3.967134e-001 
-3.942466e-001 
-3.905443e-001 
-3.860020e-001 
-3.818214e-001 
-3.788269e-001 
-3.749001e-001 
-3.708854e-001 
-3.681270e-001 
-3.639870e-001 
-3.569385e-001 
-3.502782e-001 
-3.457197e-001 
-3.430241e-001 
-3.386208e-001 
-3.308100e-001 
-3.237235e-001 
-3.182303e-001 
-3.110737e-001 
-3.033157e-001 
-2.976801e-001 
-2.908198e-001 
-2.827958e-001 
-2.737099e-001 
-2.650340e-001 
-2.577372e-001 
-2.489915e-001 
-2.366121e-001 
-2.246847e-001 
-2.138293e-001 
-2.012299e-001 
-1.892122e-001 
-1.761242e-001 
-1.600373e-001 
-1.431866e-001 
-1.264705e-001 
-1.097495e-001 
-9.342039e-002 
-7.491837e-002 
-5.537341e-002 
-3.542387e-002 
-1.470136e-002 
4.205559e-003 
2.120488e-002 
3.836150e-002 
5.676096e-002 
7.660339e-002 
9.464601e-002 
1.102823e-001 
1.264168e-001 
1.411346e-001 
1.554624e-001 
1.710571e-001 
1.858859e-001 
1.998885e-001 
2.129981e-001 
2.237972e-001 
2.353752e-001 
2.466120e-001 
2.557141e-001 
2.643779e-001 
2.717403e-001 
2.761080e-001 
2.802981e-001 
2.826830e-001 
2.814757e-001 
2.781089e-001 
2.717987e-001 
2.649236e-001 
2.567992e-001 
2.443268e-001 
2.284354e-001 
2.112811e-001 
1.900717e-001 
1.674667e-001 
1.448186e-001 
1.219424e-001 
9.781431e-002 
6.903437e-002 
3.868356e-002 
9.597473e-003 
-1.868268e-002 
-4.609301e-002 
-7.227177e-002 
-9.847550e-002 
-1.242523e-001 
-1.509899e-001 
-1.758906e-001 
-1.971576e-001 
-2.185486e-001 
-2.382322e-001 
-2.556739e-001 
-2.713805e-001 
-2.847894e-001 
-2.967763e-001 
-3.081612e-001 
-3.172137e-001 
-3.257513e-001 
-3.335308e-001 
-3.377885e-001 
-3.411712e-001 
-3.442587e-001 
-3.472293e-001 
-3.501546e-001 
-3.523598e-001 
-3.528868e-001 
-3.529955e-001 
-3.522417e-001 
-3.507685e-001 
-3.502883e-001 
-3.486964e-001 
-3.458196e-001 
-3.427469e-001 
-3.403202e-001 
-3.384975e-001 
-3.365824e-001 
-3.320661e-001 
-3.263555e-001 
-3.211764e-001 
-3.163555e-001 
-3.118946e-001 
-3.082963e-001 
-3.051808e-001 
-3.005690e-001 
-2.940468e-001 
-2.867818e-001 
-2.819239e-001 
-2.795852e-001 
-2.772657e-001 
-2.726447e-001 
-2.690988e-001 
-2.660364e-001 
-2.631452e-001 
-2.608779e-001 
-2.584626e-001 
-2.570622e-001 
-2.567460e-001 
-2.565451e-001 
-2.561790e-001 
-2.578769e-001 
-2.592924e-001 
-2.600557e-001 
-2.598900e-001 
-2.606662e-001 
-2.633979e-001 
-2.673708e-001 
-2.701154e-001 
-2.713190e-001 
-2.731563e-001 
-2.753271e-001 
-2.782059e-001 
-2.814209e-001 
-2.848169e-001 
-2.890045e-001 
-2.932655e-001 
-2.960382e-001 
-2.990458e-001 
-3.026120e-001 
-3.064007e-001 
-3.094336e-001 
-3.121330e-001 
-3.165089e-001 
-3.229219e-001 
-3.278934e-001 
-3.304047e-001 
-3.319584e-001 
-3.346077e-001 
-3.379078e-001 
-3.410836e-001 
-3.456554e-001 
-3.493206e-001 
-3.505830e-001 
-3.500831e-001 
-3.492600e-001 
-3.510214e-001 
-3.546031e-001 
-3.565501e-001 
-3.581609e-001 
-3.597850e-001 
-3.600930e-001 
-3.611655e-001 
-3.618973e-001 
-3.625541e-001 
-3.631641e-001 
-3.620437e-001 
-3.622797e-001 
-3.636934e-001 
-3.647387e-001 
-3.652660e-001 
-3.644316e-001 
-3.631104e-001 
-3.642233e-001 
-3.644837e-001 
-3.651583e-001 
-3.670383e-001 
-3.657778e-001 
-3.638666e-001 
-3.628337e-001 
-3.632978e-001 
-3.644308e-001 
-3.643497e-001 
-3.622079e-001 
-3.614089e-001 
-3.611316e-001 
-3.601432e-001 
-3.598889e-001 
-3.598454e-001 
-3.575886e-001 
-3.510010e-001 
-3.451385e-001 
-3.417550e-001 
-3.396515e-001 
-3.366156e-001 
-3.317692e-001 
-3.265308e-001 
-3.224407e-001 
-3.177500e-001 
-3.124369e-001 
-3.093758e-001 
-3.070112e-001 
-3.031737e-001 
-3.001277e-001 
-2.987272e-001 
-2.992467e-001 
-3.012041e-001 
-3.024011e-001 
-3.033453e-001 
-3.077957e-001 
-3.140690e-001 
-3.190061e-001 
-3.231561e-001 
-3.239997e-001 
-3.221701e-001 
-3.210487e-001 
-3.210418e-001 
-3.206189e-001 
-3.211899e-001 
-3.197542e-001 
-3.157874e-001 
-3.119288e-001 
-3.078554e-001 
-3.054875e-001 
-3.051835e-001 
-3.020947e-001 
-2.968190e-001 
-2.921917e-001 
-2.885813e-001 
-2.865310e-001 
-2.853770e-001 
-2.841537e-001 
-2.838965e-001 
-2.845000e-001 
-2.842393e-001 
-2.847997e-001 
-2.858181e-001 
-2.865362e-001 
-2.852319e-001 
-2.834050e-001 
-2.815765e-001 
-2.799758e-001 
-2.781013e-001 
-2.739369e-001 
-2.706663e-001 
-2.691165e-001 
-2.679119e-001 
-2.657977e-001 
-2.629682e-001 
-2.594657e-001 
-2.582715e-001 
-2.586112e-001 
-2.579315e-001 
-2.575504e-001 
-2.532382e-001 
-2.414090e-001 
-2.197602e-001 
-1.858338e-001 
-1.351160e-001 
-6.183074e-002 
3.996206e-002 
1.705411e-001 
3.212166e-001 
4.798570e-001 
6.299279e-001 
7.577150e-001 
8.546831e-001 
9.173604e-001 
9.491618e-001 
9.604305e-001 
9.582866e-001 
9.415648e-001 
9.052524e-001 
8.463616e-001 
7.655970e-001 
6.641935e-001 
5.481133e-001 
4.271250e-001 
3.064119e-001 
1.818762e-001 
4.934948e-002 
-8.824136e-002 
-2.182355e-001 
-3.251465e-001 
-3.973305e-001 
-4.298238e-001 
-4.262066e-001 
-3.982496e-001 
-3.602492e-001 
-3.206688e-001 
-2.859749e-001 
-2.573734e-001 
-2.373996e-001 
-2.280820e-001 
-2.277076e-001 
-2.307013e-001 
-2.328412e-001 
-2.326269e-001 
-2.305600e-001 
-2.285456e-001 
-2.262359e-001 
-2.250165e-001 
-2.242158e-001 
-2.230318e-001 
-2.197293e-001 
-2.163682e-001 
-2.148013e-001 
-2.129493e-001 
-2.094338e-001 
-2.050666e-001 
-2.014360e-001 
-1.988529e-001 
-1.968192e-001 
-1.948530e-001 
-1.936903e-001 
-1.900808e-001 
-1.833036e-001 
-1.779573e-001 
-1.745740e-001 
-1.712347e-001 
-1.666047e-001 
-1.611697e-001 
-1.551621e-001 
-1.481209e-001 
-1.396830e-001 
-1.325722e-001 
-1.263671e-001 
-1.182319e-001 
-1.088455e-001 
-1.003597e-001 
-9.131565e-002 
-8.132985e-002 
-7.145756e-002 
-6.115115e-002 
-5.036260e-002 
-3.937692e-002 
-2.762622e-002 
-1.609687e-002 
-3.385412e-003 
1.247281e-002 
2.750466e-002 
4.103532e-002 
5.565623e-002 
7.152333e-002 
8.839030e-002 
1.084621e-001 
1.280930e-001 
1.476356e-001 
1.673789e-001 
1.866289e-001 
2.065708e-001 
2.291282e-001 
2.516416e-001 
2.731274e-001 
2.940196e-001 
3.125435e-001 
3.319002e-001 
3.526095e-001 
3.723412e-001 
3.892925e-001 
4.058980e-001 
4.205567e-001 
4.356211e-001 
4.516432e-001 
4.650145e-001 
4.765100e-001 
4.863956e-001 
4.923886e-001 
4.976036e-001 
5.047081e-001 
5.100095e-001 
5.130586e-001 
5.121537e-001 
5.076892e-001 
5.030360e-001 
4.968789e-001 
4.875871e-001 
4.777315e-001 
4.652805e-001 
4.494081e-001 
4.310323e-001 
4.119050e-001 
3.915000e-001 
3.680731e-001 
3.414822e-001 
3.129445e-001 
2.843664e-001 
2.567665e-001 
2.295883e-001 
2.007380e-001 
1.724217e-001 
1.435151e-001 
1.157826e-001 
8.982722e-002 
6.577728e-002 
4.246515e-002 
1.929043e-002 
-3.268313e-003 
-2.378459e-002 
-4.113539e-002 
-5.692528e-002 
-7.135197e-002 
-8.499566e-002 
-9.721986e-002 
-1.089618e-001 
-1.164224e-001 
-1.214577e-001 
-1.264842e-001 
-1.316278e-001 
-1.366688e-001 
-1.409072e-001 
-1.433683e-001 
-1.445150e-001 
-1.447996e-001 
-1.434609e-001 
-1.434619e-001 
-1.425927e-001 
-1.408876e-001 
-1.390515e-001 
-1.376545e-001 
-1.359689e-001 
-1.331412e-001 
-1.296198e-001 
-1.248451e-001 
-1.204502e-001 
-1.169791e-001 
-1.150108e-001 
-1.132541e-001 
-1.110544e-001 
-1.068987e-001 
-1.011119e-001 
-9.668861e-002 
-9.376477e-002 
-9.130068e-002 
-8.873211e-002 
-8.590266e-002 
-8.149075e-002 
-7.785318e-002 
-7.384835e-002 
-6.998848e-002 
-6.759410e-002 
-6.464860e-002 
-6.035005e-002 
-5.797009e-002 
-5.705645e-002 
-5.527511e-002 
-5.258821e-002 
-4.770577e-002 
-4.403626e-002 
-4.196257e-002 
-4.111051e-002 
-4.008167e-002 
-4.007931e-002 
-3.912006e-002 
-3.607563e-002 
-3.424214e-002 
-3.494195e-002 
-3.783851e-002 
-4.053431e-002 
-4.312560e-002 
-4.475391e-002 
-4.837199e-002 
-5.198913e-002 
-5.550530e-002 
-5.915984e-002 
-6.116988e-002 
-6.366388e-002 
-6.742062e-002 
-7.238491e-002 
-7.725835e-002 
-8.260682e-002 
-8.575294e-002 
-8.819220e-002 
-9.065069e-002 
-9.472702e-002 
-1.003669e-001 
-1.055430e-001 
-1.089531e-001 
-1.108994e-001 
-1.138173e-001 
-1.170900e-001 
-1.206012e-001 
-1.244373e-001 
-1.277313e-001 
-1.297452e-001 
-1.328205e-001 
-1.352388e-001 
-1.377330e-001 
-1.412458e-001 
-1.427050e-001 
-1.427149e-001 
-1.436676e-001 
-1.447404e-001 
-1.466441e-001 
-1.488995e-001 
-1.486127e-001 
-1.486390e-001 
-1.500641e-001 
-1.512939e-001 
-1.521751e-001 
-1.525160e-001 
-1.523684e-001 
-1.523313e-001 
-1.522722e-001 
-1.514645e-001 
-1.519535e-001 
-1.524051e-001 
-1.509759e-001 
-1.478964e-001 
-1.459073e-001 
-1.457147e-001 
-1.455049e-001 
-1.444173e-001 
-1.425134e-001 
-1.412790e-001 
-1.389473e-001 
-1.366832e-001 
-1.356431e-001 
-1.352238e-001 
-1.336124e-001 
-1.313040e-001 
-1.299934e-001 
-1.292848e-001 
-1.275026e-001 
-1.237606e-001 
-1.202851e-001 
-1.177755e-001 
-1.151191e-001 
-1.121106e-001 
-1.095488e-001 
-1.066351e-001 
-1.027459e-001 
-9.838740e-002 
-9.570469e-002 
-9.643784e-002 
-9.924523e-002 
-9.978326e-002 
-9.857532e-002 
-9.819960e-002 
-1.002142e-001 
-1.043209e-001 
-1.092927e-001 
-1.159152e-001 
-1.221443e-001 
-1.259090e-001 
-1.261826e-001 
-1.259487e-001 
-1.251456e-001 
-1.243138e-001 
-1.226366e-001 
-1.196209e-001 
-1.171626e-001 
-1.139868e-001 
-1.092960e-001 
-1.033956e-001 
-9.672731e-002 
-9.037694e-002 
-8.682311e-002 
-8.324037e-002 
-7.956167e-002 
-7.667768e-002 
-7.309289e-002 
-6.968194e-002 
-6.874490e-002 
-6.985978e-002 
-7.194191e-002 
-7.498499e-002 
-7.667720e-002 
-7.829132e-002 
-8.052779e-002 
-8.202216e-002 
-8.309893e-002 
-8.336698e-002 
-8.001643e-002 
-7.671545e-002 
-7.674294e-002 
-7.630721e-002 
-7.545131e-002 
-7.339739e-002 
-6.922681e-002 
-6.427604e-002 
-5.964728e-002 
-5.614675e-002 
-5.598138e-002 
-5.657219e-002 
-5.518425e-002 
-5.475017e-002 
-5.491517e-002 
-5.413960e-002 
-5.115723e-002 
-4.510773e-002 
-3.408598e-002 
-1.763620e-002 
8.565449e-003 
5.193873e-002 
1.146859e-001 
1.984405e-001 
3.053672e-001 
4.331110e-001 
5.735710e-001 
7.173560e-001 
8.568497e-001 
9.845864e-001 
1.086396e+000 
1.149861e+000 
1.178716e+000 
1.184488e+000 
1.173014e+000 
1.144709e+000 
1.101233e+000 
1.041340e+000 
9.580248e-001 
8.490837e-001 
7.250487e-001 
5.994395e-001 
4.755152e-001 
3.503262e-001 
2.205150e-001 
9.153444e-002 
-2.700278e-002 
-1.255668e-001 
-1.944916e-001 
-2.275039e-001 
-2.295675e-001 
-2.094059e-001 
-1.769041e-001 
-1.411652e-001 
-1.053041e-001 
-7.570296e-002 
-5.771936e-002 
-5.175355e-002 
-5.208341e-002 
-5.392419e-002 
-5.444939e-002 
-5.462412e-002 
-5.412527e-002 
-5.339933e-002 
-5.378061e-002 
-5.471191e-002 
-5.417810e-002 
-5.052397e-002 
-4.758780e-002 
-4.719625e-002 
-4.705269e-002 
-4.481757e-002 
-4.074436e-002 
-3.626897e-002 
-3.310248e-002 
-3.027727e-002 
-2.800254e-002 
-2.666847e-002 
-2.382171e-002 
-1.945936e-002 
-1.515533e-002 
-1.143481e-002 
-9.466964e-003 
-7.183121e-003 
-2.600322e-003 
2.475622e-003 
6.844441e-003 
1.120344e-002 
1.496288e-002 
1.963515e-002 
2.604520e-002 
3.311198e-002 
4.052069e-002 
4.728611e-002 
5.381936e-002 
6.101849e-002 
6.925255e-002 
7.815053e-002 
8.869958e-002 
9.947543e-002 
1.096807e-001 
1.190683e-001 
1.308961e-001 
1.448622e-001 
1.579354e-001 
1.708211e-001 
1.855833e-001 
2.019560e-001 
2.186620e-001 
2.346162e-001 
2.510728e-001 
2.683642e-001 
2.846660e-001 
3.022563e-001 
3.226584e-001 
3.442032e-001 
3.640171e-001 
3.817910e-001 
3.998479e-001 
4.194310e-001 
4.375291e-001 
4.561696e-001 
4.753627e-001 
4.933401e-001 
5.093276e-001 
5.239574e-001 
5.397562e-001 
5.561306e-001 
5.693097e-001 
5.797941e-001 
5.902500e-001 
5.998298e-001 
6.097216e-001 
6.160514e-001 
6.194624e-001 
6.220879e-001 
6.212613e-001 
6.181760e-001 
6.152309e-001 
6.105915e-001 
6.042830e-001 
5.949635e-001 
5.799699e-001 
5.651729e-001 
5.505035e-001 
5.329729e-001 
5.137284e-001 
4.923497e-001 
4.678865e-001 
4.434116e-001 
4.183966e-001 
3.919726e-001 
3.662599e-001 
3.389890e-001 
3.105661e-001 
2.839550e-001 
2.576002e-001 
2.317338e-001 
2.082058e-001 
1.843388e-001 
1.607647e-001 
1.390162e-001 
1.185054e-001 
1.005732e-001 
8.445213e-002 
6.802323e-002 
5.429833e-002 
4.378230e-002 
3.445386e-002 
2.557002e-002 
1.657389e-002 
8.759552e-003 
2.817749e-003 
-2.154245e-003 
-6.634346e-003 
-9.148656e-003 
-1.129917e-002 
-1.561170e-002 
-2.023449e-002 
-2.172714e-002 
-1.994713e-002 
-1.730964e-002 
-1.617720e-002 
-1.628121e-002 
-1.426110e-002 
-1.199692e-002 
-9.983073e-003 
-5.591412e-003 
-7.262479e-004 
3.755438e-003 
6.849479e-003 
9.696478e-003 
1.532391e-002 
2.199811e-002 
2.754717e-002 
3.212604e-002 
3.645260e-002 
4.115288e-002 
4.661664e-002 
5.084450e-002 
5.523387e-002 
5.890059e-002 
6.179821e-002 
6.531117e-002 
6.788017e-002 
7.161987e-002 
7.557504e-002 
7.875572e-002 
8.128633e-002 
8.367516e-002 
8.568317e-002 
8.797994e-002 
8.820468e-002 
8.729961e-002 
8.791653e-002 
8.870358e-002 
8.949243e-002 
8.904258e-002 
8.695956e-002 
8.383778e-002 
8.015804e-002 
7.674199e-002 
7.571589e-002 
7.472593e-002 
6.967859e-002 
6.204845e-002 
5.484753e-002 
4.748701e-002 
4.137621e-002 
3.610444e-002 
2.971564e-002 
2.302033e-002 
1.389366e-002 
3.335959e-003 
-2.910795e-003 
-7.426815e-003 
-1.291881e-002 
-1.823032e-002 
-2.529867e-002 
-3.183787e-002 
-3.545514e-002 
-3.880734e-002 
-4.128218e-002 
-4.295617e-002 
-4.592931e-002 
-4.856171e-002 
-5.095955e-002 
-5.290301e-002 
-5.335859e-002 
-5.391395e-002 
-5.524732e-002 
-5.736879e-002 
-5.923287e-002 
-5.995800e-002 
-6.255257e-002 
-6.580225e-002 
-6.844621e-002 
-7.003181e-002 
-7.055457e-002 
-7.165940e-002 
-7.439926e-002 
-7.567006e-002 
-7.724512e-002 
-7.976668e-002 
-7.878500e-002 
-7.697497e-002 
-7.579413e-002 
-7.624189e-002 
-7.765445e-002 
-7.864099e-002 
-7.645377e-002 
-7.487020e-002 
-7.338723e-002 
-6.983760e-002 
-6.800716e-002 
-6.675605e-002 
-6.361888e-002 
-5.969101e-002 
-5.652921e-002 
-5.260268e-002 
-5.051488e-002 
-4.730315e-002 
-4.313117e-002 
-4.050295e-002 
-3.771754e-002 
-3.562033e-002 
-3.569524e-002 
-3.555153e-002 
-3.413861e-002 
-3.345156e-002 
-3.413348e-002 
-3.701792e-002 
-4.067423e-002 
-4.529834e-002 
-4.916511e-002 
-5.114811e-002 
-5.202030e-002 
-5.180325e-002 
-5.139016e-002 
-5.131960e-002 
-4.971527e-002 
-4.824704e-002 
-4.723299e-002 
-4.448096e-002 
-4.178160e-002 
-3.831424e-002 
-3.425713e-002 
-3.204974e-002 
-3.048111e-002 
-2.999289e-002 
-3.037659e-002 
-2.860356e-002 
-2.662763e-002 
-2.607155e-002 
-2.725151e-002 
-3.139381e-002 
-3.589734e-002 
-4.070892e-002 
-4.557256e-002 
-4.773537e-002 
-4.894089e-002 
-5.107055e-002 
-5.301838e-002 
-5.398776e-002 
-5.263956e-002 
-5.061592e-002 
-5.057710e-002 
-4.973624e-002 
-4.775135e-002 
-4.483159e-002 
-4.237711e-002 
-4.067141e-002 
-3.961284e-002 
-4.060016e-002 
-4.392095e-002 
-4.505945e-002 
-4.173016e-002 
-3.513373e-002 
-2.487437e-002 
-8.530400e-003 
2.132477e-002 
6.934483e-002 
1.414743e-001 
2.411556e-001 
3.678485e-001 
5.152497e-001 
6.728335e-001 
8.263811e-001 
9.625933e-001 
1.068133e+000 
1.135567e+000 
1.169206e+000 
1.178543e+000 
1.175146e+000 
1.161700e+000 
1.131162e+000 
1.077305e+000 
9.990617e-001 
8.967584e-001 
7.788452e-001 
6.558601e-001 
5.336921e-001 
4.090576e-001 
2.760823e-001 
1.376848e-001 
5.740805e-003 
-1.067297e-001 
-1.878510e-001 
-2.307644e-001 
-2.358164e-001 
-2.128470e-001 
-1.760959e-001 
-1.342097e-001 
-9.565875e-002 
-6.842714e-002 
-5.433607e-002 
-5.006843e-002 
-5.084403e-002 
-5.290631e-002 
-5.535884e-002 
-5.566993e-002 
-5.335766e-002 
-5.254693e-002 
-5.222485e-002 
-4.997644e-002 
-4.649748e-002 
-4.308544e-002 
-4.153500e-002 
-4.068902e-002 
-3.862872e-002 
-3.550575e-002 
-3.180907e-002 
-2.698658e-002 
-2.446582e-002 
-2.331606e-002 
-2.064516e-002 
-1.783371e-002 
-1.476374e-002 
-1.086573e-002 
-5.491801e-003 
-5.659883e-004 
2.410358e-003 
3.993269e-003 
7.613901e-003 
1.218192e-002 
1.564679e-002 
1.940163e-002 
2.601185e-002 
3.429162e-002 
4.030071e-002 
4.532364e-002 
5.107423e-002 
5.874714e-002 
6.797216e-002 
7.787374e-002 
8.859480e-002 
1.004567e-001 
1.102747e-001 
1.196537e-001 
1.315693e-001 
1.466953e-001 
1.632417e-001 
1.792175e-001 
1.941784e-001 
2.098457e-001 
2.257051e-001 
2.429499e-001 
2.629495e-001 
2.819360e-001 
3.008837e-001 
3.191447e-001 
3.375675e-001 
3.578909e-001 
3.784541e-001 
3.977421e-001 
4.182417e-001 
4.360136e-001 
4.533164e-001 
4.740275e-001 
4.929957e-001 
5.103332e-001 
5.268334e-001 
5.420726e-001 
5.568785e-001 
5.708791e-001 
5.831764e-001 
5.957945e-001 
6.050168e-001 
6.111098e-001 
6.161371e-001 
6.203431e-001 
6.236411e-001 
6.226345e-001 
6.189640e-001 
6.133888e-001 
6.044252e-001 
5.947170e-001 
5.822874e-001 
5.641109e-001 
5.442193e-001 
5.212530e-001 
4.944301e-001 
4.679641e-001 
4.396227e-001 
4.090871e-001 
3.762656e-001 
3.408643e-001 
3.074530e-001 
2.762136e-001 
2.439274e-001 
2.119094e-001 
1.811942e-001 
1.505076e-001 
1.213956e-001 
9.552408e-002 
7.329838e-002 
5.201488e-002 
3.068489e-002 
1.152792e-002 
-3.665580e-003 
-1.663972e-002 
-2.809268e-002 
-3.828399e-002 
-4.685880e-002 
-5.490531e-002 
-6.142051e-002 
-6.580817e-002 
-6.838267e-002 
-7.103746e-002 
-7.500228e-002 
-7.816801e-002 
-7.960999e-002 
-7.898955e-002 
-7.770567e-002 
-7.641220e-002 
-7.553553e-002 
-7.388977e-002 
-7.173953e-002 
-6.672377e-002 
-6.023674e-002 
-5.463051e-002 
-4.942868e-002 
-4.458583e-002 
-3.986430e-002 
-3.304378e-002 
-2.595562e-002 
-1.964963e-002 
-1.263567e-002 
-6.923465e-003 
-3.897452e-004 
7.364323e-003 
1.396311e-002 
1.893165e-002 
2.301864e-002 
2.484060e-002 
2.767326e-002 
3.171903e-002 
3.439400e-002 
3.594128e-002 
3.551859e-002 
3.443481e-002 
3.437351e-002 
3.577107e-002 
3.725815e-002 
3.815210e-002 
3.651127e-002 
3.283425e-002 
2.968404e-002 
2.797931e-002 
2.690430e-002 
2.596859e-002 
2.373720e-002 
1.915856e-002 
1.438920e-002 
1.030274e-002 
6.205442e-003 
3.016410e-003 
-8.306919e-004 
-5.999905e-003 
-1.101405e-002 
-1.719982e-002 
-2.319243e-002 
-2.868654e-002 
-3.537169e-002 
-4.106879e-002 
-4.491721e-002 
-4.874884e-002 
-5.263597e-002 
-5.796521e-002 
-6.432989e-002 
-6.970131e-002 
-7.507470e-002 
-7.847663e-002 
-8.028874e-002 
-8.415478e-002 
-8.840148e-002 
-9.271219e-002 
-9.670634e-002 
-9.953528e-002 
-1.017835e-001 
-1.040124e-001 
-1.061148e-001 
-1.097534e-001 
-1.131478e-001 
-1.139359e-001 
-1.148311e-001 
-1.174953e-001 
-1.203188e-001 
-1.214127e-001 
-1.220545e-001 
-1.226247e-001 
-1.239604e-001 
-1.239052e-001 
-1.234706e-001 
-1.247377e-001 
-1.249594e-001 
-1.229968e-001 
-1.212312e-001 
-1.215113e-001 
-1.231761e-001 
-1.234745e-001 
-1.205754e-001 
-1.180097e-001 
-1.146705e-001 
-1.112878e-001 
-1.099667e-001 
-1.081328e-001 
-1.055954e-001 
-1.023569e-001 
-9.729924e-002 
-9.356995e-002 
-9.259332e-002 
-9.056262e-002 
-8.867779e-002 
-8.594872e-002 
-8.229478e-002 
-8.122884e-002 
-8.247801e-002 
-8.367515e-002 
-8.686256e-002 
-9.032854e-002 
-9.208468e-002 
-9.603952e-002 
-1.004183e-001 
-1.023713e-001 
-1.029972e-001 
-1.017460e-001 
-1.000969e-001 
-1.012506e-001 
-1.015994e-001 
-1.015231e-001 
-1.015755e-001 
-9.786460e-002 
-9.172061e-002 
-8.738405e-002 
-8.594289e-002 
-8.656610e-002 
-8.553786e-002 
-8.111540e-002 
-7.702613e-002 
-7.396465e-002 
-7.170944e-002 
-7.161937e-002 
-7.425354e-002 
-7.862791e-002 
-8.200629e-002 
-8.396529e-002 
-8.585249e-002 
-8.787934e-002 
-8.950094e-002 
-8.951119e-002 
-8.878348e-002 
-8.891593e-002 
-8.989778e-002 
-9.000455e-002 
-8.826869e-002 
-8.497747e-002 
-8.249503e-002 
-8.233742e-002 
-8.357855e-002 
-8.573766e-002 
-8.642533e-002 
-8.318288e-002 
-7.593151e-002 
-6.619434e-002 
-4.903041e-002 
-1.764655e-002 
3.391340e-002 
1.108053e-001 
2.138103e-001 
3.409729e-001 
4.840860e-001 
6.292201e-001 
7.645616e-001 
8.797584e-001 
9.596643e-001 
1.001910e+000 
1.016555e+000 
1.015817e+000 
1.008349e+000 
9.904933e-001 
9.565977e-001 
9.026536e-001 
