83
2.1615
449.8193
0.6527
3.644863e-002 
1.074506e-001 
1.676266e-001 
1.896305e-001 
1.831567e-001 
1.741524e-001 
1.713772e-001 
1.690596e-001 
1.918761e-001 
2.592836e-001 
2.939026e-001 
2.618382e-001 
2.042225e-001 
1.754633e-001 
1.796627e-001 
1.906692e-001 
1.981550e-001 
2.070479e-001 
1.905595e-001 
1.289698e-001 
6.314736e-002 
2.898524e-002 
3.124001e-002 
4.216302e-002 
4.871888e-002 
5.131060e-002 
5.086203e-002 
4.805350e-002 
4.440655e-002 
3.956018e-002 
3.439260e-002 
2.881954e-002 
2.247784e-002 
1.595089e-002 
7.701458e-003 
-5.377479e-004 
-8.338351e-003 
-1.605127e-002 
-2.390548e-002 
-2.983214e-002 
-3.430412e-002 
-3.962248e-002 
-4.628910e-002 
-5.326115e-002 
-5.967913e-002 
-6.725685e-002 
-7.572545e-002 
-8.330273e-002 
-8.656203e-002 
-9.023785e-002 
-9.596461e-002 
-1.007507e-001 
-1.048640e-001 
-1.093718e-001 
-1.131836e-001 
-1.154066e-001 
-1.142741e-001 
-1.129829e-001 
-1.158232e-001 
-1.177055e-001 
-1.182716e-001 
-1.178937e-001 
-1.158072e-001 
-1.123150e-001 
-1.076335e-001 
-1.040077e-001 
-1.040567e-001 
-1.047465e-001 
-1.065322e-001 
-1.097314e-001 
-1.118207e-001 
-1.152006e-001 
-1.187048e-001 
-1.226532e-001 
-1.259606e-001 
-1.242088e-001 
-1.214585e-001 
-1.197413e-001 
-1.134224e-001 
-1.007544e-001 
-8.778154e-002 
-7.825795e-002 
-6.879523e-002 
-5.990014e-002 
-5.679635e-002 
-5.993082e-002 
-6.486259e-002 
-6.560710e-002 
-6.290400e-002 
-6.788953e-002 
-8.128904e-002 
-7.416918e-002 
-6.056884e-003 
1.495199e-001 
3.761948e-001 
5.513936e-001 
5.659626e-001 
4.874156e-001 
4.050846e-001 
3.514492e-001 
3.740557e-001 
4.734623e-001 
5.970450e-001 
6.358578e-001 
4.659967e-001 
2.167461e-001 
1.125597e-001 
1.198952e-001 
1.437405e-001 
1.506265e-001 
9.160069e-002 
-5.797203e-002 
-2.891944e-001 
-5.207128e-001 
-6.104534e-001 
-5.676408e-001 
-5.052979e-001 
-4.627579e-001 
-4.376504e-001 
-4.202065e-001 
-4.028358e-001 
-3.868953e-001 
-3.766125e-001 
-3.673484e-001 
-3.573561e-001 
-3.485071e-001 
-3.412976e-001 
-3.342191e-001 
-3.239945e-001 
-3.131052e-001 
-3.055113e-001 
-2.976687e-001 
-2.883031e-001 
-2.810515e-001 
-2.749447e-001 
-2.681024e-001 
-2.592785e-001 
-2.480187e-001 
-2.403511e-001 
-2.333498e-001 
-2.272447e-001 
-2.221620e-001 
-2.155688e-001 
-2.062781e-001 
-1.945887e-001 
-1.817045e-001 
-1.710803e-001 
-1.627241e-001 
-1.551545e-001 
-1.495968e-001 
-1.404837e-001 
-1.304299e-001 
-1.178160e-001 
-1.058040e-001 
-9.694346e-002 
-8.655331e-002 
-7.612404e-002 
-6.788795e-002 
-5.784876e-002 
-4.754486e-002 
-3.934663e-002 
-3.257025e-002 
-3.221398e-002 
-3.012952e-002 
-2.298436e-002 
-1.712121e-002 
-1.019131e-002 
-1.002800e-003 
1.103194e-002 
2.529369e-002 
3.410228e-002 
3.896349e-002 
4.926643e-002 
5.469591e-002 
5.209415e-002 
4.777622e-002 
4.414572e-002 
4.358075e-002 
3.811257e-002 
1.822585e-002 
1.186889e-002 
6.476465e-002 
1.976504e-001 
4.126390e-001 
6.089154e-001 
6.487255e-001 
5.701593e-001 
4.775645e-001 
4.090148e-001 
4.110198e-001 
4.948400e-001 
6.157729e-001 
6.813913e-001 
5.461562e-001 
2.825232e-001 
1.396831e-001 
1.358219e-001 
1.617103e-001 
1.750751e-001 
1.333704e-001 
3.500043e-003 
-2.164483e-001 
-4.641354e-001 
-5.890557e-001 
-5.621853e-001 
-4.978930e-001 
-4.539900e-001 
-4.284579e-001 
-4.114651e-001 
-3.975388e-001 
-3.865260e-001 
-3.761829e-001 
-3.653764e-001 
-3.561485e-001 
-3.458680e-001 
-3.353782e-001 
-3.247299e-001 
-3.147750e-001 
-3.066459e-001 
-2.968647e-001 
-2.848879e-001 
-2.749214e-001 
-2.649378e-001 
-2.538919e-001 
-2.430750e-001 
-2.330443e-001 
-2.247611e-001 
-2.168968e-001 
-2.087364e-001 
-2.012488e-001 
-1.947338e-001 
-1.873279e-001 
-1.782434e-001 
-1.684376e-001 
-1.611453e-001 
-1.541988e-001 
-1.486677e-001 
-1.424185e-001 
-1.352750e-001 
-1.299642e-001 
-1.234522e-001 
-1.152737e-001 
-1.082895e-001 
-1.022169e-001 
-9.530726e-002 
-8.864738e-002 
-7.900474e-002 
-7.143725e-002 
-6.471138e-002 
-5.872508e-002 
-5.499694e-002 
-5.269503e-002 
-5.072512e-002 
-4.554431e-002 
-3.620217e-002 
-2.600281e-002 
-1.441165e-002 
-1.051609e-003 
1.434427e-002 
2.907844e-002 
3.753504e-002 
4.852811e-002 
5.920697e-002 
5.994924e-002 
5.757169e-002 
5.416233e-002 
4.919606e-002 
4.590868e-002 
3.210617e-002 
1.255472e-002 
3.186541e-002 
1.253732e-001 
3.169887e-001 
5.588108e-001 
6.662131e-001 
6.021438e-001 
5.025534e-001 
4.241979e-001 
3.908517e-001 
4.468187e-001 
5.740785e-001 
7.043569e-001 
6.660111e-001 
3.974858e-001 
1.806030e-001 
1.573285e-001 
1.966323e-001 
2.250308e-001 
2.216505e-001 
1.380437e-001 
-4.893008e-002 
-3.136453e-001 
-5.078466e-001 
-5.141990e-001 
-4.351344e-001 
-3.772472e-001 
-3.465294e-001 
-3.284547e-001 
-3.158539e-001 
-3.023792e-001 
-2.886702e-001 
-2.766524e-001 
-2.622135e-001 
-2.492199e-001 
-2.383803e-001 
-2.275542e-001 
-2.181365e-001 
-2.061948e-001 
-1.929575e-001 
-1.793435e-001 
-1.644395e-001 
-1.520674e-001 
-1.415418e-001 
-1.318814e-001 
-1.239751e-001 
-1.147568e-001 
-1.056279e-001 
-9.778463e-002 
-8.980673e-002 
-8.559251e-002 
-8.114929e-002 
-7.536269e-002 
-7.171386e-002 
-6.637275e-002 
-6.160537e-002 
-5.783470e-002 
-5.272997e-002 
-4.926183e-002 
-4.444604e-002 
-3.824606e-002 
-3.438570e-002 
-2.940200e-002 
-2.270028e-002 
-1.500593e-002 
-4.738379e-003 
4.763916e-003 
1.544773e-002 
2.521817e-002 
3.017497e-002 
3.437961e-002 
3.852113e-002 
4.326378e-002 
4.823220e-002 
4.981568e-002 
5.190705e-002 
5.380472e-002 
5.481949e-002 
5.939806e-002 
6.476690e-002 
7.164706e-002 
8.335865e-002 
9.957507e-002 
1.147259e-001 
1.256864e-001 
1.359832e-001 
1.463289e-001 
1.479418e-001 
1.457180e-001 
1.444430e-001 
1.465722e-001 
1.496037e-001 
1.412558e-001 
1.238387e-001 
1.318078e-001 
2.042487e-001 
3.688619e-001 
6.121507e-001 
7.979910e-001 
8.077197e-001 
7.125683e-001 
6.175153e-001 
5.641030e-001 
5.979329e-001 
7.086611e-001 
8.430376e-001 
8.842614e-001 
7.001587e-001 
4.291560e-001 
3.185838e-001 
3.391147e-001 
3.793396e-001 
3.926296e-001 
3.292097e-001 
1.706714e-001 
-7.584350e-002 
-3.192287e-001 
-4.082773e-001 
-3.525506e-001 
-2.782535e-001 
-2.342776e-001 
-2.153363e-001 
-2.017912e-001 
-1.875930e-001 
-1.740525e-001 
-1.614820e-001 
-1.518639e-001 
-1.417451e-001 
-1.312501e-001 
-1.245280e-001 
-1.155478e-001 
-1.029043e-001 
-9.177703e-002 
-8.164224e-002 
-7.267223e-002 
-6.270807e-002 
-5.282007e-002 
-4.619597e-002 
-3.929606e-002 
-2.970556e-002 
-2.150776e-002 
-1.576970e-002 
-1.338930e-002 
-1.169223e-002 
-8.631875e-003 
-6.968167e-003 
-5.621206e-003 
-1.570656e-003 
3.120688e-003 
6.172117e-003 
7.359511e-003 
6.944758e-003 
9.184947e-003 
1.393164e-002 
1.809151e-002 
2.301083e-002 
3.085867e-002 
3.752123e-002 
4.284524e-002 
4.699810e-002 
5.290067e-002 
6.152783e-002 
6.976982e-002 
7.606197e-002 
8.212316e-002 
8.598187e-002 
8.625510e-002 
8.527160e-002 
8.368096e-002 
8.410485e-002 
8.425948e-002 
8.739629e-002 
9.302265e-002 
9.774886e-002 
1.024747e-001 
1.103409e-001 
1.241231e-001 
1.384928e-001 
1.488585e-001 
1.618422e-001 
1.729218e-001 
1.730340e-001 
1.674997e-001 
1.609798e-001 
1.582325e-001 
1.571696e-001 
1.440959e-001 
1.298631e-001 
1.490481e-001 
2.309617e-001 
4.007365e-001 
6.333085e-001 
7.969905e-001 
7.877718e-001 
6.862968e-001 
5.962772e-001 
5.582953e-001 
5.998780e-001 
7.053896e-001 
8.240787e-001 
8.395845e-001 
6.393698e-001 
3.776221e-001 
2.872426e-001 
3.162780e-001 
3.492691e-001 
3.458913e-001 
2.662158e-001 
9.543650e-002 
-1.527972e-001 
-3.841120e-001 
-4.547257e-001 
-3.915369e-001 
-3.245071e-001 
-2.869300e-001 
-2.681683e-001 
-2.563591e-001 
-2.423422e-001 
-2.287875e-001 
-2.170157e-001 
-2.053094e-001 
-1.956352e-001 
-1.857314e-001 
-1.757507e-001 
-1.660938e-001 
-1.525195e-001 
-1.367260e-001 
-1.212244e-001 
-1.060761e-001 
-9.372259e-002 
-8.293497e-002 
-7.252638e-002 
-6.427716e-002 
-5.433234e-002 
-4.238078e-002 
-3.078663e-002 
-2.215269e-002 
-1.889659e-002 
-1.723952e-002 
-1.408529e-002 
-1.112070e-002 
-7.378013e-003 
-7.125941e-004 
7.091667e-003 
1.114279e-002 
9.854061e-003 
9.023444e-003 
1.080775e-002 
1.463581e-002 
1.962318e-002 
2.642102e-002 
3.672742e-002 
4.597640e-002 
4.927380e-002 
5.322484e-002 
5.877438e-002 
6.371801e-002 
6.783523e-002 
6.968588e-002 
7.299211e-002 
7.563075e-002 
7.126516e-002 
6.493517e-002 
6.062027e-002 
5.539378e-002 
5.011252e-002 
4.282604e-002 
3.911645e-002 
4.180676e-002 
4.291104e-002 
4.354825e-002 
4.874178e-002 
5.988770e-002 
7.369629e-002 
8.343464e-002 
9.212999e-002 
1.046731e-001 
1.103132e-001 
1.077533e-001 
1.034457e-001 
1.010376e-001 
1.029669e-001 
9.896408e-002 
8.499883e-002 
8.111080e-002 
1.238453e-001 
2.441447e-001 
4.481476e-001 
6.392997e-001 
6.803658e-001 
6.025382e-001 
5.134067e-001 
4.509648e-001 
4.474562e-001 
5.228676e-001 
6.430380e-001 
7.155520e-001 
5.933603e-001 
3.346572e-001 
1.935500e-001 
1.966010e-001 
2.240356e-001 
2.354107e-001 
1.989889e-001 
7.873980e-002 
-1.295889e-001 
-3.688541e-001 
-4.902549e-001 
-4.575111e-001 
-3.918295e-001 
-3.523853e-001 
-3.305529e-001 
-3.174481e-001 
-3.055028e-001 
-2.926937e-001 
-2.795329e-001 
-2.676744e-001 
-2.605155e-001 
-2.537439e-001 
-2.458868e-001 
-2.372503e-001 
-2.263023e-001 
-2.139103e-001 
-1.998652e-001 
-1.863607e-001 
-1.770450e-001 
-1.677285e-001 
-1.588756e-001 
-1.519436e-001 
-1.427923e-001 
-1.343731e-001 
-1.264273e-001 
-1.189768e-001 
-1.165111e-001 
-1.149893e-001 
-1.130208e-001 
-1.119731e-001 
-1.072861e-001 
-1.026713e-001 
-9.967570e-002 
-9.690121e-002 
-9.799606e-002 
-1.004875e-001 
-1.019084e-001 
-1.032654e-001 
-1.009141e-001 
-9.583859e-002 
-9.093526e-002 
-8.514562e-002 
-8.170044e-002 
-7.781473e-002 
-7.352870e-002 
-7.040325e-002 
-6.628954e-002 
-6.156437e-002 
-5.895530e-002 
-5.855230e-002 
-6.113744e-002 
-6.377200e-002 
-6.570451e-002 
-6.945480e-002 
-7.241765e-002 
-7.528937e-002 
-7.585816e-002 
-7.295329e-002 
-6.935451e-002 
-6.522060e-002 
-5.836362e-002 
-4.599181e-002 
-3.003327e-002 
-1.867033e-002 
-7.221172e-003 
6.560370e-003 
1.170183e-002 
1.018218e-002 
5.806677e-003 
3.079489e-003 
4.781298e-003 
-7.183506e-005 
-1.460754e-002 
-1.967285e-002 
1.779808e-002 
1.355111e-001 
3.468373e-001 
5.534115e-001 
6.074888e-001 
5.289628e-001 
4.323249e-001 
3.634399e-001 
3.544708e-001 
4.278185e-001 
5.555370e-001 
6.436031e-001 
5.310989e-001 
2.630798e-001 
1.031925e-001 
9.914782e-002 
1.320659e-001 
1.502334e-001 
1.194441e-001 
2.631897e-003 
-2.101676e-001 
-4.636167e-001 
-6.012317e-001 
-5.753812e-001 
-5.037061e-001 
-4.551923e-001 
-4.296874e-001 
-4.156745e-001 
-4.047565e-001 
-3.917025e-001 
-3.770896e-001 
-3.642348e-001 
-3.556473e-001 
-3.471386e-001 
-3.381161e-001 
-3.284626e-001 
-3.178745e-001 
-3.047042e-001 
-2.886846e-001 
-2.743317e-001 
-2.636378e-001 
-2.524786e-001 
-2.430236e-001 
-2.344060e-001 
-2.242068e-001 
-2.149878e-001 
-2.047507e-001 
-1.960561e-001 
-1.915134e-001 
-1.878954e-001 
-1.839242e-001 
-1.812692e-001 
-1.753391e-001 
-1.688581e-001 
-1.626049e-001 
-1.564815e-001 
-1.539881e-001 
-1.530734e-001 
-1.518280e-001 
-1.496023e-001 
-1.457240e-001 
-1.391006e-001 
-1.300759e-001 
-1.202500e-001 
-1.137175e-001 
-1.076677e-001 
-1.019431e-001 
-9.726533e-002 
-9.175088e-002 
-8.664145e-002 
-8.025492e-002 
-7.519360e-002 
-7.649015e-002 
-7.904446e-002 
-7.935976e-002 
-7.967707e-002 
-7.408727e-002 
-6.582686e-002 
-5.629822e-002 
-4.516865e-002 
-3.337044e-002 
-2.032658e-002 
-8.102152e-003 
2.202997e-003 
1.543996e-002 
2.494501e-002 
2.845499e-002 
2.843521e-002 
2.742052e-002 
3.111544e-002 
2.992056e-002 
1.593824e-002 
1.881914e-002 
8.231378e-002 
2.241863e-001 
4.450785e-001 
6.450041e-001 
7.002571e-001 
6.346082e-001 
5.434021e-001 
4.780462e-001 
4.890932e-001 
5.805357e-001 
7.038085e-001 
7.713106e-001 
6.488279e-001 
3.982924e-001 
2.484227e-001 
2.378087e-001 
2.661642e-001 
2.862131e-001 
2.487541e-001 
1.182743e-001 
-1.019101e-001 
-3.466600e-001 
-4.769186e-001 
-4.557224e-001 
-3.873103e-001 
-3.341055e-001 
-2.981417e-001 
-2.785498e-001 
-2.662200e-001 
-2.523213e-001 
-2.391994e-001 
-2.267162e-001 
-2.126668e-001 
-1.982181e-001 
-1.849963e-001 
-1.770209e-001 
-1.706419e-001 
-1.603386e-001 
-1.479884e-001 
-1.364748e-001 
-1.230020e-001 
-1.091086e-001 
-9.869039e-002 
-9.265220e-002 
-8.634605e-002 
-7.811651e-002 
-6.867596e-002 
-6.014175e-002 
-5.432833e-002 
-4.795564e-002 
-4.316713e-002 
-4.121304e-002 
-3.793356e-002 
-3.209681e-002 
-2.660924e-002 
-2.009295e-002 
-1.541633e-002 
-1.232419e-002 
-8.246705e-003 
-6.248165e-003 
-4.638171e-003 
-2.345311e-004 
5.381504e-003 
1.112896e-002 
1.795661e-002 
2.517795e-002 
3.216767e-002 
3.728843e-002 
4.160682e-002 
4.557614e-002 
4.957031e-002 
5.267378e-002 
5.372662e-002 
5.635824e-002 
5.772253e-002 
5.415970e-002 
5.187165e-002 
5.418605e-002 
5.739921e-002 
6.304668e-002 
7.059678e-002 
8.260270e-002 
9.613413e-002 
1.018391e-001 
1.065761e-001 
1.151852e-001 
1.195631e-001 
1.191797e-001 
1.168760e-001 
1.152653e-001 
1.144037e-001 
1.058711e-001 
8.983991e-002 
8.386303e-002 
1.198123e-001 
2.225834e-001 
3.950210e-001 
5.608538e-001 
6.009356e-001 
5.331029e-001 
4.517619e-001 
3.913799e-001 
3.842527e-001 
4.467550e-001 
5.437397e-001 
6.044790e-001 
5.052655e-001 
2.810951e-001 
1.474155e-001 
1.376023e-001 
1.557447e-001 
1.659846e-001 
1.339271e-001 
3.032329e-002 
-1.476029e-001 
-3.573777e-001 
-4.731004e-001 
-4.542511e-001 
-3.994720e-001 
-3.625911e-001 
-3.410410e-001 
-3.274154e-001 
-3.155507e-001 
-3.045795e-001 
-2.932813e-001 
-2.799356e-001 
-2.676201e-001 
-2.577106e-001 
-2.458130e-001 
-2.338472e-001 
-2.211489e-001 
-2.073431e-001 
-1.940433e-001 
-1.794016e-001 
-1.663989e-001 
-1.574715e-001 
-1.482676e-001 
-1.383167e-001 
-1.302053e-001 
-1.216366e-001 
-1.149742e-001 
-1.085141e-001 
-1.040375e-001 
-1.047733e-001 
-1.056703e-001 
-1.030382e-001 
-1.002246e-001 
-9.920987e-002 
-9.931691e-002 
-9.960955e-002 
-9.856058e-002 
-1.003441e-001 
-1.020625e-001 
-9.908328e-002 
-9.411784e-002 
-9.140196e-002 
-8.963852e-002 
-8.697197e-002 
-8.112783e-002 
-7.370314e-002 
-6.868256e-002 
-6.208677e-002 
-5.524078e-002 
-5.337305e-002 
-5.295646e-002 
-5.289846e-002 
-5.179577e-002 
-4.923285e-002 
-4.986968e-002 
-5.098681e-002 
-5.238774e-002 
-5.848760e-002 
-6.441561e-002 
-6.751787e-002 
-6.659843e-002 
-5.913586e-002 
-5.245914e-002 
-4.340742e-002 
-3.157621e-002 
-1.890621e-002 
-4.137468e-003 
9.108157e-003 
2.248506e-002 
3.691458e-002 
4.217430e-002 
4.211784e-002 
4.160371e-002 
3.904706e-002 
3.928724e-002 
3.360083e-002 
1.902385e-002 
2.762359e-002 
9.766073e-002 
2.522800e-001 
4.765237e-001 
6.450851e-001 
6.536922e-001 
5.658338e-001 
4.744478e-001 
4.207259e-001 
4.465881e-001 
5.469088e-001 
6.684992e-001 
7.000498e-001 
5.263995e-001 
2.757369e-001 
1.642312e-001 
1.740499e-001 
2.046600e-001 
2.124346e-001 
1.518067e-001 
-2.160803e-003 
-2.388815e-001 
-4.688616e-001 
-5.571989e-001 
-5.135335e-001 
-4.460066e-001 
-4.009867e-001 
-3.763072e-001 
-3.619838e-001 
-3.499104e-001 
-3.371010e-001 
-3.230812e-001 
-3.103381e-001 
-2.980585e-001 
-2.819718e-001 
-2.667458e-001 
-2.542778e-001 
-2.400717e-001 
-2.251795e-001 
-2.101760e-001 
-1.946329e-001 
-1.808968e-001 
-1.672079e-001 
-1.540375e-001 
-1.457526e-001 
-1.374111e-001 
-1.286077e-001 
-1.220206e-001 
-1.157814e-001 
-1.118268e-001 
-1.081287e-001 
-1.036636e-001 
-1.020150e-001 
-1.001719e-001 
-9.751789e-002 
-9.723598e-002 
-9.566611e-002 
-9.452125e-002 
-9.380535e-002 
-9.053463e-002 
-8.883996e-002 
-8.614030e-002 
-8.121224e-002 
-7.670573e-002 
-6.951751e-002 
-6.116993e-002 
-5.430079e-002 
-4.657282e-002 
-4.171622e-002 
-3.830225e-002 
-3.398725e-002 
-3.160045e-002 
-2.844475e-002 
-2.518182e-002 
-2.357003e-002 
-2.159173e-002 
-2.223559e-002 
-2.520192e-002 
-2.665317e-002 
-2.955621e-002 
-3.178688e-002 
-3.284760e-002 
-3.417284e-002 
-3.509664e-002 
-3.674240e-002 
-3.797704e-002 
-3.284511e-002 
-2.550263e-002 
-1.815347e-002 
-7.156972e-003 
9.773676e-003 
2.769109e-002 
3.951932e-002 
4.948372e-002 
6.201356e-002 
7.014788e-002 
6.989609e-002 
6.792756e-002 
6.951331e-002 
7.303746e-002 
6.698449e-002 
5.248977e-002 
4.789006e-002 
8.500283e-002 
1.909005e-001 
3.795909e-001 
5.801087e-001 
6.453056e-001 
5.742985e-001 
4.785188e-001 
4.114565e-001 
4.012182e-001 
4.622371e-001 
5.674606e-001 
6.515282e-001 
5.639977e-001 
3.097308e-001 
1.378867e-001 
1.195068e-001 
1.460440e-001 
1.585265e-001 
1.239792e-001 
1.610086e-002 
-1.751287e-001 
-4.180578e-001 
-5.673247e-001 
-5.573520e-001 
-4.929043e-001 
-4.459670e-001 
-4.220010e-001 
-4.081465e-001 
-3.955833e-001 
-3.871630e-001 
-3.789829e-001 
-3.679251e-001 
-3.585946e-001 
-3.480600e-001 
-3.373002e-001 
-3.278037e-001 
-3.176063e-001 
-3.070460e-001 
-2.963041e-001 
-2.842003e-001 
-2.744379e-001 
-2.648737e-001 
-2.567156e-001 
-2.493412e-001 
-2.416825e-001 
-2.351000e-001 
-2.286815e-001 
-2.243159e-001 
-2.234876e-001 
-2.216121e-001 
-2.198172e-001 
-2.175939e-001 
-2.125484e-001 
-2.099256e-001 
-2.091756e-001 
-2.087997e-001 
-2.105959e-001 
-2.116719e-001 
-2.108432e-001 
-2.080415e-001 
-2.018957e-001 
-1.981502e-001 
-1.951337e-001 
-1.909068e-001 
-1.848458e-001 
-1.787212e-001 
-1.726832e-001 
-1.657467e-001 
-1.578165e-001 
-1.544042e-001 
-1.521561e-001 
-1.489370e-001 
-1.471621e-001 
-1.439214e-001 
-1.422898e-001 
-1.409200e-001 
-1.400405e-001 
-1.418545e-001 
-1.442404e-001 
-1.426234e-001 
-1.387235e-001 
-1.330360e-001 
-1.247793e-001 
-1.132357e-001 
-9.538457e-002 
-7.776341e-002 
-6.336481e-002 
-4.974584e-002 
-3.565622e-002 
-2.842058e-002 
-2.684147e-002 
-2.368512e-002 
-1.994106e-002 
-1.680973e-002 
-2.018374e-002 
-3.212401e-002 
-3.274713e-002 
2.022917e-002 
1.500642e-001 
3.686604e-001 
5.910839e-001 
6.695376e-001 
6.112112e-001 
5.217795e-001 
4.545508e-001 
4.547771e-001 
5.362429e-001 
6.602193e-001 
7.518796e-001 
6.602474e-001 
4.086159e-001 
2.378607e-001 
2.178205e-001 
2.465588e-001 
2.664564e-001 
2.365833e-001 
1.213637e-001 
-8.958104e-002 
-3.445448e-001 
-4.972496e-001 
-4.899115e-001 
-4.211264e-001 
-3.665217e-001 
-3.302181e-001 
-3.052778e-001 
-2.900513e-001 
-2.758366e-001 
-2.575098e-001 
-2.403177e-001 
-2.265153e-001 
-2.125325e-001 
-1.983358e-001 
-1.853573e-001 
-1.749646e-001 
-1.631840e-001 
-1.475698e-001 
-1.331234e-001 
-1.213459e-001 
-1.102926e-001 
-9.824188e-002 
-8.822349e-002 
-8.104851e-002 
-7.299339e-002 
-6.344877e-002 
-5.717123e-002 
-5.363181e-002 
-5.111686e-002 
-4.685559e-002 
-4.182261e-002 
-3.850158e-002 
-3.420892e-002 
-2.832466e-002 
-2.456488e-002 
-2.249433e-002 
-1.950654e-002 
-1.493290e-002 
-9.259034e-003 
-5.136629e-003 
-3.201231e-004 
4.612151e-003 
9.966147e-003 
1.665896e-002 
2.458983e-002 
3.310030e-002 
4.137829e-002 
4.638596e-002 
5.016929e-002 
5.322049e-002 
5.359798e-002 
5.496879e-002 
5.642731e-002 
5.737411e-002 
5.730479e-002 
5.605557e-002 
5.806707e-002 
6.459189e-002 
7.088469e-002 
7.940907e-002 
9.451896e-002 
1.126731e-001 
1.255487e-001 
1.337992e-001 
1.432900e-001 
1.495813e-001 
1.494841e-001 
1.469169e-001 
1.466394e-001 
1.501294e-001 
1.474215e-001 
1.310540e-001 
1.258129e-001 
1.666409e-001 
2.810380e-001 
4.826608e-001 
6.898010e-001 
7.537972e-001 
6.835111e-001 
5.877030e-001 
5.213059e-001 
5.176762e-001 
5.869238e-001 
7.047325e-001 
7.944148e-001 
7.021111e-001 
4.448891e-001 
2.772854e-001 
2.667035e-001 
3.007490e-001 
3.162363e-001 
2.836893e-001 
1.733596e-001 
-2.477894e-002 
-2.702823e-001 
-4.181201e-001 
-4.017000e-001 
-3.310185e-001 
-2.830050e-001 
-2.579269e-001 
-2.414501e-001 
-2.260353e-001 
-2.109808e-001 
-2.000383e-001 
-1.864448e-001 
-1.726956e-001 
-1.600643e-001 
-1.455653e-001 
-1.337418e-001 
-1.200978e-001 
-1.034717e-001 
-8.902394e-002 
-7.496486e-002 
-6.141258e-002 
-5.058183e-002 
-3.746867e-002 
-2.776142e-002 
-2.075768e-002 
-9.938079e-003 
-2.022454e-003 
2.116536e-003 
2.938472e-003 
2.512209e-003 
4.195109e-003 
5.061116e-003 
4.500249e-003 
7.440641e-003 
9.013513e-003 
7.597971e-003 
5.142425e-003 
1.796414e-003 
2.112619e-003 
3.820659e-003 
5.991980e-003 
1.145509e-002 
1.607492e-002 
2.013360e-002 
2.464659e-002 
2.818790e-002 
3.257474e-002 
4.083451e-002 
5.044400e-002 
5.744246e-002 
6.111385e-002 
6.334633e-002 
6.486312e-002 
6.402170e-002 
6.337321e-002 
6.523978e-002 
7.039009e-002 
7.012862e-002 
6.355423e-002 
6.067367e-002 
6.453738e-002 
6.928013e-002 
7.355528e-002 
8.387478e-002 
1.026925e-001 
1.232499e-001 
1.342995e-001 
1.428515e-001 
1.565264e-001 
1.652957e-001 
1.643486e-001 
1.630471e-001 
1.686073e-001 
1.744671e-001 
1.676604e-001 
1.492708e-001 
1.458531e-001 
1.954799e-001 
3.190953e-001 
5.252899e-001 
7.396339e-001 
8.154023e-001 
7.460966e-001 
6.444419e-001 
5.775562e-001 
5.781556e-001 
6.534444e-001 
7.660708e-001 
8.475707e-001 
7.541814e-001 
4.985500e-001 
3.209120e-001 
3.026624e-001 
3.364235e-001 
3.511773e-001 
3.106774e-001 
1.883161e-001 
-1.931098e-002 
-2.714672e-001 
-4.245219e-001 
-4.169555e-001 
-3.494584e-001 
-3.012810e-001 
-2.761953e-001 
-2.590173e-001 
-2.448276e-001 
-2.323575e-001 
-2.179394e-001 
-2.032336e-001 
-1.932270e-001 
-1.825480e-001 
-1.692496e-001 
-1.536382e-001 
-1.369904e-001 
-1.219849e-001 
-1.058235e-001 
-9.066426e-002 
-8.091268e-002 
-7.125246e-002 
-5.780133e-002 
-4.551282e-002 
-3.714321e-002 
-2.876927e-002 
-1.987181e-002 
-1.447140e-002 
-1.396802e-002 
-1.233160e-002 
-7.107845e-003 
-1.902630e-003 
-1.517855e-003 
-2.774704e-003 
-3.927512e-004 
-9.168722e-004 
-4.272886e-003 
-3.517956e-003 
-2.805157e-004 
3.869216e-003 
8.003785e-003 
1.041524e-002 
1.454201e-002 
2.159808e-002 
2.847862e-002 
3.530441e-002 
4.148120e-002 
4.766751e-002 
5.573670e-002 
5.937114e-002 
6.153214e-002 
6.592104e-002 
7.061168e-002 
7.156216e-002 
6.750440e-002 
6.735282e-002 
7.022154e-002 
6.796320e-002 
6.278957e-002 
6.104569e-002 
6.014795e-002 
5.835584e-002 
5.581229e-002 
6.114430e-002 
7.368685e-002 
8.039942e-002 
8.679772e-002 
9.858847e-002 
1.140871e-001 
1.279463e-001 
1.396434e-001 
1.540392e-001 
1.671320e-001 
1.679041e-001 
1.640597e-001 
1.635229e-001 
1.621257e-001 
1.588766e-001 
1.461120e-001 
1.400314e-001 
1.783352e-001 
2.823722e-001 
4.641744e-001 
6.500383e-001 
6.992670e-001 
6.290054e-001 
5.438881e-001 
4.815220e-001 
4.737538e-001 
5.344300e-001 
6.369640e-001 
7.105170e-001 
6.099023e-001 
3.658910e-001 
2.149443e-001 
2.058306e-001 
2.300906e-001 
2.386196e-001 
2.038228e-001 
9.739744e-002 
-9.270172e-002 
-3.221830e-001 
-4.515182e-001 
-4.335764e-001 
-3.704112e-001 
-3.303142e-001 
-3.106548e-001 
-2.975886e-001 
-2.851313e-001 
-2.753460e-001 
-2.647665e-001 
-2.498576e-001 
-2.353813e-001 
-2.258326e-001 
-2.177909e-001 
-2.088832e-001 
-1.959238e-001 
-1.818433e-001 
-1.704989e-001 
-1.546690e-001 
-1.405969e-001 
-1.343707e-001 
-1.293844e-001 
-1.198389e-001 
-1.103800e-001 
-1.010572e-001 
-9.276552e-002 
-8.355566e-002 
-7.827215e-002 
-7.999989e-002 
-7.932926e-002 
-7.528025e-002 
-7.251472e-002 
-7.097569e-002 
-6.970370e-002 
-6.659907e-002 
-6.646149e-002 
-7.081686e-002 
-7.109360e-002 
-6.706711e-002 
-6.428579e-002 
-6.094232e-002 
-5.549327e-002 
-5.305869e-002 
-4.809355e-002 
-4.482016e-002 
-3.985202e-002 
-3.505486e-002 
-3.029764e-002 
-2.704171e-002 
-2.428605e-002 
-2.284193e-002 
-2.494408e-002 
-2.429327e-002 
-2.496911e-002 
-2.847609e-002 
-3.561840e-002 
-3.854464e-002 
-4.265347e-002 
-4.517576e-002 
-4.988724e-002 
-5.763381e-002 
-6.247223e-002 
-6.632575e-002 
-6.939682e-002 
-6.415257e-002 
-5.344099e-002 
-4.471653e-002 
-3.405554e-002 
-2.045763e-002 
-2.549157e-003 
1.409840e-002 
2.939629e-002 
4.545290e-002 
5.662454e-002 
5.808535e-002 
5.618146e-002 
5.638405e-002 
5.436377e-002 
4.737076e-002 
3.529211e-002 
3.297869e-002 
7.938746e-002 
2.071923e-001 
4.234046e-001 
6.299476e-001 
6.712703e-001 
5.778481e-001 
4.851024e-001 
4.265258e-001 
4.252926e-001 
5.068634e-001 
6.349679e-001 
7.155100e-001 
5.883882e-001 
3.083554e-001 
1.542349e-001 
1.661741e-001 
2.030571e-001 
2.149771e-001 
1.771622e-001 
5.291888e-002 
-1.672210e-001 
-4.244003e-001 
-5.574495e-001 
-5.213312e-001 
-4.434078e-001 
-3.993908e-001 
-3.793016e-001 
-3.661497e-001 
-3.546085e-001 
-3.425307e-001 
-3.305418e-001 
-3.145375e-001 
-2.986126e-001 
-2.852038e-001 
-2.734121e-001 
-2.641666e-001 
-2.548113e-001 
-2.410784e-001 
-2.280385e-001 
-2.166383e-001 
-2.007917e-001 
-1.847887e-001 
-1.720384e-001 
-1.636985e-001 
-1.574508e-001 
-1.488767e-001 
-1.382237e-001 
-1.320393e-001 
-1.256190e-001 
-1.172987e-001 
-1.126084e-001 
-1.119729e-001 
-1.119977e-001 
-1.082880e-001 
-1.040725e-001 
-9.988587e-002 
-9.430325e-002 
-8.931592e-002 
-9.047573e-002 
-9.118026e-002 
-9.042550e-002 
-9.118704e-002 
-8.625839e-002 
-8.122660e-002 
-7.369428e-002 
-6.423534e-002 
-6.134957e-002 
-6.071774e-002 
-5.564287e-002 
-5.574381e-002 
-5.637851e-002 
-5.069253e-002 
-5.150570e-002 
-5.218164e-002 
-5.289689e-002 
-5.740766e-002 
-6.093509e-002 
-6.383281e-002 
-7.003454e-002 
-7.344836e-002 
-7.722246e-002 
-8.505421e-002 
-8.720949e-002 
-9.211249e-002 
-9.669402e-002 
-9.667369e-002 
-9.169935e-002 
-8.381722e-002 
-7.494806e-002 
-6.209032e-002 
-4.420571e-002 
-2.695036e-002 
-1.377042e-002 
1.008253e-003 
1.125598e-002 
1.717426e-002 
1.588390e-002 
1.306902e-002 
1.371909e-002 
1.165807e-002 
3.753001e-003 
-8.650602e-003 
1.828362e-003 
8.655947e-002 
2.688478e-001 
5.071686e-001 
6.499405e-001 
6.135143e-001 
5.128030e-001 
4.324034e-001 
3.889116e-001 
4.299582e-001 
5.505572e-001 
6.794997e-001 
6.752191e-001 
4.410385e-001 
1.954842e-001 
1.370456e-001 
1.698317e-001 
1.990950e-001 
1.984746e-001 
1.211079e-001 
-5.593013e-002 
-3.138982e-001 
-5.303604e-001 
-5.703829e-001 
-4.995635e-001 
-4.348796e-001 
-3.994178e-001 
-3.804411e-001 
-3.649910e-001 
-3.517040e-001 
-3.375300e-001 
-3.254578e-001 
-3.144322e-001 
-3.020639e-001 
-2.911256e-001 
-2.821060e-001 
-2.692969e-001 
-2.582510e-001 
-2.476862e-001 
-2.365614e-001 
-2.276737e-001 
-2.159617e-001 
-2.063154e-001 
-1.984575e-001 
-1.892496e-001 
-1.810705e-001 
-1.772438e-001 
-1.712914e-001 
-1.659519e-001 
-1.617384e-001 
-1.565087e-001 
-1.512053e-001 
-1.471645e-001 
-1.427563e-001 
-1.382227e-001 
-1.365591e-001 
-1.328644e-001 
-1.290996e-001 
-1.277155e-001 
-1.229290e-001 
-1.193842e-001 
-1.175170e-001 
-1.118452e-001 
-1.091663e-001 
-1.074588e-001 
-1.005785e-001 
-9.764649e-002 
-9.321063e-002 
-8.619884e-002 
-8.331528e-002 
-8.158040e-002 
-8.278197e-002 
-8.610542e-002 
-8.672826e-002 
-8.956065e-002 
-9.239664e-002 
-9.148797e-002 
-9.609118e-002 
-1.030810e-001 
-1.108886e-001 
-1.183281e-001 
-1.230795e-001 
-1.266557e-001 
-1.306072e-001 
-1.326647e-001 
-1.323122e-001 
-1.292103e-001 
-1.227598e-001 
-1.128399e-001 
-9.668303e-002 
-7.518226e-002 
-5.577093e-002 
-4.334385e-002 
-3.135207e-002 
-2.058793e-002 
-1.765546e-002 
-1.619162e-002 
-1.552014e-002 
-1.191755e-002 
-5.987740e-003 
-1.334922e-002 
-2.204597e-002 
1.436631e-002 
1.244759e-001 
3.248444e-001 
5.590534e-001 
6.690456e-001 
6.235945e-001 
5.293716e-001 
4.464780e-001 
4.230165e-001 
4.866537e-001 
6.030923e-001 
7.137554e-001 
6.674199e-001 
4.199582e-001 
2.090824e-001 
1.661385e-001 
1.876105e-001 
2.083890e-001 
1.889855e-001 
8.814514e-002 
-1.049912e-001 
-3.635818e-001 
-5.527756e-001 
-5.688073e-001 
-5.004674e-001 
-4.470808e-001 
-4.084933e-001 
-3.879470e-001 
-3.759126e-001 
-3.581837e-001 
-3.411707e-001 
-3.283592e-001 
-3.155543e-001 
-3.070319e-001 
-2.976483e-001 
-2.863206e-001 
-2.790659e-001 
-2.634647e-001 
-2.470875e-001 
-2.367779e-001 
-2.265996e-001 
-2.201817e-001 
-2.152384e-001 
-2.061007e-001 
-1.938165e-001 
-1.805277e-001 
-1.703552e-001 
-1.661818e-001 
-1.612786e-001 
-1.592557e-001 
-1.575701e-001 
-1.526691e-001 
-1.440108e-001 
-1.328423e-001 
-1.266880e-001 
-1.250479e-001 
-1.216636e-001 
-1.162046e-001 
-1.123488e-001 
-1.119322e-001 
-1.096761e-001 
-9.444904e-002 
-8.253211e-002 
-7.962638e-002 
-7.469468e-002 
-6.503013e-002 
-5.635157e-002 
-5.148597e-002 
-4.922245e-002 
-3.708068e-002 
-2.444081e-002 
-2.557726e-002 
-2.615621e-002 
-2.505276e-002 
-2.549747e-002 
-2.599732e-002 
-2.371551e-002 
-1.432391e-002 
-2.535785e-003 
2.190410e-003 
8.757613e-003 
1.991293e-002 
3.368907e-002 
4.906437e-002 
6.065186e-002 
7.691678e-002 
8.701629e-002 
8.342420e-002 
7.879431e-002 
7.624273e-002 
7.475110e-002 
7.272427e-002 
5.869761e-002 
4.545410e-002 
7.066982e-002 
1.632986e-001 
3.515089e-001 
5.885600e-001 
7.029078e-001 
6.471503e-001 
5.474028e-001 
4.692152e-001 
4.453219e-001 
5.044376e-001 
6.262319e-001 
7.495064e-001 
7.137947e-001 
4.560302e-001 
2.388674e-001 
2.041319e-001 
2.378843e-001 
2.714946e-001 
2.589642e-001 
1.674095e-001 
-2.159016e-002 
-2.869964e-001 
-4.782875e-001 
-4.887553e-001 
-4.151226e-001 
-3.469088e-001 
-3.135823e-001 
-3.035207e-001 
-2.864277e-001 
-2.765118e-001 
-2.616889e-001 
-2.405577e-001 
-2.235501e-001 
-2.060231e-001 
-1.962581e-001 
-1.945753e-001 
-1.825630e-001 
-1.704950e-001 
-1.604966e-001 
-1.424087e-001 
-1.273220e-001 
-1.160197e-001 
-1.115485e-001 
-1.107059e-001 
-1.021719e-001 
-9.182618e-002 
-8.370460e-002 
-7.146902e-002 
-6.368574e-002 
-6.247943e-002 
-6.074060e-002 
-5.848767e-002 
-5.401538e-002 
-4.766411e-002 
-3.888983e-002 
-2.875373e-002 
-1.902882e-002 
-1.607522e-002 
-1.401389e-002 
-6.721381e-003 
-1.460342e-003 
3.123717e-003 
1.271448e-002 
2.334827e-002 
3.036679e-002 
3.666932e-002 
3.841485e-002 
4.306158e-002 
4.785415e-002 
5.149129e-002 
5.434944e-002 
5.295141e-002 
4.766970e-002 
4.460322e-002 
3.821621e-002 
2.720329e-002 
2.312921e-002 
2.512499e-002 
2.783238e-002 
2.455766e-002 
2.651936e-002 
3.969659e-002 
5.616035e-002 
6.114099e-002 
6.741624e-002 
8.315966e-002 
8.871084e-002 
8.530898e-002 
8.252852e-002 
8.130650e-002 
8.279713e-002 
7.775651e-002 
6.056064e-002 
5.810821e-002 
9.801308e-002 
2.040980e-001 
4.010082e-001 
6.061627e-001 
6.887727e-001 
6.397169e-001 
5.493553e-001 
4.818562e-001 
4.719061e-001 
5.383004e-001 
6.522385e-001 
7.380281e-001 
6.614934e-001 
4.310570e-001 
2.498711e-001 
2.198714e-001 
2.490160e-001 
2.645921e-001 
2.372154e-001 
1.274283e-001 
-6.940226e-002 
-3.075856e-001 
-4.676004e-001 
-4.786428e-001 
-4.156851e-001 
-3.671455e-001 
-3.419011e-001 
-3.263461e-001 
-3.134226e-001 
-2.980179e-001 
-2.851495e-001 
-2.756701e-001 
-2.659672e-001 
-2.542333e-001 
-2.423383e-001 
-2.331293e-001 
-2.225027e-001 
-2.094651e-001 
-1.979732e-001 
-1.886197e-001 
-1.774881e-001 
-1.639076e-001 
-1.505708e-001 
-1.397774e-001 
-1.293707e-001 
-1.186700e-001 
-1.088082e-001 
-1.006128e-001 
-9.387014e-002 
-8.628778e-002 
-8.051728e-002 
-7.791669e-002 
-7.481738e-002 
-7.274444e-002 
-6.771459e-002 
-6.000454e-002 
-5.768826e-002 
-5.633159e-002 
-5.166559e-002 
-4.838692e-002 
-4.760403e-002 
-4.627225e-002 
-4.107261e-002 
-2.906455e-002 
-2.344821e-002 
-2.292009e-002 
-1.490345e-002 
-6.745339e-003 
-5.827024e-003 
-6.674996e-003 
-2.715736e-003 
1.505125e-003 
1.528921e-003 
-3.153038e-003 
-4.591936e-003 
-3.001395e-003 
-3.927535e-003 
-5.293334e-003 
-1.782778e-003 
9.031024e-003 
1.822467e-002 
2.511679e-002 
3.260487e-002 
3.841581e-002 
3.940598e-002 
3.634740e-002 
2.945235e-002 
2.305501e-002 
2.510083e-002 
2.232326e-002 
1.172526e-002 
1.880808e-002 
8.229918e-002 
2.266639e-001 
4.387894e-001 
5.979733e-001 
6.066586e-001 
5.369323e-001 
4.570356e-001 
4.017503e-001 
4.196309e-001 
5.074495e-001 
6.167903e-001 
6.476106e-001 
4.787970e-001 
2.434121e-001 
1.447959e-001 
1.435084e-001 
1.632665e-001 
1.667608e-001 
1.029579e-001 
-4.462422e-002 
-2.627020e-001 
-4.777044e-001 
-5.581277e-001 
-5.177244e-001 
-4.597112e-001 
-4.200081e-001 
-3.984408e-001 
-3.841020e-001 
-3.635911e-001 
-3.383333e-001 
-3.219026e-001 
-3.126185e-001 
-3.018043e-001 
-2.911790e-001 
-2.792919e-001 
-2.641556e-001 
-2.519992e-001 
-2.354406e-001 
-2.178884e-001 
-2.097952e-001 
-2.029907e-001 
-1.938132e-001 
-1.867943e-001 
-1.776270e-001 
-1.708768e-001 
-1.598828e-001 
-1.391749e-001 
-1.289506e-001 
-1.273358e-001 
-1.236246e-001 
-1.177844e-001 
-1.146284e-001 
-1.089849e-001 
-9.599892e-002 
-7.761887e-002 
-7.110021e-002 
-7.550909e-002 
-7.978681e-002 
-7.892274e-002 
-7.225531e-002 
-6.514790e-002 
-5.085627e-002 
-3.706134e-002 
-3.391663e-002 
-3.663264e-002 
-3.733047e-002 
-3.684018e-002 
-2.754855e-002 
-1.670068e-002 
-9.760217e-003 
-5.062638e-003 
-8.166601e-003 
-1.276886e-002 
-1.056048e-002 
-4.653910e-003 
2.073998e-003 
1.405764e-002 
2.489608e-002 
3.641071e-002 
4.811344e-002 
5.383327e-002 
6.163273e-002 
6.969135e-002 
6.996624e-002 
6.451416e-002 
6.329803e-002 
6.282572e-002 
6.430232e-002 
5.248405e-002 
3.759559e-002 
7.715764e-002 
1.930727e-001 
3.856474e-001 
5.880544e-001 
6.697485e-001 
6.135160e-001 
5.216627e-001 
4.429983e-001 
4.263685e-001 
4.969078e-001 
6.084660e-001 
6.928780e-001 
6.162465e-001 
3.821807e-001 
2.080844e-001 
1.841752e-001 
2.121847e-001 
2.360012e-001 
2.148717e-001 
1.135788e-001 
-7.369179e-002 
-3.083934e-001 
-4.550769e-001 
-4.476210e-001 
-3.761221e-001 
-3.230521e-001 
-2.888772e-001 
-2.599007e-001 
-2.365617e-001 
-2.192497e-001 
-2.032601e-001 
-1.845734e-001 
-1.677751e-001 
-1.562009e-001 
-1.477983e-001 
-1.313056e-001 
-1.096383e-001 
-9.831034e-002 
-8.889420e-002 
-7.434768e-002 
-6.002492e-002 
-5.230495e-002 
-4.669719e-002 
-4.092694e-002 
-2.878784e-002 
-2.188700e-002 
-2.599143e-002 
-2.241997e-002 
-1.730049e-002 
-2.060511e-002 
-2.469530e-002 
-2.447377e-002 
-2.112726e-002 
-1.468297e-002 
-1.775799e-002 
-1.934202e-002 
-1.544391e-002 
-1.880849e-002 
-2.207155e-002 
-1.954214e-002 
-1.509690e-002 
-1.194391e-002 
-1.284369e-002 
-1.291054e-002 
-6.814768e-003 
-5.565133e-003 
-4.732520e-003 
3.662552e-004 
3.776893e-003 
1.975365e-003 
-2.824138e-003 
-4.713957e-003 
-1.771485e-003 
9.861953e-005 
8.524406e-004 
9.430622e-003 
2.089928e-002 
3.129473e-002 
3.888609e-002 
4.500228e-002 
5.111243e-002 
5.206216e-002 
4.647586e-002 
4.131899e-002 
3.942113e-002 
3.775749e-002 
3.390905e-002 
1.808275e-002 
9.156822e-003 
4.792700e-002 
1.538441e-001 
3.381841e-001 
5.330830e-001 
6.080647e-001 
5.589078e-001 
4.710247e-001 
3.932645e-001 
3.746089e-001 
4.306899e-001 
5.341483e-001 
6.184939e-001 
5.432318e-001 
3.210267e-001 
1.555203e-001 
1.180048e-001 
1.310909e-001 
1.445707e-001 
1.216397e-001 
3.004730e-002 
-1.536118e-001 
-3.842153e-001 
-5.289329e-001 
-5.336463e-001 
-4.736476e-001 
-4.189846e-001 
-3.797640e-001 
-3.478548e-001 
-3.278797e-001 
-3.190407e-001 
-3.064388e-001 
-2.948573e-001 
-2.820262e-001 
-2.647364e-001 
-2.485792e-001 
-2.337508e-001 
-2.206736e-001 
-2.093593e-001 
-1.971758e-001 
-1.846675e-001 
-1.734964e-001 
-1.616449e-001 
-1.523926e-001 
-1.458689e-001 
-1.434769e-001 
-1.395480e-001 
-1.342997e-001 
-1.319651e-001 
-1.307008e-001 
-1.334986e-001 
-1.358171e-001 
-1.358083e-001 
-1.359238e-001 
-1.371578e-001 
-1.363896e-001 
-1.388835e-001 
-1.400502e-001 
-1.422908e-001 
-1.420804e-001 
-1.339042e-001 
-1.278696e-001 
-1.225915e-001 
-1.175771e-001 
-1.121584e-001 
-1.030189e-001 
-9.082647e-002 
-8.190670e-002 
-7.071033e-002 
-6.288466e-002 
-5.847927e-002 
-4.928203e-002 
-4.029428e-002 
-2.978098e-002 
-1.597632e-002 
1.875234e-003 
2.099673e-002 
3.463010e-002 
4.218154e-002 
4.891746e-002 
5.145602e-002 
4.503116e-002 
3.685917e-002 
3.458999e-002 
3.718182e-002 
2.781197e-002 
8.956705e-003 
-1.729574e-003 
2.647718e-002 
1.260044e-001 
3.177276e-001 
5.476479e-001 
6.601673e-001 
6.071256e-001 
5.033123e-001 
4.257068e-001 
4.001888e-001 
4.553504e-001 
5.730213e-001 
6.890468e-001 
6.463257e-001 
4.027007e-001 
1.941488e-001 
1.545016e-001 
1.809384e-001 
2.070934e-001 
1.988038e-001 
1.138100e-001 
-7.114085e-002 
-3.281335e-001 
-5.095716e-001 
-5.222023e-001 
-4.499743e-001 
-3.827990e-001 
-3.370439e-001 
-3.097021e-001 
-2.918212e-001 
-2.830299e-001 
-2.679174e-001 
-2.448286e-001 
-2.265022e-001 
-2.075802e-001 
-1.877730e-001 
-1.689203e-001 
-1.508975e-001 
-1.360154e-001 
-1.209729e-001 
-1.013746e-001 
-8.612446e-002 
-7.734810e-002 
-6.889353e-002 
-5.770158e-002 
-4.919960e-002 
-4.788657e-002 
-5.055407e-002 
-4.965901e-002 
-4.760732e-002 
-5.213038e-002 
-5.695103e-002 
-5.559445e-002 
-5.624466e-002 
-6.548244e-002 
-7.592560e-002 
-8.040522e-002 
-8.226095e-002 
-8.554521e-002 
-8.719230e-002 
-8.147394e-002 
-7.359814e-002 
-7.238267e-002 
-7.019522e-002 
-6.128664e-002 
-5.505701e-002 
-5.224756e-002 
-4.160698e-002 
-3.110089e-002 
-2.414398e-002 
-2.100142e-002 
-2.148325e-002 
-2.085453e-002 
-1.794288e-002 
-1.449386e-002 
-2.794360e-003 
1.250919e-002 
1.906839e-002 
2.331549e-002 
2.790265e-002 
3.658329e-002 
4.748446e-002 
6.075986e-002 
7.221556e-002 
7.818286e-002 
7.748651e-002 
6.713529e-002 
5.740969e-002 
5.566229e-002 
5.238717e-002 
4.015217e-002 
3.874013e-002 
7.639371e-002 
1.911597e-001 
3.929936e-001 
5.846306e-001 
6.365713e-001 
5.647947e-001 
4.694780e-001 
4.056213e-001 
4.047830e-001 
4.716330e-001 
5.921582e-001 
6.748071e-001 
5.635572e-001 
3.119683e-001 
1.582334e-001 
1.530255e-001 
1.933257e-001 
2.178709e-001 
1.884363e-001 
8.008474e-002 
-1.217565e-001 
-3.583232e-001 
-4.860442e-001 
-4.590729e-001 
-3.781900e-001 
-3.184981e-001 
-2.878481e-001 
-2.713131e-001 
-2.560469e-001 
-2.363305e-001 
-2.135131e-001 
-1.929735e-001 
-1.691069e-001 
-1.451262e-001 
-1.244407e-001 
-1.060701e-001 
-8.571367e-002 
-6.354934e-002 
-3.929453e-002 
-1.991242e-002 
-4.235804e-003 
9.694402e-003 
1.989730e-002 
2.768240e-002 
3.298110e-002 
3.496193e-002 
3.733036e-002 
3.889393e-002 
3.499682e-002 
3.090523e-002 
2.268227e-002 
1.131819e-002 
4.687795e-004 
-1.039461e-002 
-2.186513e-002 
-2.812508e-002 
-3.262446e-002 
-3.984767e-002 
-4.692065e-002 
-5.298071e-002 
-5.705356e-002 
-5.829278e-002 
-5.663344e-002 
-5.309192e-002 
-4.548112e-002 
-3.989172e-002 
-3.945216e-002 
-3.798907e-002 
-3.534546e-002 
-3.368803e-002 
-2.909595e-002 
-2.234189e-002 
-1.676913e-002 
-1.261467e-002 
-1.240945e-002 
-1.398211e-002 
-1.456387e-002 
-1.275011e-002 
-7.500521e-003 
8.637651e-004 
8.640095e-003 
1.759470e-002 
3.244438e-002 
4.890171e-002 
6.084683e-002 
7.118778e-002 
8.055683e-002 
8.276552e-002 
8.328386e-002 
8.070046e-002 
7.999481e-002 
8.084152e-002 
7.413088e-002 
5.920611e-002 
5.053621e-002 
8.113750e-002 
1.910721e-001 
3.933136e-001 
5.839273e-001 
6.289920e-001 
5.494878e-001 
4.537544e-001 
3.861632e-001 
3.737039e-001 
4.358176e-001 
5.563242e-001 
6.413851e-001 
5.304031e-001 
2.749750e-001 
1.209202e-001 
1.179475e-001 
1.527220e-001 
1.699066e-001 
1.415301e-001 
3.928701e-002 
-1.554939e-001 
-3.942614e-001 
-5.259814e-001 
-4.965905e-001 
-4.184469e-001 
-3.670636e-001 
-3.419429e-001 
-3.265622e-001 
-3.083205e-001 
-2.924145e-001 
-2.790087e-001 
-2.598061e-001 
-2.392231e-001 
-2.228153e-001 
-2.065568e-001 
-1.928572e-001 
-1.729744e-001 
-1.524614e-001 
-1.369120e-001 
-1.176523e-001 
-1.040760e-001 
-9.191461e-002 
-7.515289e-002 
-6.404935e-002 
-5.798785e-002 
-5.199477e-002 
-4.959654e-002 
-4.290308e-002 
-4.417514e-002 
-4.720075e-002 
-4.027278e-002 
-4.313595e-002 
-5.462401e-002 
-6.313264e-002 
-6.748570e-002 
-6.548763e-002 
-6.616737e-002 
-6.976072e-002 
-6.435526e-002 
-6.590331e-002 
-7.256172e-002 
-7.080799e-002 
-6.325814e-002 
-5.255422e-002 
-4.254362e-002 
-3.481100e-002 
-2.555665e-002 
-2.020782e-002 
-1.585201e-002 
-4.970559e-003 
4.951750e-003 
1.135253e-002 
1.657946e-002 
2.403601e-002 
3.281069e-002 
3.852305e-002 
4.412096e-002 
5.384579e-002 
6.594314e-002 
7.581931e-002 
8.448949e-002 
9.551223e-002 
1.072161e-001 
1.091263e-001 
1.045400e-001 
1.003320e-001 
9.670157e-002 
9.286155e-002 
8.544193e-002 
7.625522e-002 
6.632601e-002 
7.675817e-002 
1.419955e-001 
2.906545e-001 
4.925830e-001 
6.157434e-001 
5.938451e-001 
5.135091e-001 
4.398484e-001 
3.986370e-001 
4.264786e-001 
5.155086e-001 
6.223580e-001 
6.232291e-001 
4.334210e-001 
2.309564e-001 
1.688680e-001 
1.801953e-001 
2.018267e-001 
2.033831e-001 
1.423087e-001 
6.886078e-004 
-2.117966e-001 
-3.929346e-001 
-4.316643e-001 
-3.801175e-001 
-3.238738e-001 
-2.835708e-001 
-2.576934e-001 
-2.394707e-001 
-2.207442e-001 
-1.995560e-001 
-1.800928e-001 
-1.635958e-001 
-1.475850e-001 
-1.298052e-001 
-1.116337e-001 
-9.169239e-002 
-7.140819e-002 
-4.950272e-002 
-3.111955e-002 
-1.750719e-002 
-6.421055e-003 
2.628008e-003 
9.819257e-003 
1.618213e-002 
2.036177e-002 
2.331971e-002 
2.361877e-002 
1.809200e-002 
1.124623e-002 
2.052741e-003 
-8.544256e-003 
-1.791261e-002 
-2.730584e-002 
-3.637160e-002 
-4.383553e-002 
-5.364328e-002 
-6.172050e-002 
-6.891963e-002 
-7.516596e-002 
-7.787771e-002 
-7.797301e-002 
-7.586663e-002 
-7.105498e-002 
-6.710569e-002 
-6.305774e-002 
-5.880550e-002 
-5.676913e-002 
-5.302084e-002 
-4.981748e-002 
-4.559034e-002 
-4.157715e-002 
-3.974124e-002 
-3.716956e-002 
-3.096007e-002 
-2.426662e-002 
-1.629501e-002 
-6.510695e-003 
7.883354e-003 
2.626798e-002 
3.733434e-002 
4.501500e-002 
5.437576e-002 
5.735745e-002 
5.467635e-002 
5.012506e-002 
4.671593e-002 
4.734619e-002 
4.163465e-002 
2.405720e-002 
8.919757e-003 
2.599366e-002 
1.088644e-001 
2.825866e-001 
5.155167e-001 
6.541687e-001 
6.169014e-001 
5.125913e-001 
4.283144e-001 
3.943513e-001 
4.403140e-001 
5.468473e-001 
6.697386e-001 
6.705559e-001 
4.402432e-001 
1.966604e-001 
1.356762e-001 
1.645747e-001 
1.914593e-001 
1.842496e-001 
1.055096e-001 
-6.172768e-002 
-3.141717e-001 
-5.301362e-001 
-5.707499e-001 
-5.013902e-001 
-4.376585e-001 
-4.005278e-001 
-3.768241e-001 
-3.575717e-001 
-3.435889e-001 
-3.284136e-001 
-3.102293e-001 
-2.913025e-001 
-2.703224e-001 
-2.501225e-001 
-2.290833e-001 
-2.059372e-001 
-1.856346e-001 
-1.668985e-001 
-1.472264e-001 
-1.297649e-001 
-1.134682e-001 
-1.003493e-001 
-8.824949e-002 
-7.697962e-002 
-7.098395e-002 
-6.750543e-002 
-6.558127e-002 
-6.707551e-002 
-7.068368e-002 
-7.513385e-002 
-7.808077e-002 
-8.103730e-002 
-8.888977e-002 
-9.772243e-002 
-1.057909e-001 
-1.156795e-001 
-1.244550e-001 
-1.311796e-001 
-1.325318e-001 
-1.324791e-001 
-1.361543e-001 
-1.384352e-001 
-1.386212e-001 
-1.378240e-001 
-1.352060e-001 
-1.324483e-001 
-1.275656e-001 
-1.219045e-001 
-1.223624e-001 
-1.222526e-001 
-1.207935e-001 
-1.196440e-001 
-1.169309e-001 
-1.154005e-001 
-1.126507e-001 
-1.099465e-001 
-1.118684e-001 
-1.125597e-001 
-1.067683e-001 
-1.000731e-001 
-9.166015e-002 
-8.071268e-002 
-6.237734e-002 
-4.227992e-002 
-3.255461e-002 
-2.428630e-002 
-1.100347e-002 
-2.875932e-003 
-2.669233e-003 
-2.765812e-003 
-5.705369e-004 
2.893064e-003 
-4.910828e-003 
-2.112228e-002 
-2.486665e-002 
1.329469e-002 
1.209713e-001 
3.215164e-001 
5.434424e-001 
6.356302e-001 
5.778793e-001 
4.793809e-001 
4.081429e-001 
3.941023e-001 
4.565369e-001 
5.737219e-001 
6.776407e-001 
6.106120e-001 
3.625709e-001 
1.681867e-001 
1.364540e-001 
1.657284e-001 
1.856141e-001 
1.609641e-001 
5.912347e-002 
-1.354072e-001 
-3.905642e-001 
-5.625040e-001 
-5.691270e-001 
-5.007116e-001 
-4.463412e-001 
-4.144971e-001 
-3.946510e-001 
-3.775919e-001 
-3.654628e-001 
-3.532617e-001 
-3.353122e-001 
-3.189711e-001 
-3.032510e-001 
-2.853040e-001 
-2.667284e-001 
-2.474646e-001 
-2.299181e-001 
-2.135169e-001 
-1.919854e-001 
-1.729223e-001 
-1.599275e-001 
-1.472097e-001 
-1.350771e-001 
-1.257662e-001 
-1.188429e-001 
-1.137027e-001 
-1.089009e-001 
-1.060794e-001 
-1.086879e-001 
-1.112275e-001 
-1.127600e-001 
-1.156897e-001 
-1.209446e-001 
-1.262001e-001 
-1.329857e-001 
-1.398758e-001 
-1.461122e-001 
-1.512974e-001 
-1.545932e-001 
-1.573331e-001 
-1.600984e-001 
-1.614107e-001 
-1.614337e-001 
-1.609045e-001 
-1.574227e-001 
-1.548718e-001 
-1.525817e-001 
-1.503516e-001 
-1.499906e-001 
-1.499321e-001 
-1.491749e-001 
-1.487887e-001 
-1.469779e-001 
-1.462309e-001 
-1.465991e-001 
-1.466828e-001 
-1.487490e-001 
-1.519941e-001 
-1.551533e-001 
-1.550435e-001 
-1.499850e-001 
-1.433299e-001 
-1.359346e-001 
-1.256541e-001 
-1.105689e-001 
-9.458421e-002 
-8.501852e-002 
-7.583093e-002 
-6.284270e-002 
-5.728459e-002 
-5.777663e-002 
-5.854231e-002 
-5.897249e-002 
-5.827264e-002 
-6.690397e-002 
-8.293743e-002 
-8.814199e-002 
-5.493550e-002 
4.507145e-002 
2.368748e-001 
4.469008e-001 
5.212466e-001 
4.546288e-001 
3.593388e-001 
2.922364e-001 
2.793462e-001 
3.395239e-001 
4.521304e-001 
5.531729e-001 
4.800884e-001 
2.285359e-001 
5.149909e-002 
3.363741e-002 
6.281456e-002 
8.214567e-002 
6.130312e-002 
-3.622704e-002 
-2.232257e-001 
-4.676728e-001 
-6.230465e-001 
-6.143838e-001 
-5.448243e-001 
-4.931743e-001 
-4.602740e-001 
-4.411500e-001 
-4.284785e-001 
-4.153694e-001 
-4.003161e-001 
-3.836357e-001 
-3.683678e-001 
-3.518586e-001 
-3.343511e-001 
-3.186656e-001 
-3.040726e-001 
-2.886284e-001 
-2.712869e-001 
-2.517718e-001 
-2.350201e-001 
-2.182088e-001 
-2.022617e-001 
-1.918230e-001 
-1.831861e-001 
-1.750211e-001 
-1.671636e-001 
-1.588342e-001 
-1.535529e-001 
-1.497315e-001 
-1.462597e-001 
-1.478820e-001 
-1.500300e-001 
-1.513772e-001 
-1.534189e-001 
-1.558287e-001 
-1.591959e-001 
-1.623922e-001 
-1.643813e-001 
-1.687508e-001 
-1.716003e-001 
-1.706213e-001 
-1.694512e-001 
-1.669901e-001 
-1.637808e-001 
-1.590401e-001 
-1.543210e-001 
-1.521754e-001 
-1.509554e-001 
-1.482331e-001 
-1.467996e-001 
-1.457700e-001 
-1.447146e-001 
-1.423394e-001 
-1.411181e-001 
-1.428957e-001 
-1.442534e-001 
-1.403141e-001 
-1.353064e-001 
-1.314910e-001 
-1.246624e-001 
-1.116430e-001 
-9.282374e-002 
-8.050954e-002 
-7.295767e-002 
-5.916844e-002 
-4.760706e-002 
-4.949721e-002 
-5.022997e-002 
-4.783359e-002 
-4.370195e-002 
-4.417601e-002 
-5.624002e-002 
-6.840251e-002 
-4.700703e-002 
3.624008e-002 
2.181677e-001 
4.401368e-001 
5.220289e-001 
4.556823e-001 
3.675077e-001 
2.982167e-001 
2.666409e-001 
3.133060e-001 
4.318765e-001 
5.585821e-001 
5.044507e-001 
2.493477e-001 
7.218242e-002 
6.314680e-002 
9.315136e-002 
1.172146e-001 
1.163017e-001 
4.678177e-002 
-1.212600e-001 
-3.637367e-001 
-5.216278e-001 
-5.090508e-001 
-4.335236e-001 
-3.776106e-001 
-3.420112e-001 
-3.177340e-001 
-2.975513e-001 
-2.808830e-001 
-2.625063e-001 
-2.441824e-001 
-2.254187e-001 
-2.045745e-001 
-1.859866e-001 
-1.668560e-001 
-1.465292e-001 
-1.287014e-001 
-1.100223e-001 
-9.243376e-002 
-7.912690e-002 
-6.442543e-002 
-5.171158e-002 
-4.129712e-002 
-3.154170e-002 
-2.501532e-002 
-1.971568e-002 
-1.652333e-002 
-1.808071e-002 
-1.946752e-002 
-1.982524e-002 
-2.098178e-002 
-2.189383e-002 
-2.473428e-002 
-2.701690e-002 
-2.975792e-002 
-3.379606e-002 
-3.591357e-002 
-3.632632e-002 
-3.462020e-002 
-3.088490e-002 
-2.855482e-002 
-2.574411e-002 
-2.187045e-002 
-1.889307e-002 
-1.405038e-002 
-8.704615e-003 
-2.402039e-003 
3.885881e-003 
6.620168e-003 
7.361231e-003 
6.976994e-003 
4.514378e-003 
4.739287e-003 
9.635791e-003 
1.872686e-002 
2.809238e-002 
3.477536e-002 
4.409824e-002 
5.856803e-002 
6.920785e-002 
7.681493e-002 
8.909958e-002 
1.004266e-001 
1.025489e-001 
9.670385e-002 
9.005784e-002 
8.840535e-002 
8.587704e-002 
7.215858e-002 
5.920756e-002 
7.929656e-002 
1.615035e-001 
3.289828e-001 
5.566046e-001 
6.903693e-001 
6.513010e-001 
5.463378e-001 
4.629683e-001 
4.303954e-001 
4.737858e-001 
5.785468e-001 
7.003831e-001 
6.984145e-001 
4.690182e-001 
2.279048e-001 
1.697396e-001 
2.072521e-001 
2.383549e-001 
2.305295e-001 
1.522164e-001 
-1.528788e-002 
-2.647299e-001 
-4.741959e-001 
-5.099501e-001 
-4.349008e-001 
-3.672599e-001 
-3.342252e-001 
-3.176696e-001 
-3.042782e-001 
-2.913731e-001 
-2.754706e-001 
-2.574430e-001 
-2.405968e-001 
-2.229315e-001 
-2.079403e-001 
-1.953396e-001 
-1.813652e-001 
-1.653454e-001 
-1.473344e-001 
-1.286785e-001 
-1.117263e-001 
-9.742722e-002 
-8.641888e-002 
-7.865791e-002 
-7.272806e-002 
-6.630607e-002 
-5.835858e-002 
-5.291257e-002 
-4.820960e-002 
-4.699918e-002 
-4.971930e-002 
-5.365554e-002 
-5.785609e-002 
-6.188980e-002 
-6.409686e-002 
-6.631383e-002 
-6.713728e-002 
-6.840877e-002 
-7.379301e-002 
-7.760599e-002 
-7.934893e-002 
-7.910361e-002 
-7.689612e-002 
-7.396621e-002 
-6.822371e-002 
-6.232189e-002 
-6.160310e-002 
-5.999473e-002 
-5.625147e-002 
-5.399615e-002 
-5.169983e-002 
-4.928393e-002 
-4.619152e-002 
-4.291089e-002 
-4.415389e-002 
-4.474848e-002 
-3.818200e-002 
-3.110839e-002 
-2.552143e-002 
-1.577736e-002 
1.460626e-003 
2.055866e-002 
3.300060e-002 
4.079022e-002 
5.123744e-002 
5.687092e-002 
5.480283e-002 
5.084572e-002 
5.129394e-002 
5.475428e-002 
4.912051e-002 
2.924697e-002 
2.523640e-002 
8.369675e-002 
2.292145e-001 
4.566199e-001 
6.416988e-001 
6.544450e-001 
5.629255e-001 
4.744397e-001 
4.146078e-001 
4.296261e-001 
5.280059e-001 
6.601214e-001 
7.158717e-001 
5.471857e-001 
2.763018e-001 
1.646772e-001 
1.830119e-001 
2.110755e-001 
2.230519e-001 
1.734720e-001 
3.129723e-002 
-2.015718e-001 
-4.465904e-001 
-5.437615e-001 
-4.936238e-001 
-4.297297e-001 
-3.915894e-001 
-3.715229e-001 
-3.606377e-001 
-3.493552e-001 
-3.377695e-001 
-3.297602e-001 
-3.199393e-001 
-3.078888e-001 
-2.933677e-001 
-2.784546e-001 
-2.664967e-001 
-2.518078e-001 
-2.374988e-001 
-2.259447e-001 
-2.168501e-001 
-2.008536e-001 
-1.823773e-001 
-1.664998e-001 
-1.564144e-001 
-1.458939e-001 
-1.344344e-001 
-1.272212e-001 
-1.204783e-001 
-1.134156e-001 
-1.037075e-001 
-9.677517e-002 
-9.269319e-002 
-9.172628e-002 
-8.857967e-002 
-8.632969e-002 
-8.536348e-002 
-8.285436e-002 
-8.054722e-002 
-7.764514e-002 
-7.411586e-002 
-7.057641e-002 
-6.907350e-002 
-6.588703e-002 
-6.057007e-002 
-5.543001e-002 
-4.967316e-002 
-4.399786e-002 
-3.730186e-002 
-3.075705e-002 
-2.817264e-002 
-2.779976e-002 
-2.422904e-002 
-1.891238e-002 
-9.911385e-003 
1.922411e-003 
1.299589e-002 
2.827166e-002 
4.562217e-002 
6.095775e-002 
7.411521e-002 
8.797785e-002 
9.913806e-002 
1.051718e-001 
1.033916e-001 
9.978359e-002 
1.007559e-001 
9.955975e-002 
9.135122e-002 
7.966175e-002 
9.434095e-002 
1.698278e-001 
3.263851e-001 
5.383629e-001 
6.783580e-001 
6.637173e-001 
5.778121e-001 
4.997418e-001 
4.570988e-001 
4.900337e-001 
5.880911e-001 
6.996485e-001 
7.065743e-001 
5.143427e-001 
2.892847e-001 
2.146363e-001 
2.291875e-001 
2.500066e-001 
2.484416e-001 
1.799681e-001 
2.351611e-002 
-2.079419e-001 
-4.142445e-001 
-4.714070e-001 
-4.195484e-001 
-3.624403e-001 
-3.242749e-001 
-3.013913e-001 
-2.888014e-001 
-2.784944e-001 
-2.664273e-001 
-2.524175e-001 
-2.371910e-001 
-2.236796e-001 
-2.093156e-001 
-1.944690e-001 
-1.823948e-001 
-1.698618e-001 
-1.546832e-001 
-1.389445e-001 
-1.244067e-001 
-1.126997e-001 
-1.027732e-001 
-9.200116e-002 
-8.347821e-002 
-7.558531e-002 
-6.735681e-002 
-5.975359e-002 
-5.442609e-002 
-5.159217e-002 
-4.815056e-002 
-4.331071e-002 
-3.928667e-002 
-3.631648e-002 
-3.355514e-002 
-3.264452e-002 
-3.193567e-002 
-3.176990e-002 
-3.028467e-002 
-2.770142e-002 
-2.566307e-002 
-2.320966e-002 
-1.907835e-002 
-1.593857e-002 
-1.263524e-002 
-7.547425e-003 
-3.401958e-003 
-4.878904e-004 
1.528714e-003 
2.788003e-003 
4.873215e-003 
6.765557e-003 
8.939011e-003 
1.688594e-002 
2.569687e-002 
3.392040e-002 
4.550153e-002 
6.045636e-002 
7.411408e-002 
8.455089e-002 
9.294460e-002 
1.014658e-001 
1.062175e-001 
1.045927e-001 
1.028648e-001 
1.024140e-001 
1.013584e-001 
9.440107e-002 
8.718901e-002 
1.104617e-001 
1.945222e-001 
3.467075e-001 
5.298178e-001 
6.353746e-001 
6.130754e-001 
5.376253e-001 
4.703789e-001 
4.411951e-001 
4.794232e-001 
5.678992e-001 
6.497111e-001 
6.246475e-001 
4.445977e-001 
2.590486e-001 
1.982842e-001 
2.087768e-001 
2.234085e-001 
2.099716e-001 
1.306732e-001 
-2.503660e-002 
-2.318536e-001 
-3.996150e-001 
-4.399603e-001 
-3.932134e-001 
-3.417667e-001 
-3.088670e-001 
-2.913368e-001 
-2.804075e-001 
-2.679584e-001 
-2.546480e-001 
-2.411392e-001 
-2.268617e-001 
-2.124345e-001 
-1.999616e-001 
-1.892112e-001 
-1.776372e-001 
-1.637131e-001 
-1.482936e-001 
-1.318782e-001 
-1.168443e-001 
-1.036703e-001 
-9.316212e-002 
-8.517142e-002 
-7.671364e-002 
-6.830833e-002 
-6.104439e-002 
-5.398177e-002 
-4.940862e-002 
-4.596167e-002 
-4.229815e-002 
-4.048386e-002 
-3.768344e-002 
-3.562999e-002 
-3.377942e-002 
-3.095645e-002 
-3.065843e-002 
-3.119202e-002 
-2.928494e-002 
-2.981931e-002 
-3.002493e-002 
-2.955540e-002 
-2.850907e-002 
-2.386658e-002 
-2.042295e-002 
-1.879495e-002 
-1.550657e-002 
-1.420469e-002 
-1.702524e-002 
-2.012894e-002 
-2.297872e-002 
-1.973176e-002 
-1.331220e-002 
-6.883447e-003 
7.294243e-004 
1.054762e-002 
2.300621e-002 
3.332359e-002 
4.182600e-002 
5.464440e-002 
6.682724e-002 
6.962448e-002 
6.662798e-002 
5.958681e-002 
5.447610e-002 
4.855674e-002 
3.621820e-002 
1.945855e-002 
2.129193e-002 
8.037809e-002 
2.243649e-001 
4.514329e-001 
6.325354e-001 
6.366606e-001 
5.385226e-001 
4.456365e-001 
3.846741e-001 
3.995617e-001 
4.891735e-001 
6.135868e-001 
6.651612e-001 
4.865658e-001 
2.010389e-001 
7.816524e-002 
8.703297e-002 
1.209752e-001 
1.400316e-001 
8.696070e-002 
-5.622552e-002 
-3.007483e-001 
-5.625049e-001 
-6.680008e-001 
-6.099657e-001 
-5.242458e-001 
-4.597994e-001 
-4.350795e-001 
-4.251819e-001 
-4.171987e-001 
-4.144559e-001 
-3.940886e-001 
-3.597821e-001 
-3.290944e-001 
-3.067739e-001 
-2.971688e-001 
-2.951399e-001 
-2.843929e-001 
-2.703037e-001 
-2.491131e-001 
-2.266516e-001 
-2.049518e-001 
-1.865760e-001 
-1.753885e-001 
-1.628949e-001 
-1.488285e-001 
-1.388157e-001 
-1.263323e-001 
-1.240416e-001 
-1.182334e-001 
-9.466733e-002 
-8.435788e-002 
-8.177110e-002 
-7.467357e-002 
-7.081751e-002 
-6.646203e-002 
-6.127645e-002 
-5.763540e-002 
-4.465007e-002 
-3.430841e-002 
-3.510076e-002 
-3.438690e-002 
-3.252101e-002 
-2.821925e-002 
-2.211785e-002 
-1.497205e-002 
-7.524622e-003 
-1.226495e-002 
-1.762029e-002 
-1.289348e-002 
-2.281784e-003 
1.012803e-002 
1.997893e-002 
3.262388e-002 
5.528909e-002 
6.634581e-002 
6.545777e-002 
8.290505e-002 
1.062903e-001 
1.115876e-001 
9.958188e-002 
8.759948e-002 
9.136707e-002 
9.575692e-002 
7.940741e-002 
6.184708e-002 
7.695700e-002 
1.532315e-001 
3.178932e-001 
5.603027e-001 
7.444036e-001 
7.518168e-001 
6.526160e-001 
5.523452e-001 
4.960844e-001 
5.223080e-001 
6.352473e-001 
7.803227e-001 
8.175088e-001 
6.198150e-001 
3.528805e-001 
2.500143e-001 
2.693522e-001 
2.992032e-001 
3.052670e-001 
2.513987e-001 
9.075675e-002 
-1.707500e-001 
-4.178985e-001 
-5.018744e-001 
-4.493817e-001 
-3.839862e-001 
-3.466090e-001 
-3.182480e-001 
-2.990648e-001 
-2.913102e-001 
-2.805988e-001 
-2.684667e-001 
-2.571442e-001 
-2.444193e-001 
-2.318263e-001 
-2.189748e-001 
-2.060207e-001 
-1.992310e-001 
-1.859889e-001 
-1.746031e-001 
-1.649045e-001 
-1.504171e-001 
-1.381627e-001 
-1.272713e-001 
-1.186536e-001 
-1.134319e-001 
-1.042227e-001 
-9.647684e-002 
-9.489441e-002 
-8.581625e-002 
-7.905330e-002 
-7.665355e-002 
-7.469811e-002 
-7.508661e-002 
-6.724475e-002 
-5.710373e-002 
-5.226380e-002 
-4.217316e-002 
-3.331281e-002 
-2.844879e-002 
-2.181518e-002 
-1.888256e-002 
-1.162246e-002 
2.400737e-003 
1.063951e-002 
1.859648e-002 
2.904854e-002 
3.713352e-002 
4.763374e-002 
5.627587e-002 
6.387868e-002 
7.596906e-002 
8.666383e-002 
9.518642e-002 
1.066674e-001 
1.224395e-001 
1.356588e-001 
1.449380e-001 
1.537396e-001 
1.617045e-001 
1.665808e-001 
1.679335e-001 
1.683442e-001 
1.703215e-001 
1.703894e-001 
1.577008e-001 
1.485312e-001 
1.712377e-001 
2.473257e-001 
3.873008e-001 
5.283428e-001 
5.702680e-001 
5.242410e-001 
4.570388e-001 
4.000983e-001 
3.840006e-001 
4.229016e-001 
5.024077e-001 
5.584305e-001 
4.794715e-001 
2.942099e-001 
1.728917e-001 
1.483634e-001 
1.533786e-001 
1.552987e-001 
1.299612e-001 
4.827401e-002 
-1.021065e-001 
-2.844247e-001 
-3.958007e-001 
-3.984990e-001 
-3.656036e-001 
-3.429618e-001 
-3.312588e-001 
-3.241683e-001 
-3.204133e-001 
-3.174590e-001 
-3.154091e-001 
-3.126732e-001 
-3.078896e-001 
-3.055111e-001 
-3.023155e-001 
-2.958355e-001 
-2.878594e-001 
-2.800746e-001 
-2.720062e-001 
-2.637470e-001 
-2.548685e-001 
-2.471883e-001 
-2.418310e-001 
-2.345086e-001 
-2.255403e-001 
-2.170441e-001 
-2.099992e-001 
-2.042645e-001 
-2.012513e-001 
-1.986601e-001 
-1.960326e-001 
-1.915025e-001 
-1.830335e-001 
-1.751179e-001 
-1.705959e-001 
-1.664727e-001 
-1.642890e-001 
-1.635331e-001 
-1.617457e-001 
-1.583178e-001 
-1.517858e-001 
-1.464782e-001 
-1.447281e-001 
-1.428671e-001 
-1.402035e-001 
-1.388101e-001 
-1.365434e-001 
-1.341234e-001 
-1.250771e-001 
-1.139899e-001 
-1.074012e-001 
-9.862902e-002 
-8.319623e-002 
-6.476409e-002 
-4.968845e-002 
-3.948898e-002 
-2.665413e-002 
-1.607936e-002 
-1.679976e-002 
-2.086230e-002 
-2.201046e-002 
-1.869322e-002 
-1.976664e-002 
-3.507638e-002 
-4.444863e-002 
-9.126041e-003 
9.550523e-002 
3.010334e-001 
5.241456e-001 
5.996232e-001 
5.346002e-001 
4.409607e-001 
3.677395e-001 
3.537465e-001 
4.183612e-001 
5.448598e-001 
6.604154e-001 
5.780713e-001 
3.150842e-001 
1.413411e-001 
1.297843e-001 
1.643798e-001 
1.902239e-001 
1.751339e-001 
8.049941e-002 
-1.149434e-001 
-3.702546e-001 
-5.266550e-001 
-5.120861e-001 
-4.360233e-001 
-3.831008e-001 
-3.521171e-001 
-3.319834e-001 
-3.180582e-001 
-3.034596e-001 
-2.896782e-001 
-2.762817e-001 
-2.630048e-001 
-2.555178e-001 
-2.498319e-001 
-2.420146e-001 
-2.330697e-001 
-2.233394e-001 
-2.121521e-001 
-2.002711e-001 
-1.885543e-001 
-1.801652e-001 
-1.722616e-001 
-1.611787e-001 
-1.498221e-001 
-1.396092e-001 
-1.301727e-001 
-1.193156e-001 
-1.104884e-001 
-1.051423e-001 
-9.943821e-002 
-9.045573e-002 
-8.069213e-002 
-7.230233e-002 
-6.444676e-002 
-5.625480e-002 
-4.966190e-002 
-4.818985e-002 
-4.741404e-002 
-4.344101e-002 
-4.009094e-002 
-3.902764e-002 
-3.654512e-002 
-3.197267e-002 
-2.867585e-002 
-2.519711e-002 
-1.902843e-002 
-1.071872e-002 
-8.560514e-004 
9.417057e-003 
2.476518e-002 
4.222620e-002 
5.273357e-002 
5.897953e-002 
6.620154e-002 
6.568699e-002 
5.967646e-002 
5.430217e-002 
4.971105e-002 
4.742549e-002 
3.804382e-002 
1.425161e-002 
9.769879e-003 
6.613938e-002 
2.075053e-001 
4.291956e-001 
5.920854e-001 
5.922828e-001 
5.093717e-001 
4.209968e-001 
3.583330e-001 
3.736234e-001 
4.666375e-001 
5.957157e-001 
6.370084e-001 
4.581081e-001 
2.181582e-001 
1.253272e-001 
1.370607e-001 
1.668658e-001 
1.834443e-001 
1.413998e-001 
1.019606e-002 
-2.130950e-001 
-4.322064e-001 
-5.032812e-001 
-4.490531e-001 
-3.792950e-001 
-3.328330e-001 
-3.020951e-001 
-2.800598e-001 
-2.611532e-001 
-2.430646e-001 
-2.266978e-001 
-2.114810e-001 
-1.974808e-001 
-1.868734e-001 
-1.757674e-001 
-1.625496e-001 
-1.461847e-001 
-1.279804e-001 
-1.117316e-001 
-9.631029e-002 
-8.326265e-002 
-7.198838e-002 
-6.038585e-002 
-4.703354e-002 
-3.225134e-002 
-1.709198e-002 
-7.023479e-003 
1.237075e-003 
8.196077e-003 
1.375779e-002 
2.194656e-002 
3.160580e-002 
4.263161e-002 
5.271801e-002 
5.815018e-002 
6.121334e-002 
6.491097e-002 
6.686681e-002 
7.047143e-002 
7.581573e-002 
8.368403e-002 
9.249604e-002 
9.661141e-002 
1.021221e-001 
1.131804e-001 
1.257633e-001 
1.383252e-001 
1.542156e-001 
1.749425e-001 
1.979117e-001 
2.093350e-001 
2.134372e-001 
2.221404e-001 
2.271645e-001 
2.229444e-001 
2.161171e-001 
2.126249e-001 
2.092641e-001 
1.971899e-001 
1.686932e-001 
1.475060e-001 
1.761737e-001 
2.843770e-001 
4.884585e-001 
7.044882e-001 
7.639579e-001 
6.817178e-001 
5.821648e-001 
5.072660e-001 
4.931590e-001 
5.648283e-001 
6.940523e-001 
7.968907e-001 
6.959361e-001 
4.175290e-001 
2.482458e-001 
2.416420e-001 
2.722600e-001 
2.918217e-001 
2.679352e-001 
1.616233e-001 
-4.549954e-002 
-3.083245e-001 
-4.604617e-001 
-4.422772e-001 
-3.747087e-001 
-3.302790e-001 
-3.073411e-001 
-2.932363e-001 
-2.820962e-001 
-2.734544e-001 
-2.641242e-001 
-2.550612e-001 
-2.466079e-001 
-2.363390e-001 
-2.264665e-001 
-2.151863e-001 
-2.022555e-001 
-1.888952e-001 
-1.756295e-001 
-1.630060e-001 
-1.524805e-001 
-1.398374e-001 
-1.289924e-001 
-1.179986e-001 
-1.058511e-001 
-9.566687e-002 
-8.758185e-002 
-8.303990e-002 
-8.033732e-002 
-7.529234e-002 
-6.950261e-002 
-6.498134e-002 
-5.839418e-002 
-5.654960e-002 
-5.630944e-002 
-5.678510e-002 
-5.843414e-002 
-5.829080e-002 
-5.634837e-002 
-5.483222e-002 
-5.261841e-002 
-5.231990e-002 
-5.327915e-002 
-4.919819e-002 
-4.056088e-002 
-2.805314e-002 
-1.636245e-002 
-2.714550e-003 
1.326022e-002 
3.153297e-002 
4.670728e-002 
5.815524e-002 
7.148222e-002 
8.422116e-002 
8.468554e-002 
8.145882e-002 
7.904126e-002 
7.248954e-002 
6.620370e-002 
4.969074e-002 
2.661565e-002 
3.441624e-002 
1.094458e-001 
2.789858e-001 
5.148758e-001 
6.548829e-001 
6.240212e-001 
5.293397e-001 
4.452968e-001 
4.021151e-001 
4.417797e-001 
5.555079e-001 
6.868323e-001 
6.883446e-001 
4.639497e-001 
2.228376e-001 
1.580622e-001 
1.850762e-001 
2.132621e-001 
2.160566e-001 
1.472956e-001 
-2.126284e-002 
-2.756099e-001 
-4.959154e-001 
-5.484455e-001 
-4.863913e-001 
-4.287320e-001 
-3.949540e-001 
-3.751365e-001 
-3.637261e-001 
-3.540081e-001 
-3.444733e-001 
-3.343202e-001 
-3.227888e-001 
-3.107004e-001 
-2.977727e-001 
-2.842167e-001 
-2.722800e-001 
-2.583430e-001 
-2.439518e-001 
-2.298868e-001 
-2.146662e-001 
-1.997179e-001 
-1.849910e-001 
-1.723374e-001 
-1.630995e-001 
-1.528236e-001 
-1.417526e-001 
-1.330607e-001 
-1.251072e-001 
-1.181469e-001 
-1.099863e-001 
-1.035622e-001 
-1.003287e-001 
-9.640757e-002 
-9.252174e-002 
-9.018451e-002 
-8.893649e-002 
-8.968572e-002 
-8.818263e-002 
-8.497453e-002 
-8.464632e-002 
-8.290189e-002 
-7.946324e-002 
-7.073405e-002 
-5.729799e-002 
-4.464432e-002 
-2.942189e-002 
-1.143408e-002 
5.324732e-003 
2.055187e-002 
2.989899e-002 
4.052585e-002 
5.412821e-002 
5.649927e-002 
5.480191e-002 
5.190855e-002 
4.346706e-002 
3.510658e-002 
2.052865e-002 
-5.011196e-003 
-6.654669e-003 
4.936873e-002 
1.959119e-001 
4.270626e-001 
5.979311e-001 
5.909701e-001 
4.941817e-001 
4.041447e-001 
3.496122e-001 
3.732314e-001 
4.738093e-001 
6.109437e-001 
6.553352e-001 
4.646815e-001 
1.959916e-001 
9.643325e-002 
1.169034e-001 
1.500913e-001 
1.624963e-001 
1.087509e-001 
-3.981673e-002 
-2.823327e-001 
-5.222529e-001 
-6.063326e-001 
-5.530105e-001 
-4.868940e-001 
-4.470422e-001 
-4.265950e-001 
-4.149305e-001 
-4.042022e-001 
-3.894866e-001 
-3.776692e-001 
-3.696074e-001 
-3.582063e-001 
-3.460850e-001 
-3.357435e-001 
-3.234618e-001 
-3.112790e-001 
-2.950528e-001 
-2.777968e-001 
-2.649688e-001 
-2.496175e-001 
-2.342077e-001 
-2.230083e-001 
-2.123908e-001 
-2.006803e-001 
-1.883663e-001 
-1.764050e-001 
-1.696889e-001 
-1.629314e-001 
-1.552905e-001 
-1.490433e-001 
-1.435813e-001 
-1.356649e-001 
-1.236074e-001 
-1.168849e-001 
-1.166026e-001 
-1.163939e-001 
-1.146836e-001 
-1.116600e-001 
-1.084532e-001 
-1.045224e-001 
-9.358912e-002 
-8.509823e-002 
-8.518157e-002 
-8.107736e-002 
-7.052633e-002 
-5.581779e-002 
-4.201880e-002 
-2.928522e-002 
-1.216912e-002 
8.761955e-003 
2.175695e-002 
3.040906e-002 
4.516814e-002 
5.979896e-002 
6.368600e-002 
6.072118e-002 
5.706546e-002 
5.348686e-002 
4.905175e-002 
3.711312e-002 
1.953973e-002 
8.992451e-003 
3.010120e-002 
1.334099e-001 
3.416353e-001 
5.365725e-001 
5.671146e-001 
4.797697e-001 
3.897470e-001 
3.268045e-001 
3.147234e-001 
3.805151e-001 
5.194912e-001 
6.179503e-001 
4.915146e-001 
2.213619e-001 
8.921508e-002 
1.022758e-001 
1.354695e-001 
1.549486e-001 
1.334588e-001 
3.370612e-002 
-1.701927e-001 
-4.173872e-001 
-5.347489e-001 
-4.923488e-001 
-4.232123e-001 
-3.812321e-001 
-3.599362e-001 
-3.484443e-001 
-3.378110e-001 
-3.277305e-001 
-3.169859e-001 
-3.046724e-001 
-2.971765e-001 
-2.896125e-001 
-2.812388e-001 
-2.721511e-001 
-2.596650e-001 
-2.448380e-001 
-2.285804e-001 
-2.115831e-001 
-1.991171e-001 
-1.890512e-001 
-1.779348e-001 
-1.689726e-001 
-1.576875e-001 
-1.452827e-001 
-1.331239e-001 
-1.241026e-001 
-1.182463e-001 
-1.148412e-001 
-1.097198e-001 
-1.047992e-001 
-9.993985e-002 
-9.354310e-002 
-8.910251e-002 
-8.610219e-002 
-8.687247e-002 
-8.832350e-002 
-8.815969e-002 
-8.625235e-002 
-8.445062e-002 
-7.965201e-002 
-7.466861e-002 
-6.914564e-002 
-6.360819e-002 
-6.213404e-002 
-5.913310e-002 
-5.520152e-002 
-5.376073e-002 
-5.245412e-002 
-5.085120e-002 
-5.066138e-002 
-5.052578e-002 
-5.162856e-002 
-4.812004e-002 
-3.981301e-002 
-3.353424e-002 
-2.544637e-002 
-8.875851e-003 
9.616010e-003 
2.124045e-002 
2.893893e-002 
3.944541e-002 
4.717607e-002 
4.601500e-002 
4.173894e-002 
4.251319e-002 
4.660626e-002 
4.000734e-002 
2.037488e-002 
1.945017e-002 
7.869237e-002 
2.135596e-001 
4.256274e-001 
6.097238e-001 
6.341575e-001 
5.475603e-001 
4.559814e-001 
3.966568e-001 
4.122059e-001 
5.019892e-001 
6.211459e-001 
6.829414e-001 
5.405028e-001 
2.836877e-001 
1.618002e-001 
1.744463e-001 
2.084974e-001 
2.260738e-001 
1.824137e-001 
5.358934e-002 
-1.593716e-001 
-3.928204e-001 
-4.962238e-001 
-4.528592e-001 
-3.831296e-001 
-3.382658e-001 
-3.132162e-001 
-2.988785e-001 
-2.869807e-001 
-2.766020e-001 
-2.679714e-001 
-2.598802e-001 
-2.520688e-001 
-2.450233e-001 
-2.376168e-001 
-2.297154e-001 
-2.212627e-001 
-2.134756e-001 
-2.054907e-001 
-1.984017e-001 
-1.918166e-001 
-1.845740e-001 
-1.785650e-001 
-1.724826e-001 
-1.658214e-001 
-1.617031e-001 
-1.589094e-001 
-1.567571e-001 
-1.564174e-001 
-1.551877e-001 
-1.535085e-001 
-1.514526e-001 
-1.488054e-001 
-1.466526e-001 
-1.460548e-001 
-1.451766e-001 
-1.465426e-001 
-1.481158e-001 
-1.466497e-001 
-1.418513e-001 
-1.364975e-001 
-1.320296e-001 
-1.260127e-001 
-1.193088e-001 
-1.143385e-001 
-1.120338e-001 
-1.060473e-001 
-9.847393e-002 
-9.244590e-002 
-9.003714e-002 
-8.924152e-002 
-8.720458e-002 
-8.815121e-002 
-9.279374e-002 
-9.512269e-002 
-9.120608e-002 
-8.487613e-002 
-8.036587e-002 
-7.695486e-002 
-6.717079e-002 
-5.090555e-002 
-3.896594e-002 
-3.060772e-002 
-1.803892e-002 
-4.224435e-003 
-5.181262e-004 
-4.983765e-003 
-6.778896e-003 
-3.780014e-003 
-3.943558e-003 
-1.331915e-002 
-2.648238e-002 
-7.141690e-003 
8.379177e-002 
2.732421e-001 
4.987763e-001 
5.854519e-001 
5.219259e-001 
4.356606e-001 
3.665486e-001 
3.313749e-001 
3.778665e-001 
5.031790e-001 
6.287605e-001 
5.668371e-001 
3.041249e-001 
1.235405e-001 
1.106137e-001 
1.377868e-001 
1.576787e-001 
1.543557e-001 
7.694440e-002 
-1.067927e-001 
-3.597158e-001 
-5.236923e-001 
-5.155697e-001 
-4.458829e-001 
-3.946053e-001 
-3.637055e-001 
-3.445051e-001 
-3.317570e-001 
-3.169338e-001 
-2.997306e-001 
-2.845429e-001 
-2.715038e-001 
-2.605040e-001 
-2.490318e-001 
-2.386217e-001 
-2.267871e-001 
-2.108332e-001 
-1.924793e-001 
-1.741665e-001 
-1.585804e-001 
-1.476504e-001 
-1.362415e-001 
-1.255725e-001 
-1.167640e-001 
-1.044968e-001 
-9.155016e-002 
-8.139016e-002 
-7.399778e-002 
-7.143437e-002 
-6.851481e-002 
-6.240266e-002 
-5.751658e-002 
-5.090939e-002 
-4.219280e-002 
-3.514034e-002 
-3.108484e-002 
-2.958587e-002 
-2.774228e-002 
-2.155878e-002 
-1.476929e-002 
-7.785822e-003 
2.520738e-003 
1.467332e-002 
2.583028e-002 
3.407789e-002 
4.201044e-002 
5.163590e-002 
5.909782e-002 
6.354787e-002 
6.931142e-002 
7.501684e-002 
8.022938e-002 
8.699931e-002 
9.430695e-002 
1.032331e-001 
1.126078e-001 
1.244209e-001 
1.401141e-001 
1.521480e-001 
1.609757e-001 
1.692319e-001 
1.720228e-001 
1.687507e-001 
1.633268e-001 
1.595930e-001 
1.603817e-001 
1.530981e-001 
1.383060e-001 
1.560393e-001 
2.423402e-001 
4.117137e-001 
6.426742e-001 
7.931016e-001 
7.711449e-001 
6.727979e-001 
5.845912e-001 
5.429051e-001 
5.842334e-001 
6.872895e-001 
8.039695e-001 
8.136929e-001 
6.016859e-001 
3.543306e-001 
2.784887e-001 
3.061146e-001 
3.389601e-001 
3.370073e-001 
2.604151e-001 
9.624430e-002 
-1.483723e-001 
-3.665902e-001 
-4.200687e-001 
-3.549795e-001 
-2.859542e-001 
-2.470718e-001 
-2.265684e-001 
-2.104397e-001 
-1.973433e-001 
-1.856489e-001 
-1.717738e-001 
-1.599761e-001 
-1.474079e-001 
-1.360969e-001 
-1.275252e-001 
-1.136784e-001 
-9.888020e-002 
-8.507068e-002 
-7.030797e-002 
-5.689678e-002 
-4.644761e-002 
-3.797308e-002 
-3.396785e-002 
-2.714734e-002 
-1.754188e-002 
-1.048599e-002 
-5.732112e-003 
-4.363401e-003 
-4.525425e-003 
-6.232873e-003 
-8.646297e-003 
-9.617429e-003 
-7.998469e-003 
-6.238178e-003 
-5.498658e-003 
-8.517648e-003 
-1.184314e-002 
-1.289185e-002 
-1.395717e-002 
-1.181437e-002 
-7.539934e-003 
-7.219848e-004 
7.609406e-003 
1.337156e-002 
1.657502e-002 
2.192118e-002 
2.669496e-002 
2.999600e-002 
3.497011e-002 
3.938359e-002 
4.337620e-002 
4.494755e-002 
4.448351e-002 
4.376742e-002 
4.286639e-002 
4.021615e-002 
3.812130e-002 
3.622287e-002 
3.435627e-002 
3.413172e-002 
3.753802e-002 
4.480240e-002 
5.196831e-002 
6.109779e-002 
7.803211e-002 
9.632753e-002 
1.087914e-001 
1.205405e-001 
1.319154e-001 
1.396509e-001 
1.408602e-001 
1.367973e-001 
1.367035e-001 
1.408910e-001 
1.351375e-001 
1.185779e-001 
1.262778e-001 
2.008440e-001 
3.590882e-001 
5.814168e-001 
7.380052e-001 
7.248075e-001 
6.291744e-001 
5.426957e-001 
4.910922e-001 
5.218001e-001 
6.253469e-001 
7.440150e-001 
7.682741e-001 
5.746919e-001 
3.219070e-001 
2.376093e-001 
2.627790e-001 
2.924206e-001 
3.000078e-001 
2.360617e-001 
8.176803e-002 
-1.501096e-001 
-3.710438e-001 
-4.373453e-001 
-3.747224e-001 
-3.084346e-001 
-2.701585e-001 
-2.495355e-001 
-2.381549e-001 
-2.245353e-001 
-2.106896e-001 
-2.004800e-001 
-1.907507e-001 
-1.796477e-001 
-1.692243e-001 
-1.569741e-001 
-1.453526e-001 
-1.319090e-001 
-1.175896e-001 
-1.065435e-001 
-9.649496e-002 
-8.672460e-002 
-7.899671e-002 
-7.198148e-002 
-6.463823e-002 
-5.803713e-002 
-5.178864e-002 
-5.056212e-002 
-5.039370e-002 
-5.037834e-002 
-5.251707e-002 
-5.435304e-002 
-5.464197e-002 
-5.501884e-002 
-5.665317e-002 
-6.020731e-002 
-6.419675e-002 
-6.650100e-002 
-6.920131e-002 
-6.932783e-002 
-6.672253e-002 
-6.227770e-002 
-5.902197e-002 
-5.541185e-002 
-4.930696e-002 
-4.360247e-002 
-3.995722e-002 
-3.560412e-002 
-3.059757e-002 
-2.492857e-002 
-2.056623e-002 
-2.077242e-002 
-1.940362e-002 
-1.881314e-002 
-2.282830e-002 
-2.617012e-002 
-2.761802e-002 
-2.973230e-002 
-3.280179e-002 
-4.073903e-002 
-4.776317e-002 
-4.956006e-002 
-4.839017e-002 
-4.510422e-002 
-3.708449e-002 
-2.582595e-002 
-1.171986e-002 
-3.201155e-004 
6.683879e-003 
1.568128e-002 
2.446642e-002 
2.712803e-002 
2.522401e-002 
2.301679e-002 
2.078689e-002 
1.807338e-002 
6.676281e-003 
-1.039241e-002 
-1.424539e-003 
7.096772e-002 
2.248922e-001 
4.484314e-001 
6.114189e-001 
6.011255e-001 
4.993275e-001 
4.059643e-001 
3.560243e-001 
3.863086e-001 
4.845034e-001 
6.028665e-001 
6.339106e-001 
4.446734e-001 
1.833607e-001 
8.593670e-002 
1.091831e-001 
1.418674e-001 
1.461846e-001 
8.378708e-002 
-6.708134e-002 
-3.036253e-001 
-5.334594e-001 
-6.058323e-001 
-5.440658e-001 
-4.725752e-001 
-4.309330e-001 
-4.061958e-001 
-3.902067e-001 
-3.807726e-001 
-3.708409e-001 
-3.558669e-001 
-3.424335e-001 
-3.317355e-001 
-3.200201e-001 
-3.071223e-001 
-2.960007e-001 
-2.874048e-001 
-2.751148e-001 
-2.609937e-001 
-2.495389e-001 
-2.404864e-001 
-2.308845e-001 
-2.212793e-001 
-2.152394e-001 
-2.123977e-001 
-2.055688e-001 
-2.004880e-001 
-2.013086e-001 
-2.024774e-001 
-2.018546e-001 
-2.004290e-001 
-2.010063e-001 
-2.033587e-001 
-2.016487e-001 
-2.012904e-001 
-2.055134e-001 
-2.068277e-001 
-2.069836e-001 
-2.059934e-001 
-2.036341e-001 
-2.029803e-001 
-1.999141e-001 
-1.958442e-001 
-1.928433e-001 
-1.856464e-001 
-1.786227e-001 
-1.730450e-001 
-1.667989e-001 
-1.629327e-001 
-1.619159e-001 
-1.613096e-001 
-1.618066e-001 
-1.595968e-001 
-1.590762e-001 
-1.607492e-001 
-1.608785e-001 
-1.642112e-001 
-1.678190e-001 
-1.670955e-001 
-1.627948e-001 
-1.560060e-001 
-1.452357e-001 
-1.305367e-001 
-1.103378e-001 
-9.690693e-002 
-8.933242e-002 
-7.833982e-002 
-6.968758e-002 
-6.633994e-002 
-6.559228e-002 
-6.319808e-002 
-5.821476e-002 
-6.020059e-002 
-7.837540e-002 
-8.538841e-002 
-3.469843e-002 
1.000517e-001 
3.266564e-001 
5.419242e-001 
5.961870e-001 
5.177681e-001 
4.192777e-001 
3.463639e-001 
3.440800e-001 
4.300907e-001 
5.659857e-001 
6.585782e-001 
5.374287e-001 
2.657254e-001 
1.104055e-001 
1.089496e-001 
1.448755e-001 
1.711479e-001 
1.468893e-001 
3.456965e-002 
-1.797816e-001 
-4.368202e-001 
-5.687804e-001 
-5.343159e-001 
-4.528639e-001 
-3.934736e-001 
-3.537953e-001 
-3.248667e-001 
-3.035613e-001 
-2.872933e-001 
-2.700109e-001 
-2.510844e-001 
-2.324173e-001 
-2.151618e-001 
-1.985891e-001 
-1.805449e-001 
-1.639113e-001 
-1.501104e-001 
-1.342092e-001 
-1.172815e-001 
-1.023206e-001 
-8.791362e-002 
-7.552991e-002 
-6.378618e-002 
-5.348759e-002 
-4.632270e-002 
-3.908889e-002 
-3.402023e-002 
-3.215158e-002 
-2.927960e-002 
-2.482267e-002 
-2.063293e-002 
-1.654243e-002 
-1.417822e-002 
-1.013905e-002 
-7.254440e-003 
-6.901759e-003 
-3.740467e-003 
1.058585e-003 
6.529501e-003 
1.175212e-002 
1.566213e-002 
2.211619e-002 
2.966975e-002 
3.569746e-002 
4.368606e-002 
5.132229e-002 
5.907845e-002 
6.527333e-002 
6.768442e-002 
6.984744e-002 
7.016274e-002 
6.737402e-002 
6.568035e-002 
6.402666e-002 
6.845096e-002 
7.590133e-002 
7.737998e-002 
8.262220e-002 
9.286994e-002 
1.065521e-001 
1.195454e-001 
1.268285e-001 
1.392341e-001 
1.520973e-001 
1.479492e-001 
1.401256e-001 
1.379962e-001 
1.374558e-001 
1.351475e-001 
1.192318e-001 
1.048162e-001 
1.296193e-001 
2.171271e-001 
3.948490e-001 
6.313307e-001 
7.742649e-001 
7.389410e-001 
6.278003e-001 
5.400917e-001 
5.079643e-001 
5.569032e-001 
6.709040e-001 
7.941540e-001 
7.874800e-001 
5.603876e-001 
3.080438e-001 
2.424484e-001 
2.833249e-001 
3.161192e-001 
3.101682e-001 
2.290593e-001 
5.134878e-002 
-2.043454e-001 
-4.191587e-001 
-4.601890e-001 
-3.790343e-001 
-3.078151e-001 
-2.712996e-001 
-2.503594e-001 
-2.340270e-001 
-2.204414e-001 
-2.058494e-001 
-1.877980e-001 
-1.706740e-001 
-1.583273e-001 
-1.463882e-001 
-1.320239e-001 
-1.171706e-001 
-1.008998e-001 
-8.623577e-002 
-7.030793e-002 
-5.561833e-002 
-4.803640e-002 
-4.223732e-002 
-3.286523e-002 
-2.578809e-002 
-1.962374e-002 
-1.359634e-002 
-9.465318e-003 
-6.027467e-003 
-6.782766e-003 
-8.263267e-003 
-7.548135e-003 
-8.049347e-003 
-9.645309e-003 
-9.309901e-003 
-9.502952e-003 
-1.014781e-002 
-1.212051e-002 
-1.250340e-002 
-1.152687e-002 
-1.103502e-002 
-9.926376e-003 
-4.944075e-003 
3.140695e-003 
9.635515e-003 
1.301048e-002 
1.669645e-002 
2.059781e-002 
2.156514e-002 
2.190719e-002 
2.226139e-002 
2.606031e-002 
2.762338e-002 
2.344646e-002 
1.907067e-002 
1.984125e-002 
2.440589e-002 
3.015448e-002 
3.605638e-002 
4.633196e-002 
6.263007e-002 
7.495463e-002 
8.221048e-002 
9.205399e-002 
1.039579e-001 
1.075998e-001 
1.048848e-001 
1.013897e-001 
1.001497e-001 
9.742346e-002 
8.640318e-002 
6.763081e-002 
6.928488e-002 
1.325980e-001 
2.827516e-001 
5.151502e-001 
7.012745e-001 
7.035335e-001 
5.960738e-001 
4.988207e-001 
4.407651e-001 
4.618443e-001 
5.619610e-001 
6.916566e-001 
7.429180e-001 
5.648003e-001 
2.795473e-001 
1.614283e-001 
1.870841e-001 
2.240492e-001 
2.343558e-001 
1.777220e-001 
2.836124e-002 
-2.118572e-001 
-4.610113e-001 
-5.583245e-001 
-5.006621e-001 
-4.239673e-001 
-3.806157e-001 
-3.578458e-001 
-3.423120e-001 
-3.303999e-001 
-3.194322e-001 
-3.075673e-001 
-2.958187e-001 
-2.834724e-001 
-2.705962e-001 
-2.572295e-001 
-2.444827e-001 
-2.341183e-001 
-2.230783e-001 
-2.098993e-001 
-1.957991e-001 
-1.825616e-001 
-1.726415e-001 
-1.616101e-001 
-1.518555e-001 
-1.467536e-001 
-1.403568e-001 
-1.337535e-001 
-1.296422e-001 
-1.264402e-001 
-1.251508e-001 
-1.230054e-001 
-1.183902e-001 
-1.172069e-001 
-1.146376e-001 
-1.112508e-001 
-1.102073e-001 
-1.092553e-001 
-1.081208e-001 
-1.046806e-001 
-1.001271e-001 
-9.826332e-002 
-9.572591e-002 
-9.089726e-002 
-8.521395e-002 
-7.862538e-002 
-7.338208e-002 
-6.663313e-002 
-5.982325e-002 
-5.930169e-002 
-5.983182e-002 
-5.877006e-002 
-5.875502e-002 
-5.847950e-002 
-6.178381e-002 
-6.477284e-002 
-6.533207e-002 
-6.554287e-002 
-6.298233e-002 
-5.628019e-002 
-4.817146e-002 
-3.678028e-002 
-1.975139e-002 
-2.990486e-003 
1.028791e-002 
2.192565e-002 
3.229691e-002 
3.489912e-002 
3.307146e-002 
2.918500e-002 
2.822571e-002 
3.049675e-002 
2.318297e-002 
3.781671e-003 
7.758474e-003 
7.868517e-002 
2.343678e-001 
4.608091e-001 
6.383683e-001 
6.436272e-001 
5.427745e-001 
4.429039e-001 
3.822960e-001 
4.120139e-001 
5.173819e-001 
6.376516e-001 
6.778089e-001 
5.055316e-001 
2.333773e-001 
1.198032e-001 
1.416299e-001 
1.795394e-001 
1.936952e-001 
1.305633e-001 
-2.454566e-002 
-2.578101e-001 
-4.953721e-001 
-5.859313e-001 
-5.240309e-001 
-4.450932e-001 
-3.981307e-001 
-3.741567e-001 
-3.599929e-001 
-3.448548e-001 
-3.300707e-001 
-3.188930e-001 
-3.083594e-001 
-2.976466e-001 
-2.893380e-001 
-2.831594e-001 
-2.765904e-001 
-2.665870e-001 
-2.553453e-001 
-2.456632e-001 
-2.372450e-001 
-2.301954e-001 
-2.253145e-001 
-2.207026e-001 
-2.166019e-001 
-2.088637e-001 
-2.009187e-001 
-1.979824e-001 
-1.967799e-001 
-1.963832e-001 
-1.965829e-001 
-1.938530e-001 
-1.892723e-001 
-1.819687e-001 
-1.741187e-001 
-1.728061e-001 
-1.727614e-001 
-1.707584e-001 
-1.690502e-001 
-1.654120e-001 
-1.609976e-001 
-1.564635e-001 
-1.493448e-001 
-1.462350e-001 
-1.431332e-001 
-1.373767e-001 
-1.319822e-001 
-1.264648e-001 
-1.221830e-001 
-1.207466e-001 
-1.188956e-001 
-1.188609e-001 
-1.227004e-001 
-1.260026e-001 
-1.289417e-001 
-1.259168e-001 
-1.208235e-001 
-1.159401e-001 
-1.091617e-001 
-9.560163e-002 
-8.080472e-002 
-7.040958e-002 
-5.990571e-002 
-4.670453e-002 
-4.035700e-002 
-3.961586e-002 
-3.819185e-002 
-3.731211e-002 
-3.100824e-002 
-3.364073e-002 
-4.794485e-002 
-3.987949e-002 
3.062814e-002 
1.839031e-001 
4.222624e-001 
6.181161e-001 
6.473301e-001 
5.672743e-001 
4.719499e-001 
4.114364e-001 
4.328438e-001 
5.338095e-001 
6.644423e-001 
7.214658e-001 
5.634852e-001 
3.037900e-001 
1.761961e-001 
1.825175e-001 
2.203739e-001 
2.406163e-001 
1.960646e-001 
5.528870e-002 
-1.752573e-001 
-4.137721e-001 
-5.149570e-001 
-4.709693e-001 
-3.922750e-001 
-3.351732e-001 
-2.976253e-001 
-2.730526e-001 
-2.552593e-001 
-2.374699e-001 
-2.195063e-001 
-2.037169e-001 
-1.887833e-001 
-1.738237e-001 
-1.602053e-001 
-1.498594e-001 
-1.405604e-001 
-1.309004e-001 
-1.199354e-001 
-1.066751e-001 
-9.441698e-002 
-8.368166e-002 
-7.424509e-002 
-6.735776e-002 
-6.100581e-002 
-5.307175e-002 
-4.639103e-002 
-3.799259e-002 
-3.084911e-002 
-2.541995e-002 
-2.001265e-002 
-1.416865e-002 
-7.375813e-003 
7.709917e-004 
8.488334e-003 
1.512988e-002 
2.134231e-002 
2.644937e-002 
3.148909e-002 
3.476616e-002 
3.879841e-002 
4.362238e-002 
4.946062e-002 
5.545501e-002 
6.119490e-002 
6.879695e-002 
7.632708e-002 
7.828669e-002 
7.731950e-002 
7.673490e-002 
7.684668e-002 
8.046265e-002 
8.734064e-002 
9.725466e-002 
1.077771e-001 
1.170162e-001 
1.275836e-001 
1.386673e-001 
1.459513e-001 
1.553064e-001 
1.623529e-001 
1.637058e-001 
1.604484e-001 
1.522944e-001 
1.467830e-001 
1.406060e-001 
1.238428e-001 
1.107051e-001 
1.432035e-001 
2.508589e-001 
4.511086e-001 
6.765039e-001 
7.639517e-001 
6.924374e-001 
5.872588e-001 
5.133957e-001 
4.985288e-001 
5.661670e-001 
6.903546e-001 
8.005946e-001 
7.362965e-001 
4.685506e-001 
2.654596e-001 
2.490250e-001 
2.921109e-001 
3.190292e-001 
3.002365e-001 
1.972599e-001 
-1.415211e-003 
-2.620318e-001 
-4.391586e-001 
-4.345008e-001 
-3.544427e-001 
-2.972957e-001 
-2.677620e-001 
-2.537500e-001 
-2.442675e-001 
-2.332931e-001 
-2.218935e-001 
-2.101013e-001 
-1.977550e-001 
-1.841926e-001 
-1.720381e-001 
-1.634219e-001 
-1.543519e-001 
-1.438360e-001 
-1.316440e-001 
-1.181479e-001 
-1.044808e-001 
-9.130801e-002 
-7.938992e-002 
-7.359097e-002 
-6.723130e-002 
-5.867260e-002 
-5.139540e-002 
-4.358720e-002 
-3.805664e-002 
-3.369828e-002 
-2.905757e-002 
-2.765812e-002 
-2.676751e-002 
-2.185472e-002 
-1.947961e-002 
-1.766041e-002 
-1.607595e-002 
-1.561652e-002 
-1.218452e-002 
-1.098574e-002 
-1.090767e-002 
-7.285354e-003 
-3.998254e-003 
-4.462924e-004 
5.111351e-003 
1.114814e-002 
1.715803e-002 
1.889379e-002 
1.820531e-002 
1.974361e-002 
1.950823e-002 
1.970276e-002 
2.730729e-002 
3.761933e-002 
4.637727e-002 
5.226259e-002 
6.301644e-002 
7.919572e-002 
9.010717e-002 
9.678312e-002 
1.058016e-001 
1.126543e-001 
1.101266e-001 
1.004515e-001 
9.400082e-002 
9.301141e-002 
8.507763e-002 
6.523518e-002 
5.613215e-002 
9.847124e-002 
2.202439e-001 
4.243439e-001 
6.221212e-001 
6.717156e-001 
5.923761e-001 
4.977849e-001 
4.323915e-001 
4.353829e-001 
5.174836e-001 
6.419433e-001 
7.244616e-001 
6.150575e-001 
3.556154e-001 
2.044903e-001 
2.065310e-001 
2.444476e-001 
2.669273e-001 
2.326721e-001 
1.137445e-001 
-9.398134e-002 
-3.397130e-001 
-4.755598e-001 
-4.518911e-001 
-3.820571e-001 
-3.356459e-001 
-3.147477e-001 
-3.070999e-001 
-2.992769e-001 
-2.925667e-001 
-2.883014e-001 
-2.839248e-001 
-2.765417e-001 
-2.675616e-001 
-2.632551e-001 
-2.626046e-001 
-2.590714e-001 
-2.516381e-001 
-2.445631e-001 
-2.356244e-001 
-2.241724e-001 
-2.117397e-001 
-2.042873e-001 
-1.986579e-001 
-1.905623e-001 
-1.798646e-001 
-1.686901e-001 
-1.593902e-001 
-1.504776e-001 
-1.415101e-001 
-1.369576e-001 
-1.328450e-001 
-1.249233e-001 
-1.170630e-001 
-1.103561e-001 
-1.059724e-001 
-1.012870e-001 
-9.601314e-002 
-9.645786e-002 
-9.841119e-002 
-9.429389e-002 
-9.085195e-002 
-8.740986e-002 
-8.349830e-002 
-7.781846e-002 
-7.141850e-002 
-6.970011e-002 
-7.150472e-002 
-6.797104e-002 
-6.393792e-002 
-6.235339e-002 
-5.719015e-002 
-4.848475e-002 
-4.044831e-002 
-3.376048e-002 
-2.512994e-002 
-1.119651e-002 
6.528504e-003 
1.830155e-002 
2.904924e-002 
4.180165e-002 
4.560352e-002 
3.880173e-002 
3.237201e-002 
2.679689e-002 
2.374759e-002 
1.667474e-002 
-2.844946e-003 
-9.221843e-003 
3.453878e-002 
1.507365e-001 
3.555330e-001 
5.587311e-001 
6.089801e-001 
5.297916e-001 
4.295277e-001 
3.577413e-001 
3.573945e-001 
4.334999e-001 
5.524353e-001 
6.370085e-001 
5.257823e-001 
2.602071e-001 
1.003917e-001 
9.490481e-002 
1.308001e-001 
1.508177e-001 
1.143219e-001 
-5.949807e-003 
-2.176005e-001 
-4.699577e-001 
-6.077031e-001 
-5.805675e-001 
-5.053403e-001 
-4.557516e-001 
-4.301633e-001 
-4.168546e-001 
-4.071873e-001 
-3.978470e-001 
-3.885467e-001 
-3.772141e-001 
-3.685294e-001 
-3.645894e-001 
-3.613613e-001 
-3.579772e-001 
-3.522857e-001 
-3.421304e-001 
-3.317414e-001 
-3.194715e-001 
-3.077001e-001 
-2.994240e-001 
-2.918151e-001 
-2.851486e-001 
-2.775204e-001 
-2.655994e-001 
-2.546724e-001 
-2.453820e-001 
-2.352347e-001 
-2.282922e-001 
-2.204142e-001 
-2.114710e-001 
-2.029460e-001 
-1.930487e-001 
-1.829256e-001 
-1.756704e-001 
-1.693491e-001 
-1.663287e-001 
-1.636033e-001 
-1.589269e-001 
-1.561858e-001 
-1.532344e-001 
-1.489539e-001 
-1.421217e-001 
-1.369437e-001 
-1.350696e-001 
-1.331826e-001 
-1.308036e-001 
-1.322258e-001 
-1.317450e-001 
-1.268016e-001 
-1.195170e-001 
-1.127086e-001 
-1.082583e-001 
-9.672562e-002 
-8.225516e-002 
-7.424608e-002 
-6.636253e-002 
-5.757157e-002 
-5.443303e-002 
-5.582700e-002 
-6.346926e-002 
-6.654763e-002 
-6.330377e-002 
-6.834127e-002 
-8.253612e-002 
-7.553561e-002 
-7.408402e-003 
1.446603e-001 
3.687556e-001 
5.504128e-001 
5.851540e-001 
5.135323e-001 
4.239583e-001 
3.623158e-001 
3.801525e-001 
4.748757e-001 
5.974277e-001 
6.463472e-001 
4.967270e-001 
2.561645e-001 
1.315200e-001 
1.287987e-001 
1.599310e-001 
1.780690e-001 
1.317571e-001 
-5.003111e-003 
-2.284110e-001 
-4.584978e-001 
-5.579807e-001 
-5.207640e-001 
-4.450437e-001 
-3.865255e-001 
-3.486924e-001 
-3.232146e-001 
-3.040288e-001 
-2.845371e-001 
-2.661457e-001 
-2.491346e-001 
-2.321628e-001 
-2.149730e-001 
-2.013353e-001 
-1.870998e-001 
-1.712178e-001 
-1.540389e-001 
-1.355957e-001 
-1.205824e-001 
-1.064987e-001 
-9.336153e-002 
-8.014849e-002 
-6.855742e-002 
-5.795029e-002 
-4.749765e-002 
-3.784440e-002 
-3.214296e-002 
-2.479860e-002 
-1.667810e-002 
-6.862343e-003 
5.521595e-003 
1.163982e-002 
1.622481e-002 
2.457032e-002 
2.940418e-002 
3.670943e-002 
4.819012e-002 
5.514638e-002 
6.419863e-002 
7.001479e-002 
7.266003e-002 
8.229733e-002 
9.439467e-002 
1.026999e-001 
1.120369e-001 
1.172796e-001 
1.243125e-001 
1.353524e-001 
1.431384e-001 
1.543403e-001 
1.687994e-001 
1.858353e-001 
1.965681e-001 
2.012985e-001 
2.078651e-001 
2.127293e-001 
2.068264e-001 
1.966339e-001 
1.858922e-001 
1.791855e-001 
1.729317e-001 
1.496232e-001 
1.244985e-001 
1.422637e-001 
2.442731e-001 
4.549349e-001 
7.090256e-001 
8.206155e-001 
7.560123e-001 
6.463941e-001 
5.589296e-001 
5.260483e-001 
5.885748e-001 
7.281184e-001 
8.629202e-001 
8.093996e-001 
5.208393e-001 
2.884176e-001 
2.577595e-001 
2.963037e-001 
3.221194e-001 
3.102439e-001 
2.130507e-001 
4.510993e-003 
-2.842794e-001 
-4.919072e-001 
-5.007762e-001 
-4.201305e-001 
-3.630504e-001 
-3.357231e-001 
-3.198482e-001 
-3.045024e-001 
-2.909696e-001 
-2.795114e-001 
-2.686332e-001 
-2.567662e-001 
-2.453974e-001 
-2.343381e-001 
-2.235872e-001 
-2.071503e-001 
-1.873208e-001 
-1.733011e-001 
-1.605409e-001 
-1.464817e-001 
-1.348471e-001 
-1.245047e-001 
-1.147278e-001 
-1.048014e-001 
-9.109665e-002 
-8.302232e-002 
-7.954377e-002 
-7.479951e-002 
-7.141963e-002 
-7.054273e-002 
-6.839979e-002 
-6.442288e-002 
-6.039104e-002 
-5.873776e-002 
-6.123699e-002 
-6.455385e-002 
-6.701173e-002 
-6.664675e-002 
-6.571261e-002 
-6.115862e-002 
-5.540704e-002 
-5.147444e-002 
-4.644240e-002 
-4.161279e-002 
-3.580472e-002 
-2.878390e-002 
-1.953924e-002 
-6.273859e-003 
1.048120e-002 
2.529134e-002 
4.245875e-002 
6.406990e-002 
8.509149e-002 
1.029899e-001 
1.165188e-001 
1.311231e-001 
1.422916e-001 
1.445219e-001 
1.404434e-001 
1.367865e-001 
1.331069e-001 
1.249977e-001 
1.054809e-001 
9.586366e-002 
1.459717e-001 
2.855750e-001 
5.151579e-001 
7.189695e-001 
7.485017e-001 
6.566500e-001 
5.567638e-001 
4.845103e-001 
4.870274e-001 
5.790506e-001 
7.176116e-001 
7.937348e-001 
6.413488e-001 
3.536947e-001 
2.108235e-001 
2.179465e-001 
2.526220e-001 
2.710232e-001 
2.320781e-001 
9.680332e-002 
-1.400894e-001 
-4.050746e-001 
-5.318729e-001 
-4.902733e-001 
-4.147861e-001 
-3.727374e-001 
-3.504102e-001 
-3.368789e-001 
-3.265747e-001 
-3.138130e-001 
-3.040308e-001 
-2.931040e-001 
-2.783138e-001 
-2.719415e-001 
-2.647369e-001 
-2.493820e-001 
-2.346398e-001 
-2.167224e-001 
-2.025954e-001 
-1.892833e-001 
-1.747912e-001 
-1.650920e-001 
-1.574285e-001 
-1.438621e-001 
-1.350942e-001 
-1.246749e-001 
-1.135723e-001 
-1.079748e-001 
-1.038231e-001 
-1.033133e-001 
-1.008626e-001 
-9.873479e-002 
-1.000392e-001 
-9.934730e-002 
-9.288678e-002 
-9.467880e-002 
-9.759204e-002 
-1.007285e-001 
-1.013250e-001 
-1.016490e-001 
-1.025595e-001 
-9.470958e-002 
-8.337808e-002 
-7.760976e-002 
-7.400615e-002 
-6.704839e-002 
-6.254996e-002 
-5.775232e-002 
-5.434815e-002 
-4.633895e-002 
-3.894027e-002 
-3.570178e-002 
-3.374322e-002 
-3.247865e-002 
-2.596713e-002 
-1.583530e-002 
-8.337366e-003 
1.911004e-003 
1.786065e-002 
3.574082e-002 
4.879963e-002 
5.428750e-002 
6.587062e-002 
7.679783e-002 
7.484636e-002 
6.957786e-002 
6.904693e-002 
7.100534e-002 
6.875485e-002 
5.392200e-002 
4.085109e-002 
5.710489e-002 
1.379493e-001 
3.183185e-001 
5.474827e-001 
6.544273e-001 
6.037434e-001 
5.120429e-001 
4.390154e-001 
4.072654e-001 
4.526874e-001 
5.737898e-001 
7.033781e-001 
6.747457e-001 
4.299226e-001 
2.279330e-001 
1.976395e-001 
2.281670e-001 
2.526834e-001 
2.534331e-001 
1.832189e-001 
1.615923e-002 
-2.285563e-001 
-4.135065e-001 
-4.237637e-001 
-3.532286e-001 
-2.969969e-001 
-2.622435e-001 
-2.391033e-001 
-2.241247e-001 
-2.089572e-001 
-1.957173e-001 
-1.838026e-001 
-1.713775e-001 
-1.579009e-001 
-1.443670e-001 
-1.316461e-001 
-1.197062e-001 
-1.060819e-001 
-9.219662e-002 
-8.094012e-002 
-7.317821e-002 
-6.725831e-002 
-5.864461e-002 
-5.322411e-002 
-4.655340e-002 
-3.811325e-002 
-3.274413e-002 
-3.663337e-002 
-4.708352e-002 
-5.247265e-002 
-5.063223e-002 
-4.953637e-002 
-5.066814e-002 
-5.113660e-002 
-5.526904e-002 
-6.420916e-002 
-8.147903e-002 
-8.871114e-002 
-7.908494e-002 
-7.206608e-002 
-6.972749e-002 
-6.627601e-002 
-7.291640e-002 
-8.208020e-002 
-8.302022e-002 
-7.834647e-002 
-5.788281e-002 
-3.673624e-002 
-2.853211e-002 
-2.295454e-002 
-2.605902e-002 
-3.870788e-002 
-3.576700e-002 
-1.811475e-002 
-7.402891e-004 
1.449653e-002 
2.400350e-002 
3.078064e-002 
3.605048e-002 
4.157356e-002 
6.017577e-002 
9.041803e-002 
1.140989e-001 
1.172886e-001 
1.127645e-001 
1.090685e-001 
9.988229e-002 
9.188193e-002 
9.560097e-002 
9.130401e-002 
9.815193e-002 
1.753222e-001 
3.567745e-001 
6.112492e-001 
7.599561e-001 
7.275474e-001 
6.369874e-001 
5.572485e-001 
4.962749e-001 
5.198808e-001 
6.397424e-001 
7.845962e-001 
7.854878e-001 
5.431962e-001 
2.949201e-001 
2.278282e-001 
2.510261e-001 
2.793182e-001 
2.917475e-001 
2.319131e-001 
6.100080e-002 
-2.053917e-001 
-4.289784e-001 
-4.741390e-001 
-4.055807e-001 
-3.356208e-001 
-2.906674e-001 
-2.600411e-001 
-2.400002e-001 
-2.242531e-001 
-2.073300e-001 
-1.921187e-001 
-1.769036e-001 
-1.562222e-001 
-1.342491e-001 
-1.101454e-001 
-8.634597e-002 
-6.584372e-002 
-4.645724e-002 
-2.711543e-002 
-9.735862e-003 
6.295860e-003 
2.310837e-002 
3.777577e-002 
5.149652e-002 
6.180552e-002 
6.666108e-002 
7.091491e-002 
7.618517e-002 
7.490360e-002 
7.278823e-002 
7.181232e-002 
7.067261e-002 
6.847795e-002 
5.914524e-002 
4.679255e-002 
4.243400e-002 
3.722133e-002 
3.140420e-002 
3.071920e-002 
3.046516e-002 
3.237148e-002 
3.059885e-002 
2.876546e-002 
3.530363e-002 
4.348871e-002 
4.500682e-002 
4.552383e-002 
4.487806e-002 
4.415751e-002 
4.344824e-002 
4.407669e-002 
5.151516e-002 
5.913200e-002 
6.393579e-002 
6.847626e-002 
7.434595e-002 
8.272923e-002 
9.150541e-002 
9.760649e-002 
1.056913e-001 
1.146884e-001 
1.145702e-001 
1.098072e-001 
1.026436e-001 
9.337686e-002 
8.610080e-002 
7.777992e-002 
6.441516e-002 
5.648411e-002 
8.843700e-002 
1.969885e-001 
4.030007e-001 
6.155395e-001 
6.799672e-001 
6.081991e-001 
5.142595e-001 
4.428673e-001 
4.255509e-001 
4.925419e-001 
6.213209e-001 
7.247003e-001 
6.257059e-001 
3.574069e-001 
1.843433e-001 
1.700999e-001 
2.006635e-001 
2.237035e-001 
2.032496e-001 
9.924352e-002 
-1.067146e-001 
-3.666477e-001 
-5.156653e-001 
-5.004829e-001 
-4.282296e-001 
-3.740243e-001 
-3.440947e-001 
-3.279637e-001 
-3.133871e-001 
-2.995118e-001 
-2.841610e-001 
-2.702942e-001 
-2.549142e-001 
-2.365339e-001 
-2.193986e-001 
-2.047626e-001 
-1.883154e-001 
-1.681010e-001 
-1.493365e-001 
-1.293526e-001 
-1.129442e-001 
-1.002707e-001 
-9.368299e-002 
-8.883832e-002 
-8.686545e-002 
-8.136449e-002 
-7.656006e-002 
-7.436459e-002 
-7.421052e-002 
-8.509693e-002 
-9.732182e-002 
-1.057394e-001 
-1.146647e-001 
-1.248392e-001 
-1.318405e-001 
-1.417729e-001 
-1.499517e-001 
-1.599795e-001 
-1.703625e-001 
-1.701029e-001 
-1.697095e-001 
-1.730944e-001 
-1.700867e-001 
-1.629288e-001 
-1.564530e-001 
-1.493559e-001 
-1.469756e-001 
-1.436987e-001 
-1.395759e-001 
-1.414758e-001 
-1.392689e-001 
-1.297432e-001 
-1.244462e-001 
-1.204809e-001 
-1.202056e-001 
-1.233867e-001 
-1.230779e-001 
-1.204024e-001 
-1.140258e-001 
-1.034780e-001 
-9.110640e-002 
-7.730483e-002 
-5.964399e-002 
-4.877740e-002 
-4.030917e-002 
-2.642014e-002 
-1.434241e-002 
-1.118920e-002 
-1.118363e-002 
-1.074137e-002 
-1.214692e-002 
-1.747940e-002 
-3.521136e-002 
-4.589056e-002 
-1.287836e-002 
9.490284e-002 
3.032852e-001 
5.208489e-001 
5.781095e-001 
4.973972e-001 
3.987963e-001 
3.260357e-001 
3.093344e-001 
3.698437e-001 
4.993948e-001 
6.074811e-001 
5.006035e-001 
2.244871e-001 
5.628520e-002 
4.826791e-002 
8.366907e-002 
1.030197e-001 
8.045752e-002 
-1.549031e-002 
-2.190475e-001 
-4.770721e-001 
-6.170513e-001 
-5.925301e-001 
-5.147509e-001 
-4.594527e-001 
-4.316765e-001 
-4.109565e-001 
-3.899802e-001 
-3.725181e-001 
-3.513165e-001 
-3.313287e-001 
-3.141008e-001 
-2.958231e-001 
-2.775948e-001 
-2.588515e-001 
-2.358487e-001 
-2.121171e-001 
-1.938520e-001 
-1.797816e-001 
-1.679354e-001 
-1.587549e-001 
-1.509858e-001 
-1.420853e-001 
-1.367237e-001 
-1.328463e-001 
-1.326789e-001 
-1.377026e-001 
-1.443672e-001 
-1.499226e-001 
-1.583058e-001 
-1.661237e-001 
-1.765228e-001 
-1.892287e-001 
-1.998367e-001 
-2.087902e-001 
-2.174608e-001 
-2.260719e-001 
-2.294663e-001 
-2.332072e-001 
-2.374399e-001 
-2.385917e-001 
-2.354760e-001 
-2.292323e-001 
-2.218580e-001 
-2.188643e-001 
-2.144126e-001 
-2.066080e-001 
-2.030350e-001 
-1.975948e-001 
-1.910853e-001 
-1.852556e-001 
-1.795306e-001 
-1.776485e-001 
-1.780238e-001 
-1.758127e-001 
-1.745084e-001 
-1.742281e-001 
-1.732854e-001 
-1.684992e-001 
-1.594942e-001 
-1.506834e-001 
-1.406199e-001 
-1.271831e-001 
-1.107523e-001 
-9.446766e-002 
-8.184590e-002 
-6.826240e-002 
-5.156658e-002 
-4.244241e-002 
-3.695469e-002 
-3.229111e-002 
-2.973295e-002 
-2.893102e-002 
-3.187254e-002 
-3.961762e-002 
-3.250701e-002 
2.305722e-002 
1.511023e-001 
3.469974e-001 
5.045527e-001 
5.196515e-001 
4.451254e-001 
3.687145e-001 
3.168859e-001 
3.266152e-001 
4.081460e-001 
5.196239e-001 
5.618581e-001 
4.215257e-001 
1.976178e-001 
9.230893e-002 
9.613706e-002 
1.186869e-001 
1.322526e-001 
9.487858e-002 
-2.950175e-002 
-2.309745e-001 
-4.353217e-001 
-5.220107e-001 
-4.867633e-001 
-4.276669e-001 
-3.834122e-001 
-3.533892e-001 
-3.389173e-001 
-3.272885e-001 
-3.069385e-001 
-2.855966e-001 
-2.648382e-001 
-2.447110e-001 
-2.258346e-001 
-2.082854e-001 
-1.925888e-001 
-1.735974e-001 
-1.492713e-001 
-1.232541e-001 
-9.960361e-002 
-8.180364e-002 
-7.060619e-002 
-6.618813e-002 
-6.092212e-002 
-4.802998e-002 
-3.544799e-002 
-3.042566e-002 
-3.006376e-002 
-3.481688e-002 
-4.493865e-002 
-5.543057e-002 
-6.366204e-002 
-6.348428e-002 
-6.450601e-002 
-7.377211e-002 
-8.605652e-002 
-9.636569e-002 
-1.055949e-001 
-1.135800e-001 
-1.172429e-001 
-1.217574e-001 
-1.252493e-001 
-1.308455e-001 
-1.323046e-001 
-1.264882e-001 
-1.179278e-001 
-1.078280e-001 
-9.655510e-002 
-8.839402e-002 
-8.482836e-002 
-7.839125e-002 
-7.508199e-002 
-6.530478e-002 
-5.152170e-002 
-4.256873e-002 
-3.780237e-002 
-3.431441e-002 
-3.372109e-002 
-2.802101e-002 
-1.882973e-002 
-9.020474e-003 
8.223930e-003 
2.414251e-002 
3.352045e-002 
3.860751e-002 
4.064620e-002 
4.230401e-002 
4.389000e-002 
3.809359e-002 
2.994721e-002 
1.956675e-002 
1.029954e-002 
-1.810608e-003 
-2.078470e-002 
-3.804756e-002 
-2.036126e-002 
7.062823e-002 
2.688825e-001 
5.115268e-001 
6.281088e-001 
5.688782e-001 
4.559353e-001 
3.737392e-001 
3.435469e-001 
3.940779e-001 
5.233304e-001 
6.590716e-001 
6.191617e-001 
3.515370e-001 
1.117558e-001 
7.333426e-002 
1.167179e-001 
1.458201e-001 
1.380888e-001 
5.255657e-002 
-1.435351e-001 
-4.177179e-001 
-6.180041e-001 
-6.267951e-001 
-5.324320e-001 
-4.607242e-001 
-4.192985e-001 
-3.933500e-001 
-3.742938e-001 
-3.540607e-001 
-3.284961e-001 
-3.014450e-001 
-2.758833e-001 
-2.545833e-001 
-2.321545e-001 
-2.062131e-001 
-1.838826e-001 
-1.592809e-001 
-1.332347e-001 
-1.109129e-001 
-9.207691e-002 
-7.955688e-002 
-6.982174e-002 
-5.600500e-002 
-4.744019e-002 
-4.207291e-002 
-3.552100e-002 
-3.333013e-002 
-3.435560e-002 
-3.621823e-002 
-4.051914e-002 
-4.531245e-002 
-5.137686e-002 
-5.965424e-002 
-6.864265e-002 
-7.868049e-002 
-8.637955e-002 
-9.400451e-002 
-1.007264e-001 
-1.057799e-001 
-1.083940e-001 
-1.073383e-001 
-1.051405e-001 
-1.028212e-001 
-9.863007e-002 
-9.500665e-002 
-9.127685e-002 
-8.764900e-002 
-8.347200e-002 
-7.714910e-002 
-7.345333e-002 
-7.150123e-002 
-6.750282e-002 
-6.613099e-002 
-6.386947e-002 
-6.015820e-002 
-5.951556e-002 
-5.660572e-002 
-5.703122e-002 
-6.194566e-002 
-6.262636e-002 
-5.989906e-002 
-5.427248e-002 
-4.249668e-002 
-3.365786e-002 
-2.392798e-002 
-8.890632e-003 
9.235317e-003 
2.733747e-002 
4.193215e-002 
5.999591e-002 
7.759967e-002 
8.087531e-002 
7.792700e-002 
7.899412e-002 
8.165451e-002 
8.071227e-002 
6.884268e-002 
5.632709e-002 
7.611817e-002 
1.546582e-001 
3.201874e-001 
5.653117e-001 
7.316294e-001 
7.090018e-001 
6.007090e-001 
5.113847e-001 
4.700226e-001 
5.063368e-001 
6.097592e-001 
7.399578e-001 
7.657264e-001 
5.459860e-001 
2.746544e-001 
1.886644e-001 
2.199062e-001 
2.538994e-001 
2.525871e-001 
1.779375e-001 
1.289541e-002 
-2.428292e-001 
-4.855468e-001 
-5.486862e-001 
-4.773432e-001 
-4.009125e-001 
-3.579714e-001 
-3.400694e-001 
-3.280418e-001 
-3.123560e-001 
-2.990698e-001 
-2.824752e-001 
-2.587605e-001 
-2.402545e-001 
-2.241185e-001 
-2.108146e-001 
-1.972464e-001 
-1.765379e-001 
-1.541805e-001 
-1.344142e-001 
-1.123439e-001 
-9.684691e-002 
-9.007340e-002 
-8.283879e-002 
-7.310949e-002 
-6.223940e-002 
-5.310137e-002 
-4.796883e-002 
-4.320290e-002 
-4.396255e-002 
-4.972508e-002 
-5.601750e-002 
-5.817971e-002 
-5.666617e-002 
-6.029286e-002 
-6.509035e-002 
-6.726245e-002 
-7.251058e-002 
-8.002065e-002 
-8.489077e-002 
-8.796646e-002 
-8.100523e-002 
-7.609976e-002 
-7.403108e-002 
-6.746671e-002 
-6.424998e-002 
-6.357222e-002 
-6.118323e-002 
-5.950754e-002 
-5.446357e-002 
-4.828223e-002 
-4.951613e-002 
-4.750116e-002 
-4.952720e-002 
-5.319797e-002 
-5.349517e-002 
-5.470849e-002 
-5.644712e-002 
-5.821406e-002 
-6.150753e-002 
-6.384029e-002 
-6.825276e-002 
-7.617434e-002 
-7.821302e-002 
-7.614275e-002 
-7.135495e-002 
-6.540516e-002 
-5.648073e-002 
-4.245608e-002 
-2.505477e-002 
-9.811895e-003 
3.419409e-003 
1.967234e-002 
3.548759e-002 
4.078547e-002 
4.135141e-002 
4.109458e-002 
4.052681e-002 
4.135949e-002 
3.527549e-002 
2.109442e-002 
2.540631e-002 
8.789513e-002 
2.377531e-001 
4.735504e-001 
6.703914e-001 
6.968385e-001 
6.046167e-001 
5.003968e-001 
4.313290e-001 
4.426273e-001 
5.394201e-001 
6.709892e-001 
7.297551e-001 
5.687380e-001 
2.906334e-001 
1.498561e-001 
1.545080e-001 
1.912287e-001 
2.110454e-001 
1.641934e-001 
1.639955e-002 
-2.219196e-001 
-4.751728e-001 
-5.872186e-001 
-5.408146e-001 
-4.606356e-001 
-4.055145e-001 
-3.725703e-001 
-3.544505e-001 
-3.395815e-001 
-3.209438e-001 
-3.043433e-001 
-2.874942e-001 
-2.735391e-001 
-2.582300e-001 
-2.393806e-001 
-2.214842e-001 
-2.043855e-001 
-1.876531e-001 
-1.709109e-001 
-1.546048e-001 
-1.408754e-001 
-1.300914e-001 
-1.161607e-001 
-1.042199e-001 
-9.503898e-002 
-8.766833e-002 
-8.220744e-002 
-7.741077e-002 
-7.408336e-002 
-7.188821e-002 
-7.089824e-002 
-6.884550e-002 
-6.760092e-002 
-6.742132e-002 
-6.764950e-002 
-6.777300e-002 
-6.870665e-002 
-6.766407e-002 
-6.735068e-002 
-6.802800e-002 
-6.354202e-002 
-5.728715e-002 
-5.153069e-002 
-4.509229e-002 
-3.904778e-002 
-3.310391e-002 
-2.722537e-002 
-2.340037e-002 
-1.740227e-002 
-1.119486e-002 
-7.046516e-003 
-3.853976e-003 
-1.053360e-003 
2.107717e-003 
4.706755e-003 
4.730403e-003 
5.667449e-003 
5.647890e-003 
6.108429e-003 
1.391350e-002 
2.234298e-002 
3.362967e-002 
4.864596e-002 
6.640034e-002 
8.403203e-002 
9.640897e-002 
1.070348e-001 
1.191052e-001 
1.245564e-001 
1.238021e-001 
1.225293e-001 
1.215183e-001 
1.220803e-001 
1.117512e-001 
9.416933e-002 
1.104352e-001 
1.992742e-001 
3.864256e-001 
6.353658e-001 
7.790507e-001 
7.393250e-001 
6.317197e-001 
5.428496e-001 
5.022249e-001 
5.480987e-001 
6.698462e-001 
8.068834e-001 
8.033184e-001 
5.606538e-001 
3.078237e-001 
2.484325e-001 
2.870668e-001 
3.189293e-001 
3.197368e-001 
2.445679e-001 
6.482580e-002 
-2.008853e-001 
-4.217550e-001 
-4.596957e-001 
-3.815266e-001 
-3.134385e-001 
-2.742998e-001 
-2.492992e-001 
-2.368143e-001 
-2.255111e-001 
-2.105235e-001 
-1.948495e-001 
-1.812698e-001 
-1.674773e-001 
-1.511229e-001 
-1.337712e-001 
-1.241008e-001 
-1.134160e-001 
-9.695322e-002 
-8.174795e-002 
-6.694210e-002 
-5.347004e-002 
-3.935700e-002 
-2.803274e-002 
-2.452998e-002 
-2.229980e-002 
-1.506650e-002 
-1.099426e-002 
-8.059091e-003 
-5.591065e-003 
-3.307948e-003 
-3.367917e-003 
-8.023297e-003 
-1.104383e-002 
-1.161365e-002 
-1.228655e-002 
-1.291080e-002 
-1.373273e-002 
-1.289888e-002 
-1.329813e-002 
-1.729797e-002 
-1.608829e-002 
-1.224147e-002 
-8.310433e-003 
-5.290302e-004 
5.806283e-003 
1.180977e-002 
1.841167e-002 
1.828590e-002 
1.935816e-002 
2.254925e-002 
2.309426e-002 
2.495145e-002 
2.637153e-002 
2.512666e-002 
2.560731e-002 
2.356057e-002 
1.731878e-002 
1.207388e-002 
6.733409e-003 
3.608670e-003 
5.543045e-003 
1.216421e-002 
1.967625e-002 
2.905767e-002 
4.081603e-002 
5.681594e-002 
7.286772e-002 
8.616044e-002 
1.013716e-001 
1.156608e-001 
1.208595e-001 
1.187616e-001 
1.156649e-001 
1.144328e-001 
1.134436e-001 
1.008528e-001 
8.960085e-002 
1.191374e-001 
2.230059e-001 
4.207468e-001 
6.607908e-001 
7.776205e-001 
7.219748e-001 
6.121788e-001 
5.271346e-001 
5.017882e-001 
5.609748e-001 
6.838310e-001 
8.050112e-001 
7.669944e-001 
5.074130e-001 
2.757786e-001 
2.341244e-001 
2.769843e-001 
3.088796e-001 
2.958547e-001 
2.008379e-001 
6.110435e-003 
-2.630637e-001 
-4.642625e-001 
-4.798158e-001 
-3.976947e-001 
-3.325296e-001 
-2.986915e-001 
-2.800212e-001 
-2.680567e-001 
-2.562635e-001 
-2.418813e-001 
-2.259317e-001 
-2.124703e-001 
-2.003911e-001 
-1.878371e-001 
-1.737382e-001 
-1.604844e-001 
-1.455967e-001 
-1.289549e-001 
-1.130756e-001 
-9.869060e-002 
-8.475486e-002 
-7.398315e-002 
-6.602541e-002 
-5.883892e-002 
-5.147839e-002 
-4.321691e-002 
-3.797888e-002 
-3.300375e-002 
-2.842756e-002 
-2.790747e-002 
-2.980753e-002 
-3.192612e-002 
-3.228659e-002 
-2.985922e-002 
-2.950873e-002 
-3.030044e-002 
-3.109677e-002 
-3.570078e-002 
-4.017615e-002 
-4.114933e-002 
-3.947595e-002 
-3.138620e-002 
-2.418478e-002 
-1.948142e-002 
-1.376236e-002 
-1.394762e-002 
-1.609154e-002 
-1.454036e-002 
-1.127803e-002 
-5.651769e-003 
6.297362e-005 
1.103557e-003 
1.377141e-003 
-2.993535e-003 
-8.982657e-003 
-1.309974e-002 
-1.585419e-002 
-1.634430e-002 
-1.781848e-002 
-1.986246e-002 
-1.916814e-002 
-1.926521e-002 
-1.575003e-002 
-6.873577e-003 
5.281788e-003 
2.625797e-002 
4.372798e-002 
5.528011e-002 
6.742835e-002 
7.178577e-002 
6.993836e-002 
6.719705e-002 
6.320800e-002 
6.538243e-002 
6.543198e-002 
5.013744e-002 
5.456595e-002 
1.231908e-001 
2.791000e-001 
5.080907e-001 
6.931882e-001 
7.196866e-001 
6.337814e-001 
5.348607e-001 
4.682754e-001 
4.836133e-001 
5.817868e-001 
7.070110e-001 
7.502405e-001 
5.913547e-001 
3.288698e-001 
1.957208e-001 
2.008149e-001 
2.344305e-001 
2.486924e-001 
1.959540e-001 
4.524076e-002 
-1.932517e-001 
-4.382666e-001 
-5.456604e-001 
-5.018277e-001 
-4.272671e-001 
-3.768409e-001 
-3.489546e-001 
-3.346322e-001 
-3.242936e-001 
-3.125330e-001 
-2.969407e-001 
-2.811180e-001 
-2.707638e-001 
-2.606831e-001 
-2.490229e-001 
-2.404971e-001 
-2.311652e-001 
-2.174277e-001 
-2.032111e-001 
-1.901819e-001 
-1.808800e-001 
-1.706221e-001 
-1.605658e-001 
-1.551634e-001 
-1.511341e-001 
-1.434461e-001 
-1.368943e-001 
-1.382116e-001 
-1.368102e-001 
-1.320789e-001 
-1.310950e-001 
-1.351575e-001 
-1.364233e-001 
-1.332525e-001 
-1.281738e-001 
-1.300586e-001 
-1.360273e-001 
-1.292955e-001 
-1.247220e-001 
-1.282331e-001 
-1.271087e-001 
-1.180900e-001 
-1.085975e-001 
-1.025819e-001 
-1.032650e-001 
-9.688268e-002 
-8.163228e-002 
-7.720148e-002 
-7.620739e-002 
-6.991204e-002 
-6.230173e-002 
-6.197137e-002 
-6.564376e-002 
-6.863993e-002 
-6.784476e-002 
-6.800978e-002 
-6.954175e-002 
-6.804790e-002 
-5.900632e-002 
-4.842041e-002 
-4.457452e-002 
-3.735663e-002 
-2.197165e-002 
-2.876053e-003 
1.639898e-002 
3.365543e-002 
4.825344e-002 
5.886764e-002 
5.982537e-002 
5.462290e-002 
5.372874e-002 
5.847316e-002 
5.758608e-002 
4.670164e-002 
4.487512e-002 
9.298680e-002 
2.199127e-001 
4.352738e-001 
6.460635e-001 
7.077403e-001 
6.314471e-001 
5.276438e-001 
4.559647e-001 
4.563106e-001 
5.384386e-001 
6.626769e-001 
7.481854e-001 
6.399104e-001 
3.717594e-001 
1.978854e-001 
1.886101e-001 
2.305311e-001 
2.543672e-001 
2.191318e-001 
9.518240e-002 
-1.211691e-001 
-3.756995e-001 
-5.205696e-001 
-4.951503e-001 
-4.101558e-001 
-3.527584e-001 
-3.245359e-001 
-3.073120e-001 
-2.941361e-001 
-2.795895e-001 
-2.618055e-001 
-2.438471e-001 
-2.271649e-001 
-2.154937e-001 
-2.052612e-001 
-1.964283e-001 
-1.834233e-001 
-1.678207e-001 
-1.514032e-001 
-1.327366e-001 
-1.170359e-001 
-1.095324e-001 
-1.032093e-001 
-9.447790e-002 
-8.466177e-002 
-7.155737e-002 
-6.508716e-002 
-5.882636e-002 
-5.232654e-002 
-5.414631e-002 
-5.771129e-002 
-5.523370e-002 
-5.095374e-002 
-4.675913e-002 
-4.882259e-002 
-5.240521e-002 
-4.797201e-002 
-4.849504e-002 
-4.987092e-002 
-4.920241e-002 
-4.796997e-002 
-4.391426e-002 
-4.125239e-002 
-4.123197e-002 
-3.112935e-002 
-2.285829e-002 
-2.333352e-002 
-2.107232e-002 
-1.929444e-002 
-1.536495e-002 
-1.126269e-002 
-1.146124e-002 
-1.179385e-002 
-1.055503e-002 
-2.024430e-002 
-2.974448e-002 
-2.795157e-002 
-2.249111e-002 
-1.745257e-002 
-1.107174e-002 
-3.529800e-003 
8.959769e-003 
2.410180e-002 
3.270878e-002 
4.600069e-002 
6.511343e-002 
7.167864e-002 
6.883885e-002 
6.362134e-002 
5.930453e-002 
5.997200e-002 
5.447253e-002 
3.782391e-002 
3.838282e-002 
9.352148e-002 
2.257753e-001 
4.470008e-001 
6.596409e-001 
7.123091e-001 
6.228605e-001 
5.126700e-001 
4.372443e-001 
4.375153e-001 
5.231208e-001 
6.507558e-001 
7.331982e-001 
6.102807e-001 
3.269105e-001 
1.559639e-001 
1.514716e-001 
1.894719e-001 
2.139536e-001 
1.792695e-001 
4.778262e-002 
-1.797245e-001 
-4.413277e-001 
-5.814496e-001 
-5.484288e-001 
-4.645348e-001 
-4.034226e-001 
-3.672217e-001 
-3.493435e-001 
-3.388036e-001 
-3.238389e-001 
-3.074678e-001 
-2.946407e-001 
-2.804408e-001 
-2.645492e-001 
-2.493610e-001 
-2.375342e-001 
-2.249038e-001 
-2.122323e-001 
-1.963719e-001 
-1.822790e-001 
-1.705290e-001 
-1.562483e-001 
-1.447755e-001 
-1.376485e-001 
-1.297355e-001 
-1.230006e-001 
-1.184644e-001 
-1.124274e-001 
-1.110134e-001 
-1.100378e-001 
-1.085634e-001 
-1.098941e-001 
-1.109620e-001 
-1.109719e-001 
-1.123346e-001 
-1.127887e-001 
-1.134709e-001 
-1.142064e-001 
-1.128479e-001 
-1.136594e-001 
-1.132416e-001 
-1.105159e-001 
-1.064247e-001 
-1.007705e-001 
-9.535749e-002 
-8.828489e-002 
-8.055000e-002 
-7.706895e-002 
-7.561387e-002 
-7.300059e-002 
-7.058721e-002 
-6.975976e-002 
-7.068059e-002 
-7.240429e-002 
-7.320796e-002 
-7.822965e-002 
-7.927770e-002 
-7.549199e-002 
-6.977129e-002 
-6.234542e-002 
-5.306841e-002 
-3.788436e-002 
-2.525474e-002 
-1.847450e-002 
-1.149794e-002 
-2.469877e-003 
-3.003961e-003 
-6.238318e-003 
-1.331496e-002 
-1.746374e-002 
-2.043288e-002 
-3.686518e-002 
-4.856704e-002 
-1.235054e-002 
1.070155e-001 
3.281800e-001 
5.610494e-001 
6.297236e-001 
5.486438e-001 
4.434345e-001 
3.665975e-001 
3.487261e-001 
4.162321e-001 
5.509861e-001 
6.607926e-001 
5.598296e-001 
2.691081e-001 
7.731563e-002 
6.542132e-002 
1.023544e-001 
1.228004e-001 
9.886021e-002 
-1.205205e-002 
-2.286135e-001 
-5.009328e-001 
-6.660703e-001 
-6.507721e-001 
-5.683531e-001 
-5.085525e-001 
-4.731421e-001 
-4.524940e-001 
-4.359752e-001 
-4.164650e-001 
-4.026224e-001 
-3.938975e-001 
-3.797064e-001 
-3.618631e-001 
-3.454562e-001 
-3.295041e-001 
-3.166577e-001 
-3.017661e-001 
-2.883074e-001 
-2.769234e-001 
-2.609474e-001 
-2.425463e-001 
-2.300912e-001 
-2.177968e-001 
-2.043119e-001 
-1.939477e-001 
-1.844382e-001 
-1.764184e-001 
-1.680165e-001 
-1.611106e-001 
-1.588600e-001 
-1.572605e-001 
-1.495494e-001 
-1.444509e-001 
-1.423699e-001 
-1.390417e-001 
-1.358346e-001 
-1.330089e-001 
-1.318563e-001 
-1.296062e-001 
-1.202452e-001 
-1.102925e-001 
-1.062875e-001 
-9.848523e-002 
-8.849465e-002 
-8.038345e-002 
-7.371659e-002 
-6.791011e-002 
-5.840048e-002 
-4.826020e-002 
-4.494269e-002 
-4.240107e-002 
-3.804961e-002 
-3.127183e-002 
-2.403667e-002 
-1.666182e-002 
-5.070085e-003 
8.734617e-003 
2.576915e-002 
4.111272e-002 
5.020751e-002 
6.246570e-002 
7.129422e-002 
6.942273e-002 
7.292440e-002 
7.418521e-002 
7.437588e-002 
7.453228e-002 
6.158526e-002 
4.440750e-002 
4.912372e-002 
1.146374e-001 
2.792610e-001 
5.206712e-001 
6.959503e-001 
6.930511e-001 
5.920815e-001 
5.005110e-001 
4.474204e-001 
4.733780e-001 
5.840443e-001 
7.187425e-001 
7.572943e-001 
5.682020e-001 
2.976412e-001 
1.961358e-001 
2.187975e-001 
2.515573e-001 
2.653168e-001 
2.092270e-001 
5.252748e-002 
-1.906676e-001 
-4.309842e-001 
-5.154817e-001 
-4.576157e-001 
-3.877400e-001 
-3.427565e-001 
-3.157050e-001 
-3.034688e-001 
-2.951750e-001 
-2.808516e-001 
-2.671572e-001 
-2.564138e-001 
-2.447814e-001 
-2.324444e-001 
-2.194349e-001 
-2.107905e-001 
-2.031500e-001 
-1.892154e-001 
-1.738139e-001 
-1.618843e-001 
-1.515997e-001 
-1.384312e-001 
-1.266272e-001 
-1.207629e-001 
-1.133892e-001 
-1.026429e-001 
-9.499847e-002 
-9.012996e-002 
-8.728779e-002 
-8.431219e-002 
-8.018161e-002 
-8.100773e-002 
-7.769785e-002 
-7.021311e-002 
-6.843650e-002 
-6.789622e-002 
-6.545090e-002 
-6.381033e-002 
-6.045287e-002 
-5.894023e-002 
-5.541730e-002 
-4.648575e-002 
-4.142599e-002 
-3.641038e-002 
-2.918285e-002 
-2.281559e-002 
-1.662221e-002 
-1.153800e-002 
-8.682801e-003 
-4.885173e-003 
-4.668727e-003 
-5.963089e-003 
-6.306541e-003 
-8.176354e-003 
-4.560510e-003 
2.292816e-003 
7.998459e-003 
1.441622e-002 
2.437167e-002 
3.988034e-002 
5.305620e-002 
6.050763e-002 
7.066304e-002 
8.142324e-002 
8.367308e-002 
7.973352e-002 
7.568997e-002 
7.728339e-002 
7.637637e-002 
6.213344e-002 
5.186607e-002 
8.034918e-002 
1.820361e-001 
3.731876e-001 
5.974542e-001 
7.003057e-001 
6.455560e-001 
5.463964e-001 
4.694739e-001 
4.450323e-001 
5.025216e-001 
6.235329e-001 
7.354866e-001 
6.879213e-001 
4.372229e-001 
2.296366e-001 
1.954002e-001 
2.257968e-001 
2.502164e-001 
2.378194e-001 
1.452860e-001 
-4.334932e-002 
-2.989915e-001 
-4.831161e-001 
-4.914835e-001 
-4.191830e-001 
-3.600660e-001 
-3.250783e-001 
-3.055270e-001 
-2.913486e-001 
-2.779813e-001 
-2.634053e-001 
-2.474567e-001 
-2.341541e-001 
-2.213344e-001 
-2.065508e-001 
-1.944832e-001 
-1.817578e-001 
-1.683856e-001 
-1.521369e-001 
-1.349919e-001 
-1.235586e-001 
-1.134825e-001 
-1.022473e-001 
-9.441281e-002 
-8.840618e-002 
-8.225243e-002 
-7.439638e-002 
-6.481163e-002 
-6.386144e-002 
-6.711420e-002 
-6.830910e-002 
-7.004456e-002 
-7.105873e-002 
-7.133845e-002 
-6.912440e-002 
-6.496222e-002 
-6.689287e-002 
-7.213786e-002 
-7.455173e-002 
-7.409718e-002 
-7.234953e-002 
-6.872824e-002 
-6.245213e-002 
-5.599503e-002 
-5.302797e-002 
-5.095605e-002 
-4.658047e-002 
-4.322078e-002 
-4.019261e-002 
-3.896342e-002 
-3.571084e-002 
-3.483613e-002 
-3.858384e-002 
-4.311940e-002 
-4.820914e-002 
-5.098605e-002 
-5.109651e-002 
-4.935464e-002 
-4.566907e-002 
-3.837788e-002 
-2.960614e-002 
-1.819347e-002 
-1.126719e-002 
-4.025119e-003 
6.564383e-003 
9.122583e-003 
6.269589e-003 
1.432156e-003 
-2.139793e-003 
-4.259468e-003 
-1.063917e-002 
-2.303096e-002 
-2.469366e-002 
1.969345e-002 
1.449810e-001 
3.556851e-001 
5.608371e-001 
6.222618e-001 
5.502978e-001 
4.582960e-001 
3.932704e-001 
3.852337e-001 
4.624691e-001 
5.874689e-001 
6.661722e-001 
5.594569e-001 
3.004365e-001 
1.354050e-001 
1.231850e-001 
1.476172e-001 
1.619178e-001 
1.325115e-001 
1.173358e-002 
-1.989484e-001 
-4.456708e-001 
-5.871505e-001 
-5.650145e-001 
-4.958425e-001 
-4.453958e-001 
-4.097684e-001 
-3.889937e-001 
-3.738383e-001 
-3.537176e-001 
-3.386537e-001 
-3.249837e-001 
-3.142171e-001 
-3.084449e-001 
-2.948786e-001 
-2.828833e-001 
-2.713239e-001 
-2.545363e-001 
-2.401982e-001 
-2.308128e-001 
-2.208331e-001 
-2.116106e-001 
-2.027516e-001 
-1.941167e-001 
-1.878341e-001 
-1.773642e-001 
-1.711627e-001 
-1.712908e-001 
-1.702420e-001 
-1.657294e-001 
-1.630606e-001 
-1.634920e-001 
-1.586013e-001 
-1.509512e-001 
-1.455806e-001 
-1.445916e-001 
-1.426235e-001 
-1.383856e-001 
-1.381321e-001 
-1.399348e-001 
-1.333783e-001 
-1.213508e-001 
-1.099457e-001 
-9.796002e-002 
-8.589805e-002 
-7.224661e-002 
-6.370663e-002 
-5.841603e-002 
-4.876035e-002 
-4.281331e-002 
-4.049381e-002 
-3.339658e-002 
-2.640575e-002 
-1.996829e-002 
-9.851688e-003 
2.342608e-003 
2.349678e-002 
4.072024e-002 
5.042816e-002 
6.447986e-002 
7.781911e-002 
8.033775e-002 
7.709097e-002 
7.618522e-002 
7.738753e-002 
7.622354e-002 
6.747075e-002 
5.431394e-002 
5.306921e-002 
1.127253e-001 
2.671898e-001 
5.039624e-001 
6.689232e-001 
6.436255e-001 
5.403772e-001 
4.582325e-001 
4.019012e-001 
4.149226e-001 
5.195719e-001 
6.642388e-001 
7.038788e-001 
4.941462e-001 
2.332245e-001 
1.663632e-001 
2.036325e-001 
2.331922e-001 
2.462252e-001 
2.036815e-001 
6.496678e-002 
-1.726278e-001 
-3.980628e-001 
-4.488737e-001 
-3.735481e-001 
-3.077139e-001 
-2.702740e-001 
