74
1.9271
507.0946
5.9171
-9.439471e-003 
-2.442698e-002 
-3.797157e-002 
-5.247650e-002 
-6.783979e-002 
-8.339262e-002 
-9.979710e-002 
-1.155756e-001 
-1.387466e-001 
-1.716948e-001 
-1.936056e-001 
-2.110456e-001 
-2.336029e-001 
-2.560394e-001 
-2.773377e-001 
-2.995194e-001 
-3.212015e-001 
-3.454542e-001 
-3.600436e-001 
-3.640978e-001 
-3.738909e-001 
-3.847186e-001 
-3.900897e-001 
-3.940781e-001 
-3.989003e-001 
-4.032998e-001 
-4.053142e-001 
-4.026590e-001 
-4.044039e-001 
-4.063569e-001 
-4.012403e-001 
-3.887573e-001 
-3.775103e-001 
-3.634919e-001 
-3.444484e-001 
-3.244780e-001 
-3.116514e-001 
-3.062091e-001 
-3.011849e-001 
-2.952847e-001 
-2.893692e-001 
-2.874294e-001 
-2.798934e-001 
-2.754460e-001 
-2.792144e-001 
-2.875687e-001 
-2.940858e-001 
-3.045413e-001 
-2.978387e-001 
-2.554558e-001 
-2.139123e-001 
-2.011159e-001 
-1.756490e-001 
-1.569105e-001 
-2.261547e-001 
-3.224562e-001 
-3.743052e-001 
-3.590616e-001 
-3.140997e-001 
-3.065301e-001 
-2.883240e-001 
-2.243367e-001 
-2.528639e-001 
-3.362385e-001 
-2.960743e-001 
-1.923074e-001 
-1.035858e-001 
-4.162518e-002 
-2.170970e-003 
4.176876e-002 
7.970715e-002 
1.086652e-001 
2.196908e-001 
4.032541e-001 
5.678933e-001 
7.125604e-001 
8.418709e-001 
9.508410e-001 
1.048877e+000 
1.152555e+000 
1.254234e+000 
1.347808e+000 
1.433813e+000 
1.502990e+000 
1.547134e+000 
1.567377e+000 
1.567085e+000 
1.544568e+000 
1.500155e+000 
1.434282e+000 
1.353061e+000 
1.255710e+000 
1.135580e+000 
1.000753e+000 
8.593470e-001 
7.134216e-001 
5.640192e-001 
4.168430e-001 
2.791946e-001 
1.517602e-001 
2.999395e-002 
-7.768141e-002 
-1.617955e-001 
-2.254351e-001 
-2.706903e-001 
-3.010501e-001 
-3.145683e-001 
-3.177522e-001 
-3.226703e-001 
-3.276178e-001 
-3.257348e-001 
-3.211545e-001 
-3.189767e-001 
-3.196972e-001 
-3.199783e-001 
-3.181987e-001 
-3.235780e-001 
-3.323612e-001 
-3.380755e-001 
-3.414060e-001 
-3.468398e-001 
-3.565805e-001 
-3.656074e-001 
-3.716997e-001 
-3.804325e-001 
-3.914358e-001 
-3.976611e-001 
-4.019362e-001 
-4.048267e-001 
-4.099654e-001 
-4.141652e-001 
-4.144864e-001 
-4.160248e-001 
-4.179881e-001 
-4.165006e-001 
-4.114772e-001 
-4.049965e-001 
-3.951168e-001 
-3.838503e-001 
-3.671455e-001 
-3.488752e-001 
-3.327921e-001 
-3.198091e-001 
-3.104517e-001 
-3.044929e-001 
-3.001222e-001 
-2.946275e-001 
-2.901309e-001 
-2.845346e-001 
-2.821156e-001 
-2.868244e-001 
-2.949405e-001 
-3.014511e-001 
-3.129657e-001 
-3.004723e-001 
-2.546376e-001 
-2.319394e-001 
-2.322153e-001 
-1.992557e-001 
-1.788064e-001 
-2.475147e-001 
-3.459936e-001 
-3.941714e-001 
-3.663342e-001 
-3.329058e-001 
-3.415872e-001 
-3.007254e-001 
-2.181273e-001 
-2.524894e-001 
-3.380262e-001 
-2.977113e-001 
-1.862099e-001 
-9.381018e-002 
-3.926392e-002 
5.167508e-003 
6.390915e-002 
9.855539e-002 
1.182049e-001 
2.288827e-001 
4.127245e-001 
5.738519e-001 
7.083669e-001 
8.263347e-001 
9.273435e-001 
1.021234e+000 
1.117348e+000 
1.215120e+000 
1.308312e+000 
1.386659e+000 
1.449049e+000 
1.493022e+000 
1.518634e+000 
1.522624e+000 
1.502232e+000 
1.464010e+000 
1.406266e+000 
1.325611e+000 
1.228083e+000 
1.115608e+000 
9.900195e-001 
8.579819e-001 
7.165390e-001 
5.738729e-001 
4.360596e-001 
2.985126e-001 
1.687928e-001 
5.271150e-002 
-4.886687e-002 
-1.320801e-001 
-1.977406e-001 
-2.453648e-001 
-2.742200e-001 
-2.941921e-001 
-3.070797e-001 
-3.110730e-001 
-3.110970e-001 
-3.104352e-001 
-3.113450e-001 
-3.105097e-001 
-3.082752e-001 
-3.118840e-001 
-3.178686e-001 
-3.210909e-001 
-3.238018e-001 
-3.277692e-001 
-3.339430e-001 
-3.392364e-001 
-3.423223e-001 
-3.493874e-001 
-3.571291e-001 
-3.605168e-001 
-3.633110e-001 
-3.665156e-001 
-3.690774e-001 
-3.711715e-001 
-3.718719e-001 
-3.715645e-001 
-3.712495e-001 
-3.674375e-001 
-3.624633e-001 
-3.588060e-001 
-3.552157e-001 
-3.486806e-001 
-3.414537e-001 
-3.315559e-001 
-3.191717e-001 
-3.043682e-001 
-2.858332e-001 
-2.691756e-001 
-2.590696e-001 
-2.526276e-001 
-2.469471e-001 
-2.450927e-001 
-2.438970e-001 
-2.431634e-001 
-2.403246e-001 
-2.413138e-001 
-2.498345e-001 
-2.613355e-001 
-2.715137e-001 
-2.860477e-001 
-2.788756e-001 
-2.380208e-001 
-2.133348e-001 
-2.121821e-001 
-1.836551e-001 
-1.877716e-001 
-2.767737e-001 
-3.706688e-001 
-4.124217e-001 
-3.843474e-001 
-3.460681e-001 
-3.508787e-001 
-3.157192e-001 
-2.546833e-001 
-3.124051e-001 
-3.729624e-001 
-3.064756e-001 
-2.010134e-001 
-1.140510e-001 
-6.037564e-002 
-2.504932e-002 
2.834216e-002 
6.476713e-002 
1.025397e-001 
2.360785e-001 
4.158618e-001 
5.684941e-001 
7.021002e-001 
8.173304e-001 
9.173695e-001 
1.014221e+000 
1.108196e+000 
1.198503e+000 
1.283446e+000 
1.356687e+000 
1.412757e+000 
1.447777e+000 
1.461903e+000 
1.453582e+000 
1.418994e+000 
1.364460e+000 
1.294393e+000 
1.207499e+000 
1.102504e+000 
9.815316e-001 
8.510702e-001 
7.136654e-001 
5.671422e-001 
4.205526e-001 
2.822296e-001 
1.513985e-001 
2.800161e-002 
-8.449670e-002 
-1.787221e-001 
-2.521922e-001 
-3.099796e-001 
-3.520145e-001 
-3.729477e-001 
-3.818324e-001 
-3.884321e-001 
-3.914545e-001 
-3.880544e-001 
-3.849949e-001 
-3.845272e-001 
-3.854546e-001 
-3.855679e-001 
-3.847158e-001 
-3.889442e-001 
-3.953172e-001 
-3.952224e-001 
-3.966472e-001 
-4.052534e-001 
-4.118577e-001 
-4.181359e-001 
-4.229143e-001 
-4.298117e-001 
-4.381146e-001 
-4.402957e-001 
-4.411394e-001 
-4.470579e-001 
-4.509273e-001 
-4.517847e-001 
-4.487951e-001 
-4.402812e-001 
-4.330542e-001 
-4.200476e-001 
-4.014101e-001 
-3.858541e-001 
-3.715343e-001 
-3.593762e-001 
-3.513902e-001 
-3.421074e-001 
-3.377622e-001 
-3.354557e-001 
-3.292932e-001 
-3.245937e-001 
-3.246841e-001 
-3.282077e-001 
-3.337638e-001 
-3.378043e-001 
-3.477442e-001 
-3.379995e-001 
-2.868214e-001 
-2.504276e-001 
-2.482446e-001 
-2.267069e-001 
-2.423393e-001 
-3.318692e-001 
-4.177583e-001 
-4.560140e-001 
-4.181829e-001 
-3.605733e-001 
-3.626931e-001 
-3.413600e-001 
-2.925871e-001 
-3.470683e-001 
-3.878124e-001 
-3.125092e-001 
-2.050513e-001 
-1.112526e-001 
-5.628990e-002 
-3.113843e-002 
2.126325e-002 
6.982935e-002 
1.283183e-001 
2.795995e-001 
4.675996e-001 
6.268481e-001 
7.653913e-001 
8.853056e-001 
9.890720e-001 
1.090722e+000 
1.187904e+000 
1.282348e+000 
1.368153e+000 
1.435255e+000 
1.478401e+000 
1.501557e+000 
1.503485e+000 
1.481156e+000 
1.436359e+000 
1.374968e+000 
1.298272e+000 
1.199510e+000 
1.081643e+000 
9.503189e-001 
8.120338e-001 
6.670023e-001 
5.210068e-001 
3.799292e-001 
2.444598e-001 
1.140455e-001 
-6.289472e-003 
-1.101241e-001 
-1.935426e-001 
-2.567764e-001 
-3.015654e-001 
-3.262846e-001 
-3.398477e-001 
-3.483521e-001 
-3.524384e-001 
-3.521322e-001 
-3.501201e-001 
-3.474634e-001 
-3.467630e-001 
-3.440132e-001 
-3.408187e-001 
-3.434449e-001 
-3.488952e-001 
-3.533523e-001 
-3.570200e-001 
-3.632627e-001 
-3.711500e-001 
-3.777635e-001 
-3.811551e-001 
-3.880824e-001 
-3.980751e-001 
-4.060345e-001 
-4.101966e-001 
-4.138260e-001 
-4.190631e-001 
-4.221384e-001 
-4.213976e-001 
-4.216710e-001 
-4.237122e-001 
-4.213346e-001 
-4.109625e-001 
-3.972249e-001 
-3.829519e-001 
-3.647053e-001 
-3.458641e-001 
-3.329523e-001 
-3.257233e-001 
-3.212661e-001 
-3.157503e-001 
-3.096318e-001 
-3.080902e-001 
-3.052219e-001 
-3.021086e-001 
-3.085746e-001 
-3.187487e-001 
-3.266379e-001 
-3.391395e-001 
-3.425565e-001 
-3.125995e-001 
-2.769891e-001 
-2.744155e-001 
-2.612181e-001 
-2.630660e-001 
-3.452898e-001 
-4.479891e-001 
-5.094264e-001 
-5.036640e-001 
-4.506155e-001 
-4.338736e-001 
-4.223459e-001 
-3.662793e-001 
-3.967444e-001 
-4.648863e-001 
-4.181152e-001 
-3.090061e-001 
-2.066130e-001 
-1.326474e-001 
-9.450697e-002 
-5.063214e-002 
-3.928608e-003 
3.990041e-002 
1.638016e-001 
3.453126e-001 
5.104084e-001 
6.514148e-001 
7.717939e-001 
8.728506e-001 
9.668765e-001 
1.065658e+000 
1.165200e+000 
1.256625e+000 
1.340560e+000 
1.415966e+000 
1.468333e+000 
1.496919e+000 
1.504981e+000 
1.489708e+000 
1.453363e+000 
1.398441e+000 
1.326216e+000 
1.237608e+000 
1.125719e+000 
9.959802e-001 
8.604113e-001 
7.186925e-001 
5.714459e-001 
4.266447e-001 
2.884095e-001 
1.567082e-001 
2.936794e-002 
-8.484883e-002 
-1.762372e-001 
-2.466687e-001 
-3.013747e-001 
-3.422069e-001 
-3.656270e-001 
-3.781747e-001 
-3.882527e-001 
-3.961163e-001 
-3.978823e-001 
-3.976819e-001 
-3.980069e-001 
-4.018444e-001 
-4.054243e-001 
-4.053518e-001 
-4.094179e-001 
-4.174077e-001 
-4.228527e-001 
-4.250912e-001 
-4.296586e-001 
-4.361185e-001 
-4.422875e-001 
-4.458344e-001 
-4.506181e-001 
-4.572680e-001 
-4.608913e-001 
-4.600588e-001 
-4.607278e-001 
-4.642639e-001 
-4.649550e-001 
-4.631097e-001 
-4.619082e-001 
-4.596466e-001 
-4.549714e-001 
-4.486166e-001 
-4.405106e-001 
-4.313966e-001 
-4.179380e-001 
-3.985019e-001 
-3.791001e-001 
-3.612966e-001 
-3.475742e-001 
-3.420206e-001 
-3.388331e-001 
-3.350411e-001 
-3.305828e-001 
-3.245537e-001 
-3.197805e-001 
-3.205279e-001 
-3.248133e-001 
-3.352112e-001 
-3.473449e-001 
-3.612301e-001 
-3.489565e-001 
-3.086609e-001 
-2.982609e-001 
-2.962581e-001 
-2.561282e-001 
-2.666871e-001 
-3.608999e-001 
-4.495987e-001 
-4.761937e-001 
-4.251353e-001 
-3.824862e-001 
-3.845864e-001 
-3.230055e-001 
-2.668472e-001 
-3.457994e-001 
-3.974872e-001 
-3.164037e-001 
-1.956384e-001 
-1.017143e-001 
-5.774268e-002 
-2.633865e-002 
2.585628e-002 
4.790256e-002 
8.798714e-002 
2.344184e-001 
4.156310e-001 
5.596123e-001 
6.760521e-001 
7.758398e-001 
8.658257e-001 
9.593339e-001 
1.053834e+000 
1.146903e+000 
1.232482e+000 
1.302082e+000 
1.353796e+000 
1.387766e+000 
1.400215e+000 
1.388479e+000 
1.356470e+000 
1.306944e+000 
1.239201e+000 
1.151917e+000 
1.047869e+000 
9.293526e-001 
8.000779e-001 
6.623699e-001 
5.212456e-001 
3.829360e-001 
2.488014e-001 
1.190587e-001 
-6.163307e-004 
-1.070501e-001 
-1.988797e-001 
-2.720791e-001 
-3.284436e-001 
-3.664260e-001 
-3.885190e-001 
-4.032331e-001 
-4.121292e-001 
-4.143262e-001 
-4.158533e-001 
-4.177248e-001 
-4.191116e-001 
-4.199462e-001 
-4.193597e-001 
-4.222144e-001 
-4.280349e-001 
-4.326597e-001 
-4.368935e-001 
-4.442701e-001 
-4.518619e-001 
-4.571930e-001 
-4.614240e-001 
-4.697285e-001 
-4.799262e-001 
-4.867955e-001 
-4.905599e-001 
-4.950815e-001 
-5.010143e-001 
-5.023162e-001 
-5.013065e-001 
-5.031287e-001 
-5.068982e-001 
-5.068489e-001 
-5.021143e-001 
-4.981157e-001 
-4.957352e-001 
-4.855190e-001 
-4.711361e-001 
-4.586753e-001 
-4.426122e-001 
-4.232346e-001 
-4.064372e-001 
-3.953625e-001 
-3.927914e-001 
-3.873762e-001 
-3.792975e-001 
-3.784404e-001 
-3.759801e-001 
-3.692673e-001 
-3.695970e-001 
-3.791571e-001 
-3.894575e-001 
-4.053776e-001 
-4.043953e-001 
-3.759379e-001 
-3.535793e-001 
-3.472227e-001 
-3.088926e-001 
-3.034589e-001 
-3.946481e-001 
-4.959636e-001 
-5.470446e-001 
-5.247229e-001 
-4.705300e-001 
-4.542258e-001 
-4.132624e-001 
-3.442874e-001 
-4.037320e-001 
-4.813162e-001 
-4.192040e-001 
-3.018849e-001 
-1.957469e-001 
-1.256924e-001 
-9.095803e-002 
-4.490114e-002 
-1.519554e-002 
1.214667e-002 
1.419569e-001 
3.252584e-001 
4.783682e-001 
6.070166e-001 
7.137366e-001 
8.048742e-001 
8.976966e-001 
9.942911e-001 
1.090393e+000 
1.178912e+000 
1.256461e+000 
1.322976e+000 
1.371302e+000 
1.394833e+000 
1.395984e+000 
1.377144e+000 
1.337995e+000 
1.279976e+000 
1.204840e+000 
1.113983e+000 
1.006839e+000 
8.833979e-001 
7.482366e-001 
6.121955e-001 
4.760329e-001 
3.395558e-001 
2.077541e-001 
8.437654e-002 
-2.820604e-002 
-1.280295e-001 
-2.112273e-001 
-2.726564e-001 
-3.139906e-001 
-3.452325e-001 
-3.665935e-001 
-3.766307e-001 
-3.807841e-001 
-3.817756e-001 
-3.822565e-001 
-3.812221e-001 
-3.802633e-001 
-3.848919e-001 
-3.921787e-001 
-3.953114e-001 
-3.986997e-001 
-4.042297e-001 
-4.100578e-001 
-4.174897e-001 
-4.247274e-001 
-4.346094e-001 
-4.449612e-001 
-4.511543e-001 
-4.549096e-001 
-4.615303e-001 
-4.676977e-001 
-4.716203e-001 
-4.742314e-001 
-4.777622e-001 
-4.812010e-001 
-4.807955e-001 
-4.777954e-001 
-4.756234e-001 
-4.745047e-001 
-4.699782e-001 
-4.610957e-001 
-4.518376e-001 
-4.449791e-001 
-4.332851e-001 
-4.128379e-001 
-3.926743e-001 
-3.783258e-001 
-3.664920e-001 
-3.565073e-001 
-3.500634e-001 
-3.484872e-001 
-3.471060e-001 
-3.376020e-001 
-3.276892e-001 
-3.282231e-001 
-3.320704e-001 
-3.350415e-001 
-3.462676e-001 
-3.413774e-001 
-2.995808e-001 
-2.528232e-001 
-2.318476e-001 
-1.969164e-001 
-1.832345e-001 
-2.572132e-001 
-3.555687e-001 
-4.134729e-001 
-4.027127e-001 
-3.623049e-001 
-3.552229e-001 
-3.356528e-001 
-2.820425e-001 
-3.287386e-001 
-4.085630e-001 
-3.718126e-001 
-2.789047e-001 
-1.956679e-001 
-1.408634e-001 
-1.091119e-001 
-7.248315e-002 
-4.671884e-002 
-2.507049e-002 
8.439611e-002 
2.545642e-001 
4.101281e-001 
5.467541e-001 
6.658224e-001 
7.664609e-001 
8.574903e-001 
9.474711e-001 
1.036499e+000 
1.122955e+000 
1.202599e+000 
1.268371e+000 
1.314048e+000 
1.341501e+000 
1.348208e+000 
1.334779e+000 
1.300052e+000 
1.249088e+000 
1.184219e+000 
1.101200e+000 
9.990043e-001 
8.859338e-001 
7.655712e-001 
6.363325e-001 
5.049154e-001 
3.764968e-001 
2.558956e-001 
1.401743e-001 
3.092319e-002 
-6.238404e-002 
-1.377051e-001 
-1.998531e-001 
-2.482304e-001 
-2.774409e-001 
-2.911043e-001 
-2.993230e-001 
-3.057137e-001 
-3.049213e-001 
-3.016180e-001 
-3.024117e-001 
-3.042655e-001 
-3.047807e-001 
-3.029264e-001 
-3.046136e-001 
-3.113102e-001 
-3.170134e-001 
-3.216125e-001 
-3.298231e-001 
-3.400039e-001 
-3.484970e-001 
-3.555112e-001 
-3.627323e-001 
-3.723320e-001 
-3.798643e-001 
-3.837875e-001 
-3.890385e-001 
-3.960247e-001 
-4.015996e-001 
-4.033242e-001 
-4.018688e-001 
-3.973972e-001 
-3.889865e-001 
-3.756169e-001 
-3.617941e-001 
-3.509514e-001 
-3.419523e-001 
-3.360863e-001 
-3.332505e-001 
-3.312071e-001 
-3.276773e-001 
-3.257637e-001 
-3.243383e-001 
-3.239154e-001 
-3.262539e-001 
-3.319732e-001 
-3.397710e-001 
-3.531221e-001 
-3.474042e-001 
-3.038994e-001 
-2.741401e-001 
-2.642979e-001 
-2.179698e-001 
-2.001254e-001 
-2.820827e-001 
-3.775099e-001 
-4.224719e-001 
-3.951391e-001 
-3.472918e-001 
-3.437000e-001 
-3.006101e-001 
-2.291091e-001 
-2.877594e-001 
-3.700332e-001 
-3.105913e-001 
-1.998672e-001 
-1.092244e-001 
-5.154456e-002 
-1.298649e-002 
3.441481e-002 
5.991395e-002 
8.163633e-002 
2.049239e-001 
3.909765e-001 
5.454561e-001 
6.779179e-001 
7.990438e-001 
9.010383e-001 
9.947657e-001 
1.091831e+000 
1.185820e+000 
1.275271e+000 
1.352070e+000 
1.411655e+000 
1.455217e+000 
1.479077e+000 
1.476559e+000 
1.451920e+000 
1.409495e+000 
1.347742e+000 
1.265713e+000 
1.167212e+000 
1.053618e+000 
9.264162e-001 
7.887542e-001 
6.424906e-001 
4.987183e-001 
3.601382e-001 
2.238059e-001 
9.693462e-002 
-1.612990e-002 
-1.160106e-001 
-1.989659e-001 
-2.640689e-001 
-3.110661e-001 
-3.386085e-001 
-3.567070e-001 
-3.673547e-001 
-3.702887e-001 
-3.701138e-001 
-3.689019e-001 
-3.670261e-001 
-3.627537e-001 
-3.596819e-001 
-3.603638e-001 
-3.630746e-001 
-3.643564e-001 
-3.669983e-001 
-3.718929e-001 
-3.797790e-001 
-3.848060e-001 
-3.894029e-001 
-4.007773e-001 
-4.101772e-001 
-4.159325e-001 
-4.204887e-001 
-4.263126e-001 
-4.342529e-001 
-4.386876e-001 
-4.371812e-001 
-4.367327e-001 
-4.308442e-001 
-4.185181e-001 
-4.038671e-001 
-3.886468e-001 
-3.772992e-001 
-3.657608e-001 
-3.549669e-001 
-3.511403e-001 
-3.470833e-001 
-3.409375e-001 
-3.390902e-001 
-3.369753e-001 
-3.390008e-001 
-3.416750e-001 
-3.456440e-001 
-3.546533e-001 
-3.689326e-001 
-3.700960e-001 
-3.433088e-001 
-3.183703e-001 
-3.162358e-001 
-2.869644e-001 
-2.426094e-001 
-2.934494e-001 
-3.926412e-001 
-4.502523e-001 
-4.400390e-001 
-3.994810e-001 
-3.877035e-001 
-3.556714e-001 
-2.667313e-001 
-2.722608e-001 
-3.728878e-001 
-3.558062e-001 
-2.464981e-001 
-1.478917e-001 
-8.086870e-002 
-2.884301e-002 
2.599108e-002 
6.377913e-002 
7.426502e-002 
1.601123e-001 
3.380475e-001 
5.017297e-001 
6.360273e-001 
7.586461e-001 
8.659199e-001 
9.594586e-001 
1.056137e+000 
1.154785e+000 
1.248855e+000 
1.331520e+000 
1.398567e+000 
1.451565e+000 
1.484581e+000 
1.489366e+000 
1.468586e+000 
1.427199e+000 
1.367561e+000 
1.288377e+000 
1.190799e+000 
1.081597e+000 
9.593225e-001 
8.180483e-001 
6.674299e-001 
5.171999e-001 
3.729285e-001 
2.335708e-001 
9.849507e-002 
-2.210484e-002 
-1.272751e-001 
-2.234788e-001 
-3.015883e-001 
-3.551239e-001 
-3.883632e-001 
-4.061453e-001 
-4.181583e-001 
-4.227139e-001 
-4.205549e-001 
-4.220135e-001 
-4.249162e-001 
-4.228089e-001 
-4.214543e-001 
-4.208066e-001 
-4.226371e-001 
-4.244513e-001 
-4.245482e-001 
-4.298413e-001 
-4.386667e-001 
-4.450934e-001 
-4.504888e-001 
-4.594417e-001 
-4.686916e-001 
-4.759716e-001 
-4.805522e-001 
-4.897258e-001 
-4.995928e-001 
-5.049739e-001 
-5.068775e-001 
-5.097895e-001 
-5.135908e-001 
-5.115476e-001 
-5.049188e-001 
-4.983932e-001 
-4.924566e-001 
-4.789595e-001 
-4.595626e-001 
-4.419363e-001 
-4.317723e-001 
-4.221869e-001 
-4.133846e-001 
-4.100657e-001 
-4.090786e-001 
-4.068079e-001 
-4.001525e-001 
-3.959656e-001 
-4.011528e-001 
-4.087374e-001 
-4.139321e-001 
-4.305516e-001 
-4.267213e-001 
-3.881376e-001 
-3.665878e-001 
-3.621181e-001 
-3.215039e-001 
-2.904509e-001 
-3.574960e-001 
-4.611379e-001 
-5.116871e-001 
-4.829269e-001 
-4.403659e-001 
-4.364599e-001 
-3.879671e-001 
-2.988224e-001 
-3.344589e-001 
-4.310028e-001 
-3.908526e-001 
-2.744725e-001 
-1.742198e-001 
-1.110264e-001 
-6.905085e-002 
-1.539936e-002 
1.611374e-002 
2.895487e-002 
1.344125e-001 
3.167824e-001 
4.759549e-001 
6.090217e-001 
7.219645e-001 
8.174532e-001 
9.115295e-001 
1.009035e+000 
1.103978e+000 
1.193983e+000 
1.276435e+000 
1.345880e+000 
1.395980e+000 
1.425764e+000 
1.430821e+000 
1.411632e+000 
1.369275e+000 
1.306145e+000 
1.228406e+000 
1.133832e+000 
1.020328e+000 
8.930055e-001 
7.550307e-001 
6.088090e-001 
4.588202e-001 
3.114133e-001 
1.729247e-001 
4.261143e-002 
-8.064243e-002 
-1.894382e-001 
-2.805475e-001 
-3.537936e-001 
-4.090665e-001 
-4.463645e-001 
-4.647167e-001 
-4.726010e-001 
-4.783979e-001 
-4.800640e-001 
-4.774162e-001 
-4.748250e-001 
-4.739232e-001 
-4.732226e-001 
-4.699500e-001 
-4.674071e-001 
-4.719395e-001 
-4.757541e-001 
-4.770886e-001 
-4.813167e-001 
-4.874223e-001 
-4.939581e-001 
-4.984035e-001 
-5.026845e-001 
-5.114971e-001 
-5.185764e-001 
-5.191390e-001 
-5.233840e-001 
-5.294044e-001 
-5.313288e-001 
-5.318871e-001 
-5.328386e-001 
-5.327654e-001 
-5.307081e-001 
-5.253905e-001 
-5.200529e-001 
-5.168055e-001 
-5.086156e-001 
-4.952859e-001 
-4.797492e-001 
-4.602556e-001 
-4.372222e-001 
-4.214350e-001 
-4.142330e-001 
-4.096953e-001 
-4.049698e-001 
-3.976827e-001 
-3.904917e-001 
-3.831273e-001 
-3.759658e-001 
-3.747019e-001 
-3.835522e-001 
-3.910278e-001 
-3.965891e-001 
-3.787595e-001 
-3.260133e-001 
-2.819337e-001 
-2.576222e-001 
-2.115035e-001 
-2.080723e-001 
-2.942843e-001 
-3.829710e-001 
-4.248819e-001 
-4.033132e-001 
-3.659234e-001 
-3.615406e-001 
-3.246306e-001 
-2.768114e-001 
-3.454274e-001 
-4.113041e-001 
-3.510070e-001 
-2.531743e-001 
-1.732903e-001 
-1.203337e-001 
-8.235293e-002 
-4.293359e-002 
-2.405857e-002 
1.079409e-002 
1.447802e-001 
3.255672e-001 
4.822679e-001 
6.235679e-001 
7.517272e-001 
8.563282e-001 
9.477090e-001 
1.042253e+000 
1.134028e+000 
1.215649e+000 
1.285988e+000 
1.341508e+000 
1.378349e+000 
1.389378e+000 
1.376931e+000 
1.347796e+000 
1.301516e+000 
1.235548e+000 
1.151456e+000 
1.055167e+000 
9.457864e-001 
8.193794e-001 
6.829275e-001 
5.487119e-001 
4.185883e-001 
2.897720e-001 
1.640101e-001 
4.951054e-002 
-5.066549e-002 
-1.390057e-001 
-2.128857e-001 
-2.645987e-001 
-2.955712e-001 
-3.159287e-001 
-3.284507e-001 
-3.313324e-001 
-3.297616e-001 
-3.262811e-001 
-3.235353e-001 
-3.217222e-001 
-3.169786e-001 
-3.130518e-001 
-3.148217e-001 
-3.159680e-001 
-3.179882e-001 
-3.224358e-001 
-3.280042e-001 
-3.368601e-001 
-3.432733e-001 
-3.493219e-001 
-3.585147e-001 
-3.676624e-001 
-3.737295e-001 
-3.805216e-001 
-3.871246e-001 
-3.948980e-001 
-3.988304e-001 
-4.010719e-001 
-4.060928e-001 
-4.073371e-001 
-4.048679e-001 
-4.036792e-001 
-4.039099e-001 
-4.027927e-001 
-4.002219e-001 
-3.933509e-001 
-3.848533e-001 
-3.719317e-001 
-3.516664e-001 
-3.308614e-001 
-3.149008e-001 
-3.026245e-001 
-2.933163e-001 
-2.873831e-001 
-2.821122e-001 
-2.757779e-001 
-2.694792e-001 
-2.622757e-001 
-2.605959e-001 
-2.666845e-001 
-2.735951e-001 
-2.793235e-001 
-2.903132e-001 
-2.752761e-001 
-2.263029e-001 
-2.159376e-001 
-2.289228e-001 
-2.079068e-001 
-2.342238e-001 
-3.341701e-001 
-4.202424e-001 
-4.492560e-001 
-3.995848e-001 
-3.559736e-001 
-3.762919e-001 
-3.290548e-001 
-2.677544e-001 
-3.338187e-001 
-3.674496e-001 
-2.738125e-001 
-1.560748e-001 
-6.193437e-002 
-1.489702e-002 
2.119781e-002 
9.276973e-002 
1.383067e-001 
1.975881e-001 
3.586545e-001 
5.449847e-001 
6.902337e-001 
8.122923e-001 
9.174589e-001 
1.011944e+000 
1.109709e+000 
1.209712e+000 
1.310079e+000 
1.406051e+000 
1.484636e+000 
1.546702e+000 
1.594271e+000 
1.620584e+000 
1.621170e+000 
1.598366e+000 
1.555023e+000 
1.492688e+000 
1.407526e+000 
1.301953e+000 
1.184707e+000 
1.053248e+000 
9.095772e-001 
7.593959e-001 
6.094004e-001 
4.626419e-001 
3.197915e-001 
1.815487e-001 
5.873416e-002 
-4.709707e-002 
-1.380196e-001 
-2.082727e-001 
-2.571451e-001 
-2.890744e-001 
-3.092271e-001 
-3.210510e-001 
-3.272996e-001 
-3.264674e-001 
-3.247300e-001 
-3.234957e-001 
-3.201765e-001 
-3.171085e-001 
-3.186173e-001 
-3.203699e-001 
-3.224155e-001 
-3.252021e-001 
-3.283324e-001 
-3.351775e-001 
-3.428295e-001 
-3.499172e-001 
-3.622266e-001 
-3.745898e-001 
-3.838674e-001 
-3.932124e-001 
-4.018661e-001 
-4.134566e-001 
-4.218109e-001 
-4.256806e-001 
-4.332573e-001 
-4.416856e-001 
-4.425728e-001 
-4.437008e-001 
-4.471700e-001 
-4.506525e-001 
-4.498882e-001 
-4.434251e-001 
-4.420610e-001 
-4.444476e-001 
-4.382988e-001 
-4.253783e-001 
-4.146560e-001 
-4.027222e-001 
-3.825942e-001 
-3.584012e-001 
-3.430741e-001 
-3.389957e-001 
-3.347256e-001 
-3.255959e-001 
-3.194250e-001 
-3.170396e-001 
-3.117564e-001 
-3.034191e-001 
-3.039703e-001 
-3.146208e-001 
-3.254936e-001 
-3.321500e-001 
-3.333225e-001 
-3.089168e-001 
-2.705132e-001 
-2.661187e-001 
-2.648026e-001 
-2.389635e-001 
-2.739321e-001 
-3.699131e-001 
-4.370727e-001 
-4.382791e-001 
-3.845373e-001 
-3.549023e-001 
-3.548317e-001 
-2.888155e-001 
-2.497470e-001 
-3.222935e-001 
-3.320926e-001 
-2.297877e-001 
-1.145152e-001 
-2.951450e-002 
1.283746e-002 
5.552968e-002 
1.205767e-001 
1.615654e-001 
2.357840e-001 
3.991566e-001 
5.758769e-001 
7.203407e-001 
8.384832e-001 
9.382371e-001 
1.036551e+000 
1.142859e+000 
1.247252e+000 
1.341932e+000 
1.431046e+000 
1.510063e+000 
1.566755e+000 
1.601892e+000 
1.615889e+000 
1.607353e+000 
1.574256e+000 
1.514563e+000 
1.435768e+000 
1.341806e+000 
1.226058e+000 
1.093544e+000 
9.521985e-001 
8.021956e-001 
6.462332e-001 
4.899162e-001 
3.377620e-001 
1.934004e-001 
5.864445e-002 
-6.345126e-002 
-1.645921e-001 
-2.445169e-001 
-3.087223e-001 
-3.545144e-001 
-3.799883e-001 
-3.953815e-001 
-4.041334e-001 
-4.068131e-001 
-4.046135e-001 
-4.004506e-001 
-3.985481e-001 
-3.968081e-001 
-3.933801e-001 
-3.900097e-001 
-3.908882e-001 
-3.931193e-001 
-3.943449e-001 
-3.969928e-001 
-4.031288e-001 
-4.071147e-001 
-4.109118e-001 
-4.162354e-001 
-4.221115e-001 
-4.306884e-001 
-4.366532e-001 
-4.411205e-001 
-4.476065e-001 
-4.520914e-001 
-4.532964e-001 
-4.546133e-001 
-4.558693e-001 
-4.575576e-001 
-4.551651e-001 
-4.490974e-001 
-4.451928e-001 
-4.405017e-001 
-4.309524e-001 
-4.161242e-001 
-4.015553e-001 
-3.885227e-001 
-3.712420e-001 
-3.514653e-001 
-3.349471e-001 
-3.228759e-001 
-3.058501e-001 
-2.808025e-001 
-2.561310e-001 
-2.329278e-001 
-2.049645e-001 
-1.752794e-001 
-1.523760e-001 
-1.404961e-001 
-1.334557e-001 
-1.229986e-001 
-1.167265e-001 
-1.144435e-001 
-1.100340e-001 
-1.068416e-001 
-1.119669e-001 
-1.253238e-001 
-1.392740e-001 
-1.536546e-001 
-1.623772e-001 
-1.410675e-001 
-1.045310e-001 
-9.352620e-002 
-6.920081e-002 
-1.866937e-002 
-5.728136e-002 
-1.672753e-001 
-2.456816e-001 
-2.523588e-001 
-2.055106e-001 
-1.784097e-001 
-1.610612e-001 
-8.052861e-002 
-6.736546e-002 
-1.851369e-001 
-2.050763e-001 
-9.996356e-002 
1.124768e-002 
8.893499e-002 
1.316893e-001 
1.640539e-001 
1.952441e-001 
1.939907e-001 
2.511434e-001 
4.203228e-001 
5.965730e-001 
7.379571e-001 
8.561795e-001 
9.554271e-001 
1.045194e+000 
1.142327e+000 
1.241811e+000 
1.334573e+000 
1.421501e+000 
1.499989e+000 
1.554812e+000 
1.584824e+000 
1.593437e+000 
1.578520e+000 
1.540082e+000 
1.480951e+000 
1.408993e+000 
1.321908e+000 
1.207403e+000 
1.069709e+000 
9.264602e-001 
7.758599e-001 
6.141985e-001 
4.571720e-001 
3.155268e-001 
1.820713e-001 
4.355712e-002 
-8.397907e-002 
-1.834504e-001 
-2.593757e-001 
-3.290637e-001 
-3.778455e-001 
-4.002639e-001 
-4.158438e-001 
-4.373266e-001 
-4.448530e-001 
-4.400580e-001 
-4.422308e-001 
-4.490730e-001 
-4.564531e-001 
-4.561286e-001 
-4.617929e-001 
-4.742094e-001 
-4.793451e-001 
-4.754046e-001 
-4.907081e-001 
-5.065350e-001 
-5.077101e-001 
-5.138899e-001 
-5.290140e-001 
-5.414603e-001 
-5.481273e-001 
-5.499620e-001 
-5.522672e-001 
-5.623706e-001 
-5.619085e-001 
-5.601005e-001 
-5.704034e-001 
-5.767261e-001 
-5.775255e-001 
-5.709184e-001 
-5.561277e-001 
-5.491557e-001 
-5.555636e-001 
-5.570957e-001 
-5.545435e-001 
-5.550438e-001 
-5.533051e-001 
-5.445792e-001 
-5.260304e-001 
-5.178926e-001 
-5.215809e-001 
-5.228840e-001 
-5.127939e-001 
-4.932328e-001 
-4.807565e-001 
-4.646542e-001 
-4.397952e-001 
-4.247616e-001 
-4.174808e-001 
-4.089711e-001 
-3.975841e-001 
-3.843771e-001 
-3.785451e-001 
-3.827267e-001 
-3.705385e-001 
-3.668247e-001 
-3.727348e-001 
-3.778502e-001 
-3.811602e-001 
-3.912274e-001 
-3.881593e-001 
-3.453997e-001 
-3.031350e-001 
-2.710160e-001 
-2.268582e-001 
-2.224771e-001 
-3.086719e-001 
-3.972693e-001 
-4.404780e-001 
-4.101170e-001 
-3.612088e-001 
-3.570641e-001 
-3.156709e-001 
-2.692560e-001 
-3.440873e-001 
-4.016063e-001 
-3.209998e-001 
-2.204134e-001 
-1.429948e-001 
-1.042518e-001 
-8.453888e-002 
-4.628556e-002 
-3.014829e-002 
2.318257e-003 
1.475681e-001 
3.251319e-001 
4.596135e-001 
5.901654e-001 
7.088294e-001 
8.132540e-001 
9.142278e-001 
1.012736e+000 
1.107505e+000 
1.191271e+000 
1.257873e+000 
1.308728e+000 
1.346849e+000 
1.367928e+000 
1.368339e+000 
1.342160e+000 
1.295612e+000 
1.230510e+000 
1.144907e+000 
1.039060e+000 
9.090024e-001 
7.754939e-001 
6.469048e-001 
5.090207e-001 
3.607656e-001 
2.245052e-001 
9.546340e-002 
-3.183437e-002 
-1.439023e-001 
-2.402340e-001 
-3.097395e-001 
-3.625608e-001 
-4.103150e-001 
-4.394678e-001 
-4.506441e-001 
-4.631694e-001 
-4.668506e-001 
-4.607242e-001 
-4.613485e-001 
-4.578824e-001 
-4.555491e-001 
-4.538803e-001 
-4.550784e-001 
-4.649407e-001 
-4.708330e-001 
-4.681366e-001 
-4.753649e-001 
-4.902210e-001 
-4.946589e-001 
-4.940009e-001 
-4.988219e-001 
-5.165797e-001 
-5.269400e-001 
-5.239192e-001 
-5.255781e-001 
-5.363967e-001 
-5.400331e-001 
-5.343727e-001 
-5.274165e-001 
-5.342460e-001 
-5.414058e-001 
-5.285848e-001 
-5.209524e-001 
-5.244797e-001 
-5.200773e-001 
-5.083950e-001 
-4.997204e-001 
-4.920590e-001 
-4.876031e-001 
-4.679579e-001 
-4.433849e-001 
-4.326461e-001 
-4.148682e-001 
-3.904757e-001 
-3.760869e-001 
-3.732281e-001 
-3.728440e-001 
-3.672901e-001 
-3.604399e-001 
-3.600163e-001 
-3.604617e-001 
-3.565255e-001 
-3.575112e-001 
-3.677754e-001 
-3.934110e-001 
-3.958484e-001 
-3.592233e-001 
-3.357663e-001 
-3.270230e-001 
-2.823608e-001 
-2.455061e-001 
-3.201149e-001 
-4.336554e-001 
-4.878007e-001 
-4.528876e-001 
-3.924731e-001 
-3.730701e-001 
-3.227368e-001 
-2.361074e-001 
-2.776145e-001 
-3.819438e-001 
-3.347108e-001 
-2.032073e-001 
-9.040366e-002 
-2.564092e-002 
1.108599e-002 
5.608731e-002 
7.914982e-002 
8.709761e-002 
1.940035e-001 
3.802726e-001 
5.398945e-001 
6.651266e-001 
7.730190e-001 
8.697512e-001 
9.622390e-001 
1.057588e+000 
1.150130e+000 
1.237403e+000 
1.316069e+000 
1.381242e+000 
1.427678e+000 
1.451998e+000 
1.446112e+000 
1.422838e+000 
1.377591e+000 
1.311582e+000 
1.232539e+000 
1.135780e+000 
1.022850e+000 
8.958829e-001 
7.533508e-001 
6.060462e-001 
4.652107e-001 
3.215773e-001 
1.839619e-001 
5.787014e-002 
-5.640125e-002 
-1.581035e-001 
-2.437488e-001 
-3.137126e-001 
-3.605021e-001 
-3.846602e-001 
-4.024416e-001 
-4.151073e-001 
-4.167992e-001 
-4.156395e-001 
-4.196899e-001 
-4.227268e-001 
-4.229064e-001 
-4.198446e-001 
-4.199289e-001 
-4.272194e-001 
-4.300250e-001 
-4.286892e-001 
-4.364374e-001 
-4.446644e-001 
-4.474836e-001 
-4.521471e-001 
-4.604478e-001 
-4.678740e-001 
-4.698972e-001 
-4.678725e-001 
-4.731732e-001 
-4.805297e-001 
-4.823322e-001 
-4.838721e-001 
-4.849729e-001 
-4.821910e-001 
-4.762824e-001 
-4.697866e-001 
-4.665741e-001 
-4.660280e-001 
-4.588462e-001 
-4.457404e-001 
-4.287527e-001 
-4.057620e-001 
-3.816848e-001 
-3.649347e-001 
-3.553054e-001 
-3.523604e-001 
-3.490531e-001 
-3.424632e-001 
-3.355672e-001 
-3.248963e-001 
-3.141534e-001 
-3.133969e-001 
-3.203084e-001 
-3.298263e-001 
-3.429282e-001 
-3.503589e-001 
-3.328287e-001 
-2.947077e-001 
-2.746158e-001 
-2.503240e-001 
-2.029321e-001 
-2.299310e-001 
-3.282026e-001 
-3.986177e-001 
-4.036776e-001 
-3.524784e-001 
-3.087143e-001 
-2.885935e-001 
-2.159291e-001 
-1.909643e-001 
-2.874055e-001 
-3.049847e-001 
-2.028279e-001 
-9.093136e-002 
-5.959597e-003 
3.885564e-002 
7.055353e-002 
1.103426e-001 
1.193524e-001 
1.744667e-001 
3.310254e-001 
4.950662e-001 
6.272046e-001 
7.366958e-001 
8.309908e-001 
9.209996e-001 
1.013786e+000 
1.107797e+000 
1.196613e+000 
1.275497e+000 
1.348192e+000 
1.400079e+000 
1.429179e+000 
1.442726e+000 
1.432029e+000 
1.399647e+000 
1.350424e+000 
1.280244e+000 
1.197160e+000 
1.096259e+000 
9.739802e-001 
8.452124e-001 
7.102305e-001 
5.725825e-001 
4.356357e-001 
3.033330e-001 
1.765503e-001 
5.584958e-002 
-5.459945e-002 
-1.435081e-001 
-2.156380e-001 
-2.707020e-001 
-3.064902e-001 
-3.302488e-001 
-3.409585e-001 
-3.492768e-001 
-3.575630e-001 
-3.565655e-001 
-3.520865e-001 
-3.567083e-001 
-3.596326e-001 
-3.581427e-001 
-3.573945e-001 
-3.604062e-001 
-3.667153e-001 
-3.727164e-001 
-3.778523e-001 
-3.858387e-001 
-3.972829e-001 
-4.031730e-001 
-4.039656e-001 
-4.088215e-001 
-4.158397e-001 
-4.178275e-001 
-4.241355e-001 
-4.286469e-001 
-4.287636e-001 
-4.285300e-001 
-4.264335e-001 
-4.201581e-001 
-4.111027e-001 
-3.979297e-001 
-3.830146e-001 
-3.675619e-001 
-3.489341e-001 
-3.359597e-001 
-3.259248e-001 
-3.217122e-001 
-3.147384e-001 
-3.091181e-001 
-3.088648e-001 
-3.048130e-001 
-3.017579e-001 
-3.104601e-001 
-3.168232e-001 
-3.216664e-001 
-3.423911e-001 
-3.506849e-001 
-3.331169e-001 
-3.021930e-001 
-2.792043e-001 
-2.341876e-001 
-1.826983e-001 
-2.311584e-001 
-3.409342e-001 
-4.065209e-001 
-3.950441e-001 
-3.377516e-001 
-2.981357e-001 
-2.571148e-001 
-1.765576e-001 
-2.041424e-001 
-3.262452e-001 
-3.105528e-001 
-1.944080e-001 
-8.513623e-002 
-9.454391e-003 
2.360405e-002 
4.824663e-002 
6.017597e-002 
4.619699e-002 
1.218634e-001 
2.966243e-001 
4.499750e-001 
5.713197e-001 
6.704428e-001 
7.565977e-001 
8.413266e-001 
9.282871e-001 
1.015276e+000 
1.100407e+000 
1.176828e+000 
1.237581e+000 
1.279513e+000 
1.303927e+000 
1.309963e+000 
1.292012e+000 
1.253006e+000 
1.197908e+000 
1.130023e+000 
1.044556e+000 
9.393213e-001 
8.216078e-001 
6.976738e-001 
5.666416e-001 
4.303447e-001 
2.966172e-001 
1.723164e-001 
5.494148e-002 
-6.062869e-002 
-1.608287e-001 
-2.406198e-001 
-3.059792e-001 
-3.547500e-001 
-3.861275e-001 
-4.038638e-001 
-4.129053e-001 
-4.227966e-001 
-4.264379e-001 
-4.239503e-001 
-4.278705e-001 
-4.334860e-001 
-4.348612e-001 
-4.359993e-001 
-4.408343e-001 
-4.482653e-001 
-4.538545e-001 
-4.565999e-001 
-4.674915e-001 
-4.793931e-001 
-4.864885e-001 
-4.917378e-001 
-5.002490e-001 
-5.098668e-001 
-5.144360e-001 
-5.165919e-001 
-5.222210e-001 
-5.280830e-001 
-5.231407e-001 
-5.142191e-001 
-5.076187e-001 
-4.987436e-001 
-4.838645e-001 
-4.694100e-001 
-4.632182e-001 
-4.635217e-001 
-4.614816e-001 
-4.558076e-001 
-4.572506e-001 
-4.589008e-001 
-4.537028e-001 
-4.535599e-001 
-4.621964e-001 
-4.744466e-001 
-4.846506e-001 
-5.005530e-001 
-4.978064e-001 
-4.616776e-001 
-4.307387e-001 
-3.908130e-001 
-3.187565e-001 
-3.448673e-001 
-4.518791e-001 
-5.346449e-001 
-5.731193e-001 
-5.283628e-001 
-4.668003e-001 
-4.409548e-001 
-3.627402e-001 
-3.441107e-001 
-4.820580e-001 
-5.178528e-001 
-4.274577e-001 
-3.212818e-001 
-2.192878e-001 
-1.691013e-001 
-1.562676e-001 
-1.390683e-001 
-1.588278e-001 
-1.231264e-001 
3.886415e-002 
2.073930e-001 
3.485520e-001 
4.695097e-001 
5.631361e-001 
6.453169e-001 
7.386807e-001 
8.330591e-001 
9.217996e-001 
1.005006e+000 
1.081141e+000 
1.143120e+000 
1.184084e+000 
1.200794e+000 
1.199460e+000 
1.180214e+000 
1.139944e+000 
1.084540e+000 
1.016973e+000 
9.320068e-001 
8.263411e-001 
7.066231e-001 
5.813551e-001 
4.561104e-001 
3.297595e-001 
2.047338e-001 
8.788622e-002 
-2.038683e-002 
-1.229147e-001 
-2.145423e-001 
-2.847104e-001 
-3.343988e-001 
-3.692780e-001 
-3.931021e-001 
-4.081956e-001 
-4.151103e-001 
-4.201291e-001 
-4.269834e-001 
-4.309857e-001 
-4.308577e-001 
-4.322908e-001 
-4.344468e-001 
-4.385865e-001 
-4.453348e-001 
-4.528037e-001 
-4.631620e-001 
-4.724388e-001 
-4.789949e-001 
-4.841991e-001 
-4.910689e-001 
-4.931850e-001 
-4.909925e-001 
-4.875616e-001 
-4.838845e-001 
-4.745913e-001 
-4.613616e-001 
-4.520459e-001 
-4.487079e-001 
-4.468925e-001 
-4.410279e-001 
-4.400812e-001 
-4.442183e-001 
-4.457128e-001 
-4.423475e-001 
-4.446354e-001 
-4.517569e-001 
-4.594146e-001 
-4.643447e-001 
-4.775670e-001 
-4.774545e-001 
-4.373336e-001 
-3.812554e-001 
-3.394215e-001 
-2.795708e-001 
-2.484109e-001 
-3.203383e-001 
-4.159816e-001 
-4.691900e-001 
-4.546592e-001 
-4.040255e-001 
-3.764216e-001 
-3.427410e-001 
-2.942047e-001 
-3.636171e-001 
-4.611889e-001 
-4.199892e-001 
-3.217767e-001 
-2.364469e-001 
-1.796301e-001 
-1.540076e-001 
-1.368911e-001 
-1.354618e-001 
-1.317496e-001 
-2.333799e-002 
1.551478e-001 
3.129564e-001 
4.507416e-001 
5.714813e-001 
6.740877e-001 
7.641185e-001 
8.514794e-001 
9.374816e-001 
1.021759e+000 
1.099061e+000 
1.158795e+000 
1.195944e+000 
1.214815e+000 
1.214008e+000 
1.191354e+000 
1.153011e+000 
1.101595e+000 
1.035903e+000 
9.531382e-001 
8.502694e-001 
7.348388e-001 
6.143766e-001 
4.903204e-001 
3.677148e-001 
2.500104e-001 
1.355837e-001 
2.763275e-002 
-7.291569e-002 
-1.608912e-001 
-2.294900e-001 
-2.802675e-001 
-3.140124e-001 
-3.332474e-001 
-3.428002e-001 
-3.482848e-001 
-3.495541e-001 
-3.473431e-001 
-3.436810e-001 
-3.422092e-001 
-3.417251e-001 
-3.385691e-001 
-3.351289e-001 
-3.356789e-001 
-3.397126e-001 
-3.365701e-001 
-3.310970e-001 
-3.299643e-001 
-3.266484e-001 
-3.196144e-001 
-3.102147e-001 
-3.074161e-001 
-3.127444e-001 
-3.157148e-001 
-3.153568e-001 
-3.232277e-001 
-3.320347e-001 
-3.370508e-001 
-3.412925e-001 
-3.481000e-001 
-3.623264e-001 
-3.722870e-001 
-3.795358e-001 
-3.931570e-001 
-3.789204e-001 
-3.241415e-001 
-2.926564e-001 
-2.699920e-001 
-2.249779e-001 
-2.522350e-001 
-3.442713e-001 
-4.207510e-001 
-4.439833e-001 
-3.855656e-001 
-3.301331e-001 
-3.279873e-001 
-2.761429e-001 
-2.524969e-001 
-3.453184e-001 
-3.659284e-001 
-2.791553e-001 
-1.742585e-001 
-8.522503e-002 
-4.896380e-002 
-3.315728e-002 
4.187257e-003 
2.307475e-002 
8.665703e-002 
2.513050e-001 
4.274592e-001 
5.792418e-001 
7.091566e-001 
8.172033e-001 
9.129685e-001 
1.010261e+000 
1.104426e+000 
1.190337e+000 
1.264542e+000 
1.324026e+000 
1.363590e+000 
1.378563e+000 
1.374663e+000 
1.349014e+000 
1.300933e+000 
1.234092e+000 
1.150681e+000 
1.050241e+000 
9.330098e-001 
8.023302e-001 
6.663259e-001 
5.284145e-001 
3.871637e-001 
2.493600e-001 
1.185494e-001 
-2.147477e-003 
-1.132107e-001 
-2.076736e-001 
-2.795549e-001 
-3.337437e-001 
-3.725025e-001 
-3.953863e-001 
-4.066385e-001 
-4.097296e-001 
-4.087603e-001 
-4.082748e-001 
-4.020099e-001 
-3.963538e-001 
-3.960364e-001 
-3.952135e-001 
-3.939730e-001 
-3.946340e-001 
-3.967862e-001 
-4.019002e-001 
-4.046627e-001 
-4.023287e-001 
-4.000253e-001 
-3.960459e-001 
-3.909317e-001 
-3.831974e-001 
-3.775678e-001 
-3.741456e-001 
-3.715883e-001 
-3.708326e-001 
-3.719567e-001 
-3.740006e-001 
-3.780384e-001 
-3.824363e-001 
-3.852552e-001 
-3.921177e-001 
-3.973771e-001 
-4.051215e-001 
-4.149702e-001 
-4.289398e-001 
-4.326323e-001 
-4.033196e-001 
-3.726935e-001 
-3.600137e-001 
-3.164525e-001 
-2.838390e-001 
-3.518271e-001 
-4.480692e-001 
-4.983075e-001 
-4.746769e-001 
-4.103609e-001 
-3.852681e-001 
-3.441521e-001 
-2.705500e-001 
-3.115450e-001 
-4.037143e-001 
-3.613530e-001 
-2.448695e-001 
-1.343783e-001 
-6.367116e-002 
-3.406472e-002 
2.369440e-003 
2.772707e-002 
4.597387e-002 
1.580806e-001 
3.453949e-001 
5.089895e-001 
6.433247e-001 
7.536310e-001 
8.488339e-001 
9.431651e-001 
1.041219e+000 
1.136962e+000 
1.225062e+000 
1.299570e+000 
1.356271e+000 
1.393474e+000 
1.408290e+000 
1.399131e+000 
1.367602e+000 
1.317641e+000 
1.249465e+000 
1.162650e+000 
1.057402e+000 
9.391879e-001 
8.101727e-001 
6.694461e-001 
5.227150e-001 
3.798068e-001 
2.417495e-001 
1.077774e-001 
-1.735372e-002 
-1.263885e-001 
-2.155614e-001 
-2.899525e-001 
-3.495645e-001 
-3.875149e-001 
-4.073276e-001 
-4.207010e-001 
-4.278747e-001 
-4.265127e-001 
-4.214732e-001 
-4.190911e-001 
-4.198489e-001 
-4.200510e-001 
-4.167563e-001 
-4.151017e-001 
-4.174241e-001 
-4.157367e-001 
-4.149064e-001 
-4.185434e-001 
-4.229571e-001 
-4.244647e-001 
-4.211772e-001 
-4.155675e-001 
-4.098958e-001 
-4.004578e-001 
-3.908450e-001 
-3.865587e-001 
-3.857165e-001 
-3.871137e-001 
-3.867928e-001 
-3.877729e-001 
-3.932070e-001 
-3.960625e-001 
-3.987210e-001 
-4.071373e-001 
-4.165605e-001 
-4.289325e-001 
-4.388962e-001 
-4.532600e-001 
-4.597101e-001 
-4.313561e-001 
-4.005594e-001 
-3.830328e-001 
-3.253973e-001 
-2.925228e-001 
-3.666218e-001 
-4.587806e-001 
-5.026292e-001 
-4.729654e-001 
-4.065424e-001 
-3.778006e-001 
-3.223338e-001 
-2.461752e-001 
-3.090660e-001 
-4.037472e-001 
-3.478876e-001 
-2.275187e-001 
-1.206476e-001 
-5.435415e-002 
-2.662462e-002 
6.563364e-003 
1.845035e-002 
2.725017e-002 
1.421361e-001 
3.278483e-001 
4.840103e-001 
6.088147e-001 
7.132079e-001 
8.050350e-001 
8.993390e-001 
9.982505e-001 
1.092576e+000 
1.178944e+000 
1.258061e+000 
1.318687e+000 
1.356456e+000 
1.374495e+000 
1.370385e+000 
1.344630e+000 
1.298272e+000 
1.232755e+000 
1.151367e+000 
1.054118e+000 
9.370162e-001 
8.073577e-001 
6.717319e-001 
5.321359e-001 
3.915311e-001 
2.560561e-001 
1.259745e-001 
3.221054e-003 
-1.083516e-001 
-2.048813e-001 
-2.820085e-001 
-3.398891e-001 
-3.796057e-001 
-4.016348e-001 
-4.124306e-001 
-4.209662e-001 
-4.249922e-001 
-4.240854e-001 
-4.212187e-001 
-4.206870e-001 
-4.202344e-001 
-4.165440e-001 
-4.142715e-001 
-4.180927e-001 
-4.240587e-001 
-4.278901e-001 
-4.296112e-001 
-4.354164e-001 
-4.422520e-001 
-4.427689e-001 
-4.455983e-001 
-4.540304e-001 
-4.614028e-001 
-4.661325e-001 
-4.688273e-001 
-4.701465e-001 
-4.726859e-001 
-4.673784e-001 
-4.565428e-001 
-4.506426e-001 
-4.417287e-001 
-4.265124e-001 
-4.119160e-001 
-3.992048e-001 
-3.917894e-001 
-3.889139e-001 
-3.830558e-001 
-3.806998e-001 
-3.836948e-001 
-3.822866e-001 
-3.800604e-001 
-3.828025e-001 
-3.899913e-001 
-3.995321e-001 
-4.065154e-001 
-4.206166e-001 
-4.189829e-001 
-3.833076e-001 
-3.595615e-001 
-3.440041e-001 
-2.792925e-001 
-2.491329e-001 
-3.269938e-001 
-4.199404e-001 
-4.565810e-001 
-4.118084e-001 
-3.527933e-001 
-3.395918e-001 
-2.736403e-001 
-1.913725e-001 
-2.693769e-001 
-3.641730e-001 
-2.997287e-001 
-1.756661e-001 
-7.164905e-002 
-1.803514e-002 
6.040967e-003 
4.780139e-002 
5.645505e-002 
6.077716e-002 
1.838361e-001 
3.699171e-001 
5.221029e-001 
6.435626e-001 
7.408201e-001 
8.299732e-001 
9.257265e-001 
1.020265e+000 
1.111866e+000 
1.197558e+000 
1.270670e+000 
1.325139e+000 
1.357714e+000 
1.372168e+000 
1.367006e+000 
1.338919e+000 
1.289766e+000 
1.223773e+000 
1.139595e+000 
1.037032e+000 
9.201770e-001 
7.962254e-001 
6.643540e-001 
5.260600e-001 
3.880549e-001 
2.540874e-001 
1.255472e-001 
5.961595e-003 
-1.004828e-001 
-1.892118e-001 
-2.595389e-001 
-3.168409e-001 
-3.571061e-001 
-3.798263e-001 
-3.923049e-001 
-3.994283e-001 
-4.014711e-001 
-4.014872e-001 
-4.014634e-001 
-4.044255e-001 
-4.093749e-001 
-4.119335e-001 
-4.134652e-001 
-4.183291e-001 
-4.263569e-001 
-4.325125e-001 
-4.392128e-001 
-4.500353e-001 
-4.608967e-001 
-4.692216e-001 
-4.769520e-001 
-4.850260e-001 
-4.952507e-001 
-5.016081e-001 
-5.049550e-001 
-5.104314e-001 
-5.158048e-001 
-5.171571e-001 
-5.169329e-001 
-5.174933e-001 
-5.173104e-001 
-5.134151e-001 
-5.071832e-001 
-5.045763e-001 
-5.019937e-001 
-4.989009e-001 
-4.923398e-001 
-4.846669e-001 
-4.746054e-001 
-4.577404e-001 
-4.373198e-001 
-4.190138e-001 
-4.020958e-001 
-3.888968e-001 
-3.798390e-001 
-3.727550e-001 
-3.683074e-001 
-3.602044e-001 
-3.523673e-001 
-3.476213e-001 
-3.467838e-001 
-3.484742e-001 
-3.531582e-001 
-3.595420e-001 
-3.724905e-001 
-3.625707e-001 
-3.230342e-001 
-3.005655e-001 
-2.731878e-001 
-2.019553e-001 
-1.865251e-001 
-2.686348e-001 
-3.552622e-001 
-3.896614e-001 
-3.518538e-001 
-3.065023e-001 
-2.895479e-001 
-2.145846e-001 
-1.589255e-001 
-2.556945e-001 
-3.289416e-001 
-2.636356e-001 
-1.586716e-001 
-7.160501e-002 
-2.446733e-002 
1.049918e-003 
3.029943e-002 
1.975402e-002 
2.838981e-002 
1.541613e-001 
3.202787e-001 
4.548162e-001 
5.686051e-001 
6.657637e-001 
7.536802e-001 
8.446546e-001 
9.371849e-001 
1.031286e+000 
1.120910e+000 
1.197814e+000 
1.262415e+000 
1.310078e+000 
1.337573e+000 
1.342859e+000 
1.324107e+000 
1.286833e+000 
1.232985e+000 
1.159895e+000 
1.069342e+000 
9.622495e-001 
8.420949e-001 
7.129934e-001 
5.764620e-001 
4.391403e-001 
3.057364e-001 
1.764027e-001 
5.266125e-002 
-6.264335e-002 
-1.643311e-001 
-2.479317e-001 
-3.154869e-001 
-3.644599e-001 
-3.956652e-001 
-4.160956e-001 
-4.297036e-001 
-4.378317e-001 
-4.412769e-001 
-4.418823e-001 
-4.440469e-001 
-4.453544e-001 
-4.450735e-001 
-4.476869e-001 
-4.527871e-001 
-4.578653e-001 
-4.612761e-001 
-4.653013e-001 
-4.729745e-001 
-4.801382e-001 
-4.840548e-001 
-4.914404e-001 
-4.992735e-001 
-5.046568e-001 
-5.070792e-001 
-5.087362e-001 
-5.126550e-001 
-5.152272e-001 
-5.139574e-001 
-5.142406e-001 
-5.153977e-001 
-5.127984e-001 
-5.090934e-001 
-5.049462e-001 
-5.014680e-001 
-4.954377e-001 
-4.882349e-001 
-4.828033e-001 
-4.763970e-001 
-4.669110e-001 
-4.582289e-001 
-4.516128e-001 
-4.449357e-001 
-4.345524e-001 
-4.217383e-001 
-4.113457e-001 
-3.975477e-001 
-3.773853e-001 
-3.567722e-001 
-3.435255e-001 
-3.358079e-001 
-3.277835e-001 
-3.208893e-001 
-3.179557e-001 
-3.160092e-001 
-3.107366e-001 
-3.051532e-001 
-3.070747e-001 
-3.167770e-001 
-3.213543e-001 
-3.290023e-001 
-3.241054e-001 
-2.848200e-001 
-2.384806e-001 
-2.062346e-001 
-1.465671e-001 
-1.130257e-001 
-1.818145e-001 
-2.728816e-001 
-3.243543e-001 
-3.135373e-001 
-2.695706e-001 
-2.484438e-001 
-2.096498e-001 
-1.472329e-001 
-2.064284e-001 
-3.034397e-001 
-2.659433e-001 
-1.710405e-001 
-8.949113e-002 
-3.214751e-002 
-1.113457e-003 
2.053899e-002 
2.502363e-002 
2.765133e-002 
1.268823e-001 
2.957760e-001 
4.449637e-001 
5.748210e-001 
6.898726e-001 
7.848853e-001 
8.704072e-001 
9.636570e-001 
1.053138e+000 
1.135031e+000 
1.210590e+000 
1.273877e+000 
1.318697e+000 
1.342974e+000 
1.347037e+000 
1.333696e+000 
1.300234e+000 
1.245562e+000 
1.175320e+000 
1.089873e+000 
9.898168e-001 
8.747709e-001 
7.526564e-001 
6.271364e-001 
4.978026e-001 
3.678390e-001 
2.432966e-001 
1.263491e-001 
1.934377e-002 
-7.540432e-002 
-1.540114e-001 
-2.139816e-001 
-2.616145e-001 
-2.951895e-001 
-3.136457e-001 
-3.230013e-001 
-3.282502e-001 
-3.290385e-001 
-3.272866e-001 
-3.251323e-001 
-3.270044e-001 
-3.308103e-001 
-3.316504e-001 
-3.338513e-001 
-3.394146e-001 
-3.456133e-001 
-3.493177e-001 
-3.545295e-001 
-3.636842e-001 
-3.738450e-001 
-3.802936e-001 
-3.865727e-001 
-3.940690e-001 
-4.008024e-001 
-4.036873e-001 
-4.058383e-001 
-4.119063e-001 
-4.161441e-001 
-4.163243e-001 
-4.147471e-001 
-4.132175e-001 
-4.119492e-001 
-4.066295e-001 
-3.992453e-001 
-3.968846e-001 
-3.919874e-001 
-3.809270e-001 
-3.671501e-001 
-3.527219e-001 
-3.352821e-001 
-3.128007e-001 
-2.885527e-001 
-2.737458e-001 
-2.647246e-001 
-2.549820e-001 
-2.462090e-001 
-2.397013e-001 
-2.358199e-001 
-2.265022e-001 
-2.183939e-001 
-2.196418e-001 
-2.268032e-001 
-2.314478e-001 
-2.418508e-001 
-2.385808e-001 
-2.017491e-001 
-1.700837e-001 
-1.559539e-001 
-1.166667e-001 
-9.224031e-002 
-1.634783e-001 
-2.621588e-001 
-3.126343e-001 
-2.879136e-001 
-2.311824e-001 
-2.151567e-001 
-1.775615e-001 
-1.043930e-001 
-1.438080e-001 
-2.341173e-001 
-1.911053e-001 
-7.807847e-002 
2.416090e-002 
8.900029e-002 
1.187781e-001 
1.562509e-001 
1.839328e-001 
2.014720e-001 
3.069038e-001 
4.844218e-001 
6.400558e-001 
7.707294e-001 
8.782987e-001 
9.681032e-001 
1.060981e+000 
1.161561e+000 
1.257615e+000 
1.345989e+000 
1.428382e+000 
1.498259e+000 
1.544592e+000 
1.565037e+000 
1.566080e+000 
1.548579e+000 
1.507266e+000 
1.442867e+000 
1.363635e+000 
1.269235e+000 
1.151844e+000 
1.017438e+000 
8.767874e-001 
7.347323e-001 
5.891046e-001 
4.415966e-001 
3.007119e-001 
1.713986e-001 
4.995659e-002 
-5.821020e-002 
-1.445778e-001 
-2.098348e-001 
-2.565973e-001 
-2.901130e-001 
-3.091577e-001 
-3.176399e-001 
-3.220313e-001 
-3.245118e-001 
-3.236564e-001 
-3.222667e-001 
-3.222271e-001 
-3.242321e-001 
-3.253485e-001 
-3.251430e-001 
-3.308731e-001 
-3.368216e-001 
-3.431891e-001 
-3.495402e-001 
-3.564767e-001 
-3.645359e-001 
-3.704652e-001 
-3.753833e-001 
-3.844403e-001 
-3.928133e-001 
-3.961131e-001 
-4.001227e-001 
-4.029640e-001 
-4.050082e-001 
-4.035276e-001 
-4.007346e-001 
-4.014621e-001 
-4.016958e-001 
-3.977288e-001 
-3.906392e-001 
-3.857209e-001 
-3.805017e-001 
-3.682911e-001 
-3.524615e-001 
-3.386692e-001 
-3.220555e-001 
-2.989632e-001 
-2.727273e-001 
-2.495041e-001 
-2.338212e-001 
-2.151131e-001 
-1.927714e-001 
-1.759998e-001 
-1.597711e-001 
-1.374589e-001 
-1.140073e-001 
-9.504958e-002 
-8.008116e-002 
-6.300176e-002 
-4.397503e-002 
-2.254548e-002 
9.483461e-003 
4.415245e-002 
7.291802e-002 
1.046142e-001 
1.320959e-001 
1.377639e-001 
1.367000e-001 
1.466944e-001 
1.801478e-001 
2.224225e-001 
2.494687e-001 
2.781176e-001 
3.146232e-001 
3.224983e-001 
3.136375e-001 
3.336559e-001 
3.714078e-001 
4.060644e-001 
4.243786e-001 
4.311880e-001 
4.396413e-001 
4.451407e-001 
4.459902e-001 
4.645671e-001 
5.013809e-001 
5.346181e-001 
5.597574e-001 
5.765951e-001 
5.903186e-001 
6.054713e-001 
6.221912e-001 
6.359092e-001 
6.492496e-001 
6.651017e-001 
6.785814e-001 
6.856789e-001 
6.885229e-001 
6.894885e-001 
6.855330e-001 
6.730356e-001 
6.548938e-001 
6.345140e-001 
6.087747e-001 
5.753798e-001 
5.368662e-001 
4.972475e-001 
4.538041e-001 
4.034032e-001 
3.501254e-001 
2.988399e-001 
2.479048e-001 
1.957570e-001 
1.437706e-001 
9.658590e-002 
5.334207e-002 
9.771122e-003 
-3.129609e-002 
-6.532714e-002 
-9.474035e-002 
-1.235358e-001 
-1.516179e-001 
-1.758021e-001 
-1.985689e-001 
-2.249453e-001 
-2.513398e-001 
-2.741216e-001 
-2.944024e-001 
-3.157559e-001 
-3.370810e-001 
-3.547742e-001 
-3.714614e-001 
-3.930596e-001 
-4.138595e-001 
-4.287090e-001 
-4.409762e-001 
-4.538261e-001 
-4.656395e-001 
-4.731821e-001 
-4.789704e-001 
-4.876893e-001 
-4.957500e-001 
-4.974231e-001 
-4.958156e-001 
-4.966722e-001 
-4.980220e-001 
-4.948511e-001 
-4.904218e-001 
-4.872779e-001 
-4.853431e-001 
-4.798410e-001 
-4.692026e-001 
-4.570185e-001 
-4.454538e-001 
-4.270233e-001 
-4.037606e-001 
-3.851479e-001 
-3.738154e-001 
-3.679595e-001 
-3.622683e-001 
-3.562350e-001 
-3.524344e-001 
-3.482525e-001 
-3.383811e-001 
-3.352624e-001 
-3.423919e-001 
-3.526950e-001 
-3.613665e-001 
-3.746246e-001 
-3.623208e-001 
-3.193575e-001 
-2.965912e-001 
-2.712443e-001 
-2.113136e-001 
-2.193600e-001 
-3.145940e-001 
-3.975971e-001 
-4.203897e-001 
-3.613161e-001 
-3.077544e-001 
-2.957592e-001 
-2.192598e-001 
-1.718444e-001 
-2.727745e-001 
-3.220438e-001 
-2.315594e-001 
-1.084130e-001 
-1.082111e-002 
2.827180e-002 
5.218330e-002 
9.214932e-002 
9.388049e-002 
1.268983e-001 
2.757737e-001 
4.546291e-001 
5.971442e-001 
7.080881e-001 
7.995536e-001 
8.880418e-001 
9.825602e-001 
1.075388e+000 
1.163519e+000 
1.247000e+000 
1.319332e+000 
1.371007e+000 
1.401273e+000 
1.412092e+000 
1.401670e+000 
1.369212e+000 
1.315689e+000 
1.247673e+000 
1.163450e+000 
1.058191e+000 
9.365456e-001 
8.048606e-001 
6.669887e-001 
5.246953e-001 
3.834249e-001 
2.480647e-001 
1.198681e-001 
-3.838336e-003 
-1.171355e-001 
-2.116385e-001 
-2.864950e-001 
-3.449130e-001 
-3.867030e-001 
-4.112880e-001 
-4.255065e-001 
-4.352010e-001 
-4.410010e-001 
-4.410277e-001 
-4.379944e-001 
-4.381104e-001 
-4.408319e-001 
-4.404849e-001 
-4.401594e-001 
-4.436951e-001 
-4.478694e-001 
-4.509340e-001 
-4.550962e-001 
-4.610707e-001 
-4.699780e-001 
-4.764246e-001 
-4.804228e-001 
-4.880888e-001 
-4.955209e-001 
-5.003396e-001 
-5.057663e-001 
-5.112989e-001 
-5.153765e-001 
-5.176357e-001 
-5.168839e-001 
-5.184342e-001 
-5.195516e-001 
-5.172067e-001 
-5.145916e-001 
-5.121011e-001 
-5.075752e-001 
-5.018897e-001 
-4.951358e-001 
-4.889781e-001 
-4.795365e-001 
-4.648251e-001 
-4.464181e-001 
-4.261128e-001 
-4.058684e-001 
-3.883157e-001 
-3.777281e-001 
-3.724090e-001 
-3.685451e-001 
-3.623811e-001 
-3.562605e-001 
-3.492916e-001 
-3.459790e-001 
-3.459949e-001 
-3.509434e-001 
-3.605875e-001 
-3.756008e-001 
-3.661129e-001 
-3.219784e-001 
-2.959843e-001 
-2.717821e-001 
-1.981939e-001 
-1.802185e-001 
-2.731505e-001 
-3.666440e-001 
-3.962601e-001 
-3.443334e-001 
-2.868633e-001 
-2.734890e-001 
-1.955909e-001 
-1.246580e-001 
-2.240467e-001 
-3.066255e-001 
-2.273631e-001 
-1.029649e-001 
-6.404226e-003 
3.639278e-002 
5.891107e-002 
9.663068e-002 
9.156019e-002 
9.820184e-002 
2.317910e-001 
4.134994e-001 
5.537953e-001 
6.662255e-001 
7.619801e-001 
8.513429e-001 
9.442250e-001 
1.039134e+000 
1.133631e+000 
1.222151e+000 
1.296873e+000 
1.356867e+000 
1.400895e+000 
1.422295e+000 
1.417730e+000 
1.391918e+000 
1.348103e+000 
1.286533e+000 
1.204683e+000 
1.106890e+000 
9.953298e-001 
8.702826e-001 
7.329288e-001 
5.893572e-001 
4.495474e-001 
3.147285e-001 
1.820862e-001 
5.699419e-002 
-5.270235e-002 
-1.490828e-001 
-2.294203e-001 
-2.937179e-001 
-3.386955e-001 
-3.644277e-001 
-3.803595e-001 
-3.916307e-001 
-3.937809e-001 
-3.926577e-001 
-3.950375e-001 
-3.981095e-001 
-3.999839e-001 
-3.990592e-001 
-3.983161e-001 
-4.015282e-001 
-4.047001e-001 
-4.069583e-001 
-4.141985e-001 
-4.246860e-001 
-4.325062e-001 
-4.365563e-001 
-4.425035e-001 
-4.492853e-001 
-4.535935e-001 
-4.567899e-001 
-4.625187e-001 
-4.684573e-001 
-4.719382e-001 
-4.718292e-001 
-4.728037e-001 
-4.749631e-001 
-4.715026e-001 
-4.665262e-001 
-4.661114e-001 
-4.648245e-001 
-4.598312e-001 
-4.543615e-001 
-4.488680e-001 
-4.425070e-001 
-4.298974e-001 
-4.141505e-001 
-4.007697e-001 
-3.851585e-001 
-3.638223e-001 
-3.469932e-001 
-3.373172e-001 
-3.303315e-001 
-3.223035e-001 
-3.142892e-001 
-3.107776e-001 
-3.065734e-001 
-2.993531e-001 
-2.964942e-001 
-3.044748e-001 
-3.109935e-001 
-3.204545e-001 
-3.152111e-001 
-2.783857e-001 
-2.388945e-001 
-2.114417e-001 
-1.522506e-001 
-1.145354e-001 
-1.880029e-001 
-2.842289e-001 
-3.324038e-001 
-3.139082e-001 
-2.615403e-001 
-2.374491e-001 
-1.933243e-001 
-1.193190e-001 
-1.759614e-001 
-2.811283e-001 
-2.368825e-001 
-1.307028e-001 
-3.990795e-002 
2.106835e-002 
4.843214e-002 
7.439417e-002 
8.073102e-002 
7.716797e-002 
1.774326e-001 
3.504575e-001 
4.947404e-001 
6.188845e-001 
7.235891e-001 
8.088822e-001 
8.908067e-001 
9.789191e-001 
1.067422e+000 
1.146861e+000 
1.216133e+000 
1.275514e+000 
1.317555e+000 
1.334910e+000 
1.330967e+000 
1.311494e+000 
1.275481e+000 
1.217839e+000 
1.142689e+000 
1.056638e+000 
9.558272e-001 
8.379347e-001 
7.101978e-001 
5.843683e-001 
4.602307e-001 
3.348663e-001 
2.108588e-001 
9.732958e-002 
-5.085451e-003 
-9.796895e-002 
-1.762025e-001 
-2.322162e-001 
-2.687950e-001 
-2.951661e-001 
-3.125844e-001 
-3.220128e-001 
-3.231887e-001 
-3.232304e-001 
-3.242541e-001 
-3.228188e-001 
-3.197587e-001 
-3.218317e-001 
-3.253936e-001 
-3.286993e-001 
-3.309983e-001 
-3.345045e-001 
-3.417486e-001 
-3.473631e-001 
-3.513055e-001 
-3.578295e-001 
-3.658433e-001 
-3.706044e-001 
-3.730880e-001 
-3.759632e-001 
-3.802004e-001 
-3.799788e-001 
-3.787741e-001 
-3.800300e-001 
-3.809535e-001 
-3.799169e-001 
-3.735046e-001 
-3.653692e-001 
-3.572901e-001 
-3.426531e-001 
-3.241836e-001 
-3.087486e-001 
-2.947102e-001 
-2.831277e-001 
-2.735293e-001 
-2.658601e-001 
-2.627339e-001 
-2.571411e-001 
-2.511655e-001 
-2.494445e-001 
-2.517020e-001 
-2.566364e-001 
-2.626234e-001 
-2.692734e-001 
-2.793443e-001 
-2.617512e-001 
-2.100515e-001 
-1.826995e-001 
-1.658221e-001 
-1.214366e-001 
-1.328838e-001 
-2.225599e-001 
-3.046469e-001 
-3.318129e-001 
-2.860123e-001 
-2.383874e-001 
-2.357421e-001 
-1.844208e-001 
-1.448925e-001 
-2.257734e-001 
-2.682029e-001 
-1.899177e-001 
-8.345386e-002 
3.315431e-003 
4.506653e-002 
6.643991e-002 
1.066947e-001 
1.229172e-001 
1.670420e-001 
3.149980e-001 
4.920145e-001 
6.379597e-001 
7.602532e-001 
8.651393e-001 
9.601939e-001 
1.056408e+000 
1.149766e+000 
1.243690e+000 
1.331276e+000 
1.402239e+000 
1.453122e+000 
1.486401e+000 
1.502159e+000 
1.493066e+000 
1.460434e+000 
1.408242e+000 
1.340240e+000 
1.252202e+000 
1.144333e+000 
1.022076e+000 
8.917054e-001 
7.530396e-001 
6.095006e-001 
4.680156e-001 
3.308080e-001 
1.994605e-001 
7.470172e-002 
-3.698092e-002 
-1.300411e-001 
-2.048694e-001 
-2.610493e-001 
-2.974724e-001 
-3.206559e-001 
-3.359959e-001 
-3.456991e-001 
-3.492991e-001 
-3.470172e-001 
-3.442551e-001 
-3.439062e-001 
-3.415409e-001 
-3.412463e-001 
-3.461147e-001 
-3.517315e-001 
-3.546885e-001 
-3.575946e-001 
-3.628791e-001 
-3.718588e-001 
-3.796087e-001 
-3.846527e-001 
-3.932877e-001 
-4.025839e-001 
-4.079410e-001 
-4.119651e-001 
-4.190681e-001 
-4.262806e-001 
-4.297707e-001 
-4.293143e-001 
-4.289992e-001 
-4.263788e-001 
-4.165575e-001 
-4.038236e-001 
-3.902044e-001 
-3.754675e-001 
-3.585802e-001 
-3.432806e-001 
-3.353701e-001 
-3.309572e-001 
-3.233619e-001 
-3.171759e-001 
-3.148872e-001 
-3.108314e-001 
-3.066923e-001 
-3.054425e-001 
-3.096810e-001 
-3.163499e-001 
-3.265696e-001 
-3.226422e-001 
-2.883649e-001 
-2.592096e-001 
-2.418772e-001 
-1.944456e-001 
-1.624762e-001 
-2.258604e-001 
-3.179932e-001 
-3.584500e-001 
-3.258644e-001 
-2.651552e-001 
-2.420961e-001 
-1.962734e-001 
-1.237623e-001 
-1.622024e-001 
-2.521052e-001 
-2.107971e-001 
-9.569761e-002 
2.719835e-003 
6.098663e-002 
8.573716e-002 
1.141798e-001 
1.287976e-001 
1.355994e-001 
2.264375e-001 
3.896870e-001 
5.257264e-001 
6.318182e-001 
7.190929e-001 
7.897911e-001 
8.613269e-001 
9.423062e-001 
1.022812e+000 
1.096006e+000 
1.159934e+000 
1.212079e+000 
1.248885e+000 
1.264534e+000 
1.259987e+000 
1.239927e+000 
1.203864e+000 
1.147971e+000 
1.075174e+000 
9.901278e-001 
8.914832e-001 
7.774252e-001 
6.555616e-001 
5.319834e-001 
4.070087e-001 
2.808274e-001 
1.569536e-001 
4.211453e-002 
-6.205195e-002 
-1.573334e-001 
-2.368199e-001 
-2.965208e-001 
-3.383488e-001 
-3.675612e-001 
-3.878474e-001 
-3.990676e-001 
-4.035320e-001 
-4.069694e-001 
-4.101037e-001 
-4.112502e-001 
-4.121951e-001 
-4.120737e-001 
-4.166422e-001 
-4.213710e-001 
-4.251319e-001 
-4.308589e-001 
-4.374056e-001 
-4.433653e-001 
-4.506766e-001 
-4.570946e-001 
-4.641010e-001 
-4.732232e-001 
-4.780275e-001 
-4.843419e-001 
-4.905482e-001 
-4.938312e-001 
-4.968139e-001 
-5.002354e-001 
-5.014193e-001 
-5.014137e-001 
-4.992529e-001 
-4.965774e-001 
-4.935475e-001 
-4.838141e-001 
-4.711204e-001 
-4.568004e-001 
-4.393739e-001 
-4.192323e-001 
-4.031259e-001 
-3.940826e-001 
-3.902076e-001 
-3.848831e-001 
-3.786388e-001 
-3.756690e-001 
-3.707557e-001 
-3.649986e-001 
-3.650561e-001 
-3.728426e-001 
-3.823290e-001 
-3.965288e-001 
-3.854442e-001 
-3.427956e-001 
-3.173417e-001 
-2.968751e-001 
-2.384335e-001 
-2.290496e-001 
-3.186260e-001 
-4.082456e-001 
-4.334289e-001 
-3.810205e-001 
-3.234371e-001 
-3.099087e-001 
-2.476072e-001 
-1.841942e-001 
-2.657489e-001 
-3.384869e-001 
-2.598538e-001 
-1.371751e-001 
-4.444244e-002 
6.630637e-004 
2.293536e-002 
5.900372e-002 
6.654611e-002 
8.584171e-002 
2.170554e-001 
3.941789e-001 
5.313454e-001 
6.432291e-001 
7.394340e-001 
8.254117e-001 
9.156828e-001 
1.011296e+000 
1.105547e+000 
1.190862e+000 
1.263338e+000 
1.320386e+000 
1.357876e+000 
1.369136e+000 
1.355992e+000 
1.324104e+000 
1.274554e+000 
1.204748e+000 
1.117427e+000 
1.015497e+000 
8.987669e-001 
7.663350e-001 
6.242654e-001 
4.823525e-001 
3.425291e-001 
2.036674e-001 
6.923936e-002 
-5.230274e-002 
-1.611250e-001 
-2.582710e-001 
-3.372998e-001 
-3.928839e-001 
-4.292597e-001 
-4.533146e-001 
-4.681515e-001 
-4.712855e-001 
-4.682355e-001 
-4.703326e-001 
-4.729206e-001 
-4.709805e-001 
-4.698772e-001 
-4.709661e-001 
-4.720699e-001 
-4.715367e-001 
-4.712473e-001 
-4.781206e-001 
-4.879019e-001 
-4.922820e-001 
-4.970142e-001 
-5.046838e-001 
-5.104632e-001 
-5.141459e-001 
-5.187586e-001 
-5.275706e-001 
-5.365637e-001 
-5.398751e-001 
-5.408428e-001 
-5.432111e-001 
-5.435259e-001 
-5.413466e-001 
-5.395384e-001 
-5.409740e-001 
-5.414336e-001 
-5.353171e-001 
-5.283848e-001 
-5.236578e-001 
-5.182878e-001 
-5.079365e-001 
-4.953959e-001 
-4.842063e-001 
-4.697052e-001 
-4.464373e-001 
-4.220946e-001 
-4.084239e-001 
-4.007614e-001 
-3.936156e-001 
-3.855800e-001 
-3.824455e-001 
-3.790433e-001 
-3.703972e-001 
-3.622035e-001 
-3.647186e-001 
-3.748986e-001 
-3.817315e-001 
-3.922038e-001 
-3.819560e-001 
-3.381809e-001 
-3.098329e-001 
-2.855704e-001 
-2.129594e-001 
-1.913653e-001 
-2.779441e-001 
-3.697187e-001 
-4.018299e-001 
-3.575156e-001 
-3.030040e-001 
-2.930387e-001 
-2.221037e-001 
-1.485474e-001 
-2.391863e-001 
-3.277975e-001 
-2.578112e-001 
-1.415686e-001 
-5.008205e-002 
-1.990046e-003 
1.809202e-002 
5.202890e-002 
4.965244e-002 
5.364009e-002 
1.749077e-001 
3.498546e-001 
4.877508e-001 
6.038498e-001 
6.992883e-001 
7.804516e-001 
8.718931e-001 
9.677970e-001 
1.058115e+000 
1.141450e+000 
1.217746e+000 
1.280634e+000 
1.325726e+000 
1.346951e+000 
1.349192e+000 
1.333709e+000 
1.293759e+000 
1.233452e+000 
1.159347e+000 
1.069988e+000 
9.636632e-001 
8.447206e-001 
7.181749e-001 
5.876742e-001 
4.524844e-001 
3.177181e-001 
1.905003e-001 
7.383649e-002 
-3.358157e-002 
-1.283435e-001 
-2.037665e-001 
-2.617408e-001 
-3.044415e-001 
-3.310296e-001 
-3.442781e-001 
-3.473519e-001 
-3.452059e-001 
-3.428969e-001 
-3.368467e-001 
-3.296714e-001 
-3.267547e-001 
-3.242087e-001 
-3.221401e-001 
-3.209825e-001 
-3.211468e-001 
-3.251206e-001 
-3.284663e-001 
-3.308644e-001 
-3.393539e-001 
-3.500291e-001 
-3.580157e-001 
-3.663082e-001 
-3.758117e-001 
-3.867340e-001 
-3.951126e-001 
-4.024185e-001 
-4.130237e-001 
-4.252824e-001 
-4.324859e-001 
-4.376989e-001 
-4.456284e-001 
-4.522783e-001 
-4.543946e-001 
-4.560961e-001 
-4.604599e-001 
-4.634680e-001 
-4.628329e-001 
-4.595514e-001 
-4.601870e-001 
-4.602007e-001 
-4.540057e-001 
-4.488470e-001 
-4.485807e-001 
-4.463557e-001 
-4.382274e-001 
-4.267136e-001 
-4.161473e-001 
-4.040195e-001 
-3.827777e-001 
-3.615955e-001 
-3.528278e-001 
-3.498162e-001 
-3.448810e-001 
-3.385164e-001 
-3.357558e-001 
-3.344261e-001 
-3.262302e-001 
-3.195622e-001 
-3.239854e-001 
-3.358549e-001 
-3.493165e-001 
-3.535257e-001 
-3.263985e-001 
-2.853710e-001 
-2.505116e-001 
-1.864035e-001 
-1.199196e-001 
-1.676186e-001 
-2.773586e-001 
-3.427232e-001 
-3.401120e-001 
-2.820287e-001 
-2.382807e-001 
-1.937896e-001 
-1.091096e-001 
-1.329984e-001 
-2.664717e-001 
-2.640185e-001 
-1.527000e-001 
-4.635914e-002 
3.115924e-002 
6.324185e-002 
7.986100e-002 
8.515566e-002 
6.308579e-002 
1.263857e-001 
2.993926e-001 
4.575203e-001 
5.850118e-001 
6.925387e-001 
7.815161e-001 
8.686754e-001 
9.637397e-001 
1.056906e+000 
1.146010e+000 
1.226107e+000 
1.295167e+000 
1.351721e+000 
1.384547e+000 
1.395403e+000 
1.386354e+000 
1.355020e+000 
1.303250e+000 
1.235637e+000 
1.153008e+000 
1.055607e+000 
9.387526e-001 
8.064097e-001 
6.703314e-001 
5.315185e-001 
3.929257e-001 
2.574405e-001 
1.316277e-001 
1.515966e-002 
-9.439793e-002 
-1.894788e-001 
-2.648490e-001 
-3.199328e-001 
-3.578144e-001 
-3.838019e-001 
-3.996526e-001 
-4.054593e-001 
-4.108226e-001 
-4.147124e-001 
-4.140212e-001 
-4.128354e-001 
-4.114230e-001 
-4.113447e-001 
-4.124290e-001 
-4.140563e-001 
-4.181537e-001 
-4.251100e-001 
-4.315504e-001 
-4.364543e-001 
-4.420956e-001 
-4.499635e-001 
-4.554763e-001 
-4.608827e-001 
-4.703711e-001 
-4.778289e-001 
-4.832654e-001 
-4.881840e-001 
-4.912935e-001 
-4.960270e-001 
-4.990881e-001 
-4.978183e-001 
-5.001116e-001 
-5.022975e-001 
-4.981350e-001 
-4.944560e-001 
-4.917653e-001 
-4.886005e-001 
-4.834397e-001 
-4.774957e-001 
-4.721792e-001 
-4.675101e-001 
-4.606248e-001 
-4.518273e-001 
-4.457044e-001 
-4.408614e-001 
-4.326752e-001 
-4.217614e-001 
-4.131395e-001 
-4.010327e-001 
-3.856009e-001 
-3.673725e-001 
-3.475319e-001 
-3.320281e-001 
-3.218344e-001 
-3.134329e-001 
-3.096942e-001 
-3.082568e-001 
-3.036809e-001 
-2.966005e-001 
-2.903340e-001 
-2.902820e-001 
-2.957967e-001 
-3.018494e-001 
-3.115789e-001 
-3.150781e-001 
-2.831261e-001 
-2.277297e-001 
-1.918586e-001 
-1.422410e-001 
-9.070372e-002 
-1.411581e-001 
-2.368278e-001 
-2.978852e-001 
-3.034941e-001 
-2.543714e-001 
-2.221296e-001 
-1.995690e-001 
-1.312797e-001 
-1.598411e-001 
-2.747788e-001 
-2.619304e-001 
-1.723069e-001 
-8.937204e-002 
-2.410503e-002 
4.268462e-003 
2.397330e-002 
3.410261e-002 
1.970866e-002 
9.062957e-002 
2.522000e-001 
3.970263e-001 
5.210053e-001 
6.297706e-001 
7.219240e-001 
8.013427e-001 
8.787704e-001 
9.584344e-001 
1.036993e+000 
1.110249e+000 
1.172982e+000 
1.222964e+000 
1.259953e+000 
1.277753e+000 
1.270440e+000 
1.246053e+000 
1.207597e+000 
1.153785e+000 
1.084638e+000 
9.989394e-001 
9.011159e-001 
7.947881e-001 
6.763159e-001 
5.530810e-001 
4.353693e-001 
3.203657e-001 
2.077954e-001 
9.944669e-002 
6.212249e-004 
-8.355305e-002 
-1.542332e-001 
-2.131543e-001 
-2.534483e-001 
-2.773684e-001 
-2.938391e-001 
-3.049421e-001 
-3.102951e-001 
-3.113429e-001 
-3.114455e-001 
-3.134475e-001 
-3.166053e-001 
-3.162338e-001 
-3.164808e-001 
-3.207962e-001 
-3.243259e-001 
-3.284003e-001 
-3.355930e-001 
-3.428606e-001 
-3.510275e-001 
-3.577752e-001 
-3.623844e-001 
-3.700044e-001 
-3.773096e-001 
-3.816111e-001 
-3.889585e-001 
-3.964154e-001 
-4.001883e-001 
-4.024837e-001 
-4.035015e-001 
-4.055656e-001 
-4.058884e-001 
-4.028927e-001 
-4.019924e-001 
-4.033642e-001 
-3.996186e-001 
-3.923896e-001 
-3.872293e-001 
-3.844697e-001 
-3.772997e-001 
-3.645964e-001 
-3.521622e-001 
-3.411067e-001 
-3.241700e-001 
-2.995858e-001 
-2.795241e-001 
-2.696869e-001 
-2.610123e-001 
-2.516305e-001 
-2.459501e-001 
-2.425750e-001 
-2.394339e-001 
-2.309439e-001 
-2.255847e-001 
-2.318709e-001 
-2.401537e-001 
-2.463570e-001 
-2.518350e-001 
-2.256366e-001 
-1.821693e-001 
-1.644445e-001 
-1.340546e-001 
-9.252222e-002 
-1.419949e-001 
-2.436998e-001 
-3.120029e-001 
-3.185341e-001 
-2.632540e-001 
-2.312607e-001 
-2.145749e-001 
-1.426137e-001 
-1.404194e-001 
-2.411504e-001 
-2.369589e-001 
-1.345255e-001 
-2.835855e-002 
5.203491e-002 
8.978740e-002 
1.227349e-001 
1.604774e-001 
1.758046e-001 
2.539127e-001 
4.273280e-001 
5.967703e-001 
7.379549e-001 
8.569726e-001 
9.575319e-001 
1.053771e+000 
1.155053e+000 
1.253542e+000 
1.345661e+000 
1.428956e+000 
1.498682e+000 
1.548877e+000 
1.576902e+000 
1.583940e+000 
1.567074e+000 
1.523501e+000 
1.460593e+000 
1.380582e+000 
1.282229e+000 
1.166704e+000 
1.036991e+000 
8.974717e-001 
7.493491e-001 
5.952834e-001 
4.421046e-001 
2.973825e-001 
1.608092e-001 
3.436698e-002 
-7.869603e-002 
-1.709829e-001 
-2.448433e-001 
-3.029428e-001 
-3.418002e-001 
-3.635621e-001 
-3.722469e-001 
-3.761085e-001 
-3.784977e-001 
-3.768114e-001 
-3.720072e-001 
-3.724984e-001 
-3.714388e-001 
-3.678016e-001 
-3.654260e-001 
-3.651138e-001 
-3.695296e-001 
-3.729641e-001 
-3.746225e-001 
-3.800591e-001 
-3.867741e-001 
-3.907120e-001 
-3.971048e-001 
-4.034789e-001 
-4.107696e-001 
-4.168403e-001 
-4.194447e-001 
-4.244551e-001 
-4.313596e-001 
-4.342076e-001 
-4.360085e-001 
-4.371041e-001 
-4.356959e-001 
-4.340422e-001 
-4.302489e-001 
-4.279096e-001 
-4.278312e-001 
-4.248132e-001 
-4.183974e-001 
-4.132565e-001 
-4.072243e-001 
-4.011993e-001 
-3.939227e-001 
-3.836766e-001 
-3.727625e-001 
-3.571131e-001 
-3.357636e-001 
-3.157824e-001 
-3.017394e-001 
-2.924627e-001 
-2.873268e-001 
-2.828784e-001 
-2.798793e-001 
-2.759687e-001 
-2.680163e-001 
-2.627716e-001 
-2.662762e-001 
-2.737722e-001 
-2.807667e-001 
-2.932431e-001 
-2.850411e-001 
-2.408128e-001 
-2.081604e-001 
-1.773530e-001 
-1.129447e-001 
-1.088173e-001 
-1.957490e-001 
-2.782847e-001 
-3.050259e-001 
-2.536496e-001 
-1.907746e-001 
-1.718293e-001 
-1.037850e-001 
-5.115773e-002 
-1.414906e-001 
-2.012732e-001 
-1.193117e-001 
-1.033758e-003 
9.697321e-002 
1.427056e-001 
1.605223e-001 
1.948870e-001 
1.988662e-001 
2.232333e-001 
3.614327e-001 
5.391230e-001 
6.826035e-001 
8.004365e-001 
8.963126e-001 
9.913745e-001 
1.094167e+000 
1.192174e+000 
1.286241e+000 
1.374889e+000 
1.452366e+000 
1.513371e+000 
1.550376e+000 
1.565552e+000 
1.560826e+000 
1.527280e+000 
1.471922e+000 
1.400768e+000 
1.312338e+000 
1.207458e+000 
1.083970e+000 
9.446047e-001 
7.982349e-001 
6.467343e-001 
4.956595e-001 
3.498600e-001 
2.105152e-001 
8.062490e-002 
-3.828356e-002 
-1.411022e-001 
-2.241348e-001 
-2.886950e-001 
-3.332115e-001 
-3.591760e-001 
-3.756866e-001 
-3.842058e-001 
-3.888485e-001 
-3.886295e-001 
-3.834838e-001 
-3.821679e-001 
-3.829341e-001 
-3.793968e-001 
-3.752878e-001 
-3.767256e-001 
-3.787331e-001 
-3.805228e-001 
-3.796481e-001 
-3.825149e-001 
-3.903105e-001 
-3.958966e-001 
-3.980245e-001 
-4.035807e-001 
-4.114395e-001 
-4.149734e-001 
-4.170507e-001 
-4.205646e-001 
-4.264385e-001 
-4.291537e-001 
-4.293136e-001 
-4.296116e-001 
-4.306200e-001 
-4.286461e-001 
-4.241766e-001 
-4.210138e-001 
-4.200093e-001 
-4.159621e-001 
-4.090383e-001 
-4.040996e-001 
-4.004003e-001 
-3.910831e-001 
-3.780351e-001 
-3.649541e-001 
-3.504014e-001 
-3.325375e-001 
-3.124921e-001 
-2.970125e-001 
-2.887228e-001 
-2.813450e-001 
-2.729492e-001 
-2.709417e-001 
-2.701483e-001 
-2.644186e-001 
-2.599715e-001 
-2.622475e-001 
-2.699888e-001 
-2.765486e-001 
-2.898888e-001 
-2.883031e-001 
-2.491441e-001 
-2.122485e-001 
-1.783405e-001 
-1.006436e-001 
-5.988384e-002 
-1.378563e-001 
-2.386782e-001 
-2.841147e-001 
-2.474677e-001 
-1.828833e-001 
-1.579079e-001 
-8.958018e-002 
-9.422753e-003 
-9.077913e-002 
-2.030058e-001 
-1.491870e-001 
-2.681056e-002 
7.516350e-002 
1.305754e-001 
1.480489e-001 
1.721949e-001 
1.648207e-001 
1.529576e-001 
2.587998e-001 
4.415213e-001 
5.926196e-001 
7.141659e-001 
8.128368e-001 
8.997780e-001 
9.973084e-001 
1.098932e+000 
1.194846e+000 
1.285734e+000 
1.370651e+000 
1.442586e+000 
1.495796e+000 
1.527010e+000 
1.538005e+000 
1.527032e+000 
1.488067e+000 
1.426937e+000 
1.349584e+000 
1.256807e+000 
1.148754e+000 
1.023356e+000 
8.855541e-001 
7.406302e-001 
5.912519e-001 
4.413465e-001 
2.980622e-001 
1.642972e-001 
4.155427e-002 
-7.020193e-002 
-1.663591e-001 
-2.419604e-001 
-2.987182e-001 
-3.381499e-001 
-3.616133e-001 
-3.735875e-001 
-3.802359e-001 
-3.837990e-001 
-3.832233e-001 
-3.797185e-001 
-3.781701e-001 
-3.797283e-001 
-3.792378e-001 
-3.777325e-001 
-3.805730e-001 
-3.858504e-001 
-3.888127e-001 
-3.891696e-001 
-3.942482e-001 
-4.031359e-001 
-4.082346e-001 
-4.112914e-001 
-4.192868e-001 
-4.290281e-001 
-4.352791e-001 
-4.380147e-001 
-4.423419e-001 
-4.502123e-001 
-4.542508e-001 
-4.538192e-001 
-4.565260e-001 
-4.605246e-001 
-4.584444e-001 
-4.536328e-001 
-4.510293e-001 
-4.502369e-001 
-4.474854e-001 
-4.424999e-001 
-4.379365e-001 
-4.334798e-001 
-4.233011e-001 
-4.068130e-001 
-3.916241e-001 
-3.764947e-001 
-3.569412e-001 
-3.385036e-001 
-3.283511e-001 
-3.227069e-001 
-3.165287e-001 
-3.082886e-001 
-3.022989e-001 
-2.994614e-001 
-2.949003e-001 
-2.918070e-001 
-2.962345e-001 
-3.059329e-001 
-3.190142e-001 
-3.179486e-001 
-2.843892e-001 
-2.446265e-001 
-2.039813e-001 
-1.204083e-001 
-6.554052e-002 
-1.358377e-001 
-2.388728e-001 
-2.889577e-001 
-2.676425e-001 
-2.045658e-001 
-1.636125e-001 
-9.605921e-002 
-1.512774e-002 
-8.727784e-002 
-2.082471e-001 
-1.657140e-001 
-4.940397e-002 
5.392465e-002 
1.216057e-001 
1.452015e-001 
1.612092e-001 
1.480846e-001 
1.282837e-001 
2.245871e-001 
4.021307e-001 
5.499748e-001 
6.726328e-001 
7.741693e-001 
8.619069e-001 
9.518316e-001 
1.050749e+000 
1.148716e+000 
1.236930e+000 
1.316434e+000 
1.384337e+000 
1.435855e+000 
1.464378e+000 
1.468823e+000 
1.454571e+000 
1.421040e+000 
1.360957e+000 
1.282496e+000 
1.190042e+000 
1.082784e+000 
9.589149e-001 
8.207846e-001 
6.807777e-001 
5.401755e-001 
3.960463e-001 
2.560445e-001 
1.242468e-001 
3.706180e-003 
-1.031856e-001 
-1.958543e-001 
-2.654061e-001 
-3.133369e-001 
-3.494788e-001 
-3.714657e-001 
-3.825805e-001 
-3.891346e-001 
-3.892892e-001 
-3.885143e-001 
-3.860364e-001 
-3.843408e-001 
-3.862542e-001 
-3.896950e-001 
-3.912080e-001 
-3.942069e-001 
-3.984478e-001 
-4.026288e-001 
-4.067140e-001 
-4.121383e-001 
-4.212328e-001 
-4.291364e-001 
-4.362423e-001 
-4.416298e-001 
-4.466022e-001 
-4.520751e-001 
-4.552072e-001 
-4.572830e-001 
-4.622968e-001 
-4.661530e-001 
-4.669408e-001 
-4.662423e-001 
-4.653025e-001 
-4.625053e-001 
-4.586198e-001 
-4.533696e-001 
-4.507964e-001 
-4.492264e-001 
-4.445667e-001 
-4.377555e-001 
-4.307327e-001 
-4.211768e-001 
-4.068443e-001 
-3.907265e-001 
-3.724843e-001 
-3.542083e-001 
-3.378713e-001 
-3.267335e-001 
-3.197021e-001 
-3.140236e-001 
-3.073035e-001 
-2.998591e-001 
-2.920913e-001 
-2.852267e-001 
-2.852306e-001 
-2.906806e-001 
-2.972563e-001 
-3.075585e-001 
-3.006081e-001 
-2.571420e-001 
-1.983615e-001 
-1.524443e-001 
-8.490475e-002 
-2.493219e-002 
-7.565023e-002 
-1.756040e-001 
-2.307593e-001 
-2.213936e-001 
-1.741189e-001 
-1.457815e-001 
-1.107921e-001 
-3.974003e-002 
-8.450103e-002 
-2.119662e-001 
-1.995526e-001 
-1.007414e-001 
-1.913737e-002 
3.647173e-002 
6.198882e-002 
7.843120e-002 
7.641989e-002 
5.274652e-002 
1.276214e-001 
3.023327e-001 
4.577668e-001 
5.917056e-001 
7.152784e-001 
8.215356e-001 
9.190126e-001 
1.014000e+000 
1.110663e+000 
1.206925e+000 
1.292570e+000 
1.361648e+000 
1.417476e+000 
1.448574e+000 
1.458101e+000 
1.443591e+000 
1.408235e+000 
1.358308e+000 
1.289127e+000 
1.199812e+000 
1.095633e+000 
9.778997e-001 
8.466146e-001 
7.112027e-001 
5.723876e-001 
4.395362e-001 
3.068764e-001 
1.776563e-001 
5.759585e-002 
-4.562271e-002 
-1.323447e-001 
-2.030597e-001 
-2.535581e-001 
-2.848650e-001 
-3.034060e-001 
-3.173646e-001 
-3.248664e-001 
-3.255225e-001 
-3.228010e-001 
-3.240000e-001 
-3.244533e-001 
-3.230428e-001 
-3.225954e-001 
-3.251151e-001 
-3.299290e-001 
-3.337936e-001 
-3.352177e-001 
-3.403193e-001 
-3.456171e-001 
-3.472493e-001 
-3.514809e-001 
-3.575976e-001 
-3.619793e-001 
-3.660135e-001 
-3.697327e-001 
-3.714209e-001 
-3.742079e-001 
-3.737750e-001 
-3.743872e-001 
-3.774187e-001 
-3.774747e-001 
-3.744481e-001 
-3.756331e-001 
-3.733431e-001 
-3.627532e-001 
-3.503940e-001 
-3.371145e-001 
-3.229093e-001 
-3.060144e-001 
-2.908779e-001 
-2.811807e-001 
-2.770828e-001 
-2.686867e-001 
-2.583471e-001 
-2.541297e-001 
-2.521056e-001 
-2.464979e-001 
-2.453821e-001 
-2.500432e-001 
-2.555138e-001 
-2.673501e-001 
-2.723910e-001 
-2.476190e-001 
-2.014280e-001 
-1.600726e-001 
-1.020856e-001 
-2.007298e-002 
-2.099157e-002 
-1.205395e-001 
-2.039550e-001 
-2.076521e-001 
-1.486004e-001 
-9.311530e-002 
-5.472463e-002 
2.590350e-002 
4.782256e-002 
-7.525605e-002 
-1.307213e-001 
-3.422586e-002 
8.624980e-002 
1.668469e-001 
1.995175e-001 
2.078984e-001 
2.114654e-001 
1.840936e-001 
2.076291e-001 
3.556577e-001 
5.293860e-001 
6.651050e-001 
7.778816e-001 
8.734828e-001 
9.613586e-001 
1.056969e+000 
1.158637e+000 
1.257096e+000 
1.346491e+000 
1.424004e+000 
1.487542e+000 
1.531170e+000 
1.548086e+000 
1.540605e+000 
1.513396e+000 
1.463631e+000 
1.390449e+000 
1.298862e+000 
1.189785e+000 
1.065956e+000 
9.276487e-001 
7.789505e-001 
6.253499e-001 
4.703762e-001 
3.162882e-001 
1.690936e-001 
3.373147e-002 
-8.982193e-002 
-1.962399e-001 
-2.819619e-001 
-3.484497e-001 
-3.993712e-001 
-4.321371e-001 
-4.490744e-001 
-4.551258e-001 
-4.588744e-001 
-4.613515e-001 
-4.589481e-001 
-4.564520e-001 
-4.590122e-001 
-4.621647e-001 
-4.601083e-001 
-4.587823e-001 
-4.633943e-001 
-4.711695e-001 
-4.735963e-001 
-4.750202e-001 
-4.797471e-001 
-4.862096e-001 
-4.884978e-001 
-4.907082e-001 
-4.981096e-001 
-5.069010e-001 
-5.081459e-001 
-5.057994e-001 
-5.078380e-001 
-5.090690e-001 
-5.064874e-001 
-4.988649e-001 
-4.908384e-001 
-4.814619e-001 
-4.639129e-001 
-4.422270e-001 
-4.288862e-001 
-4.201982e-001 
-4.121330e-001 
-4.062610e-001 
-4.003976e-001 
-3.967456e-001 
-3.914377e-001 
-3.847792e-001 
-3.847842e-001 
-3.892656e-001 
-3.922333e-001 
-3.969921e-001 
-4.092275e-001 
-3.989209e-001 
-3.516205e-001 
-3.046246e-001 
-2.503301e-001 
-1.618817e-001 
-1.337720e-001 
-2.113408e-001 
-3.003601e-001 
-3.315269e-001 
-2.793972e-001 
-2.074447e-001 
-1.678178e-001 
-9.404027e-002 
-4.873575e-002 
-1.506497e-001 
-2.351760e-001 
-1.694616e-001 
-4.964053e-002 
4.891192e-002 
9.241668e-002 
9.851410e-002 
1.037820e-001 
8.033903e-002 
8.231958e-002 
2.051845e-001 
3.828519e-001 
5.288791e-001 
6.464597e-001 
7.435976e-001 
8.348582e-001 
9.316661e-001 
1.029338e+000 
1.124354e+000 
1.216497e+000 
1.298823e+000 
1.362345e+000 
1.405230e+000 
1.425752e+000 
1.423780e+000 
1.397312e+000 
1.347706e+000 
1.281560e+000 
1.199903e+000 
1.093488e+000 
9.707957e-001 
8.374924e-001 
6.953930e-001 
5.470661e-001 
3.949813e-001 
2.486384e-001 
1.115403e-001 
-2.252337e-002 
-1.454370e-001 
-2.477802e-001 
-3.343454e-001 
-4.027310e-001 
-4.528381e-001 
-4.821832e-001 
-4.958308e-001 
-5.042056e-001 
-5.079989e-001 
-5.057936e-001 
-5.047505e-001 
-5.058962e-001 
-5.067969e-001 
-5.039088e-001 
-5.003477e-001 
-5.018212e-001 
-5.065034e-001 
-5.104300e-001 
-5.144629e-001 
-5.191794e-001 
-5.240670e-001 
-5.275228e-001 
-5.309247e-001 
-5.362740e-001 
-5.417075e-001 
-5.474749e-001 
-5.493050e-001 
-5.508368e-001 
-5.539868e-001 
-5.548445e-001 
-5.531060e-001 
-5.481326e-001 
-5.359561e-001 
-5.254552e-001 
-5.122143e-001 
-4.955112e-001 
-4.840695e-001 
-4.745420e-001 
-4.667797e-001 
-4.636477e-001 
-4.580311e-001 
-4.537366e-001 
-4.533014e-001 
-4.491000e-001 
-4.502047e-001 
-4.530961e-001 
-4.569129e-001 
-4.658251e-001 
-4.819078e-001 
-4.725128e-001 
-4.247546e-001 
-3.794154e-001 
-3.243235e-001 
-2.239053e-001 
-1.915111e-001 
-2.796552e-001 
-3.722463e-001 
-4.058024e-001 
-3.571030e-001 
-2.897774e-001 
-2.533560e-001 
-1.657848e-001 
-1.108744e-001 
-2.335476e-001 
-3.276902e-001 
-2.545569e-001 
-1.372621e-001 
-4.157144e-002 
4.937169e-003 
1.910490e-002 
2.732220e-002 
-1.028873e-002 
-2.087489e-002 
1.083902e-001 
2.891974e-001 
4.339256e-001 
5.535350e-001 
6.557495e-001 
7.488501e-001 
8.409763e-001 
9.346705e-001 
1.028724e+000 
1.117019e+000 
1.192797e+000 
1.250638e+000 
1.287744e+000 
1.305371e+000 
1.297568e+000 
1.267471e+000 
1.219830e+000 
1.153776e+000 
1.070272e+000 
9.679219e-001 
8.486401e-001 
7.179271e-001 
5.772792e-001 
4.352044e-001 
2.963402e-001 
1.573731e-001 
2.424811e-002 
-1.012748e-001 
-2.147292e-001 
-3.098279e-001 
-3.895706e-001 
-4.490532e-001 
-4.829358e-001 
-5.063746e-001 
-5.226769e-001 
-5.308869e-001 
-5.330372e-001 
-5.309083e-001 
-5.313802e-001 
-5.350789e-001 
-5.329742e-001 
-5.300424e-001 
-5.343179e-001 
-5.395785e-001 
-5.420514e-001 
-5.432214e-001 
-5.494146e-001 
-5.580227e-001 
-5.630272e-001 
-5.650733e-001 
-5.705812e-001 
-5.772871e-001 
-5.812027e-001 
-5.812831e-001 
-5.832605e-001 
-5.847432e-001 
-5.770959e-001 
-5.663976e-001 
-5.551410e-001 
-5.423074e-001 
-5.276721e-001 
-5.144438e-001 
-5.059411e-001 
-5.059880e-001 
-5.010128e-001 
-4.948526e-001 
-4.948323e-001 
-4.910503e-001 
-4.862590e-001 
-4.836619e-001 
-4.868302e-001 
-4.938806e-001 
-5.012318e-001 
-4.992972e-001 
-4.720150e-001 
-4.123993e-001 
-3.607040e-001 
-2.989655e-001 
-2.245937e-001 
-2.580826e-001 
-3.527609e-001 
-4.109010e-001 
-4.180147e-001 
-3.634116e-001 
-3.096589e-001 
-2.828097e-001 
-2.154002e-001 
-2.300009e-001 
-3.628191e-001 
-3.719204e-001 
-2.780167e-001 
-1.890118e-001 
-1.176315e-001 
-8.992542e-002 
-8.473235e-002 
-8.148734e-002 
-1.063177e-001 
-5.405046e-002 
1.139332e-001 
2.734684e-001 
4.093839e-001 
5.301971e-001 
6.307435e-001 
7.213801e-001 
8.105340e-001 
9.004043e-001 
9.915151e-001 
1.068627e+000 
1.131692e+000 
1.181303e+000 
1.203395e+000 
1.205665e+000 
1.190242e+000 
1.151914e+000 
1.101008e+000 
1.031455e+000 
9.443181e-001 
8.466400e-001 
7.276930e-001 
5.977022e-001 
4.698039e-001 
3.397532e-001 
2.110169e-001 
8.798834e-002 
-2.917998e-002 
-1.337479e-001 
-2.309741e-001 
-3.125821e-001 
-3.696690e-001 
-4.099294e-001 
-4.345744e-001 
-4.483571e-001 
-4.536107e-001 
-4.517596e-001 
-4.481889e-001 
-4.461515e-001 
-4.372187e-001 
-4.309086e-001 
-4.282172e-001 
-4.238292e-001 
-4.209780e-001 
-4.169310e-001 
-4.154345e-001 
-4.158005e-001 
-4.159056e-001 
-4.144656e-001 
-4.166594e-001 
-4.143699e-001 
-4.060528e-001 
-3.948940e-001 
-3.851583e-001 
-3.772885e-001 
-3.666183e-001 
-3.567129e-001 
-3.508440e-001 
-3.491507e-001 
-3.443242e-001 
-3.383689e-001 
-3.352415e-001 
-3.359462e-001 
-3.365768e-001 
-3.376465e-001 
-3.428551e-001 
-3.519906e-001 
-3.600084e-001 
-3.648703e-001 
-3.652382e-001 
-3.352210e-001 
-2.817391e-001 
-2.289967e-001 
-1.476491e-001 
-9.122514e-002 
-1.561450e-001 
-2.445408e-001 
-2.830501e-001 
-2.679293e-001 
-1.942826e-001 
-1.358250e-001 
-8.136613e-002 
-1.781586e-002 
-8.649007e-002 
-2.033439e-001 
-1.551138e-001 
-4.481725e-002 
5.230708e-002 
1.248966e-001 
1.415269e-001 
1.441941e-001 
1.368150e-001 
1.318641e-001 
2.380503e-001 
4.274415e-001 
5.886202e-001 
7.310221e-001 
8.494247e-001 
9.489538e-001 
1.052459e+000 
1.156340e+000 
1.247895e+000 
1.324913e+000 
1.391044e+000 
1.438484e+000 
1.457783e+000 
1.451105e+000 
1.427069e+000 
1.381372e+000 
1.310689e+000 
1.221294e+000 
1.118373e+000 
1.000975e+000 
8.617717e-001 
7.132564e-001 
5.680622e-001 
4.201219e-001 
2.704356e-001 
1.314442e-001 
3.983127e-003 
-1.120239e-001 
-2.161779e-001 
-3.029224e-001 
-3.615362e-001 
-4.002050e-001 
-4.293154e-001 
-4.426220e-001 
-4.428271e-001 
-4.431530e-001 
-4.426796e-001 
-4.411014e-001 
-4.360525e-001 
-4.288963e-001 
-4.273169e-001 
-4.272105e-001 
-4.235954e-001 
-4.240087e-001 
-4.283444e-001 
-4.307472e-001 
-4.342998e-001 
-4.360280e-001 
-4.404153e-001 
-4.472314e-001 
-4.499719e-001 
-4.478235e-001 
-4.441988e-001 
-4.384076e-001 
-4.297584e-001 
-4.179853e-001 
-4.076500e-001 
-4.022019e-001 
-3.978734e-001 
-3.943957e-001 
-3.910554e-001 
-3.922724e-001 
-3.936093e-001 
-3.916813e-001 
-3.919386e-001 
-3.994172e-001 
-4.068555e-001 
-4.128176e-001 
-4.192910e-001 
-4.350838e-001 
-4.336308e-001 
-3.884997e-001 
-3.423459e-001 
-2.974689e-001 
-2.094480e-001 
-1.518865e-001 
-2.217281e-001 
-3.215099e-001 
-3.558171e-001 
-3.019966e-001 
-2.221207e-001 
-1.857303e-001 
-1.165797e-001 
-4.126801e-002 
-1.279432e-001 
-2.533065e-001 
-1.956784e-001 
-6.007618e-002 
4.394629e-002 
8.805524e-002 
9.267282e-002 
1.037702e-001 
8.590687e-002 
6.851164e-002 
1.808505e-001 
3.757700e-001 
5.283461e-001 
6.449585e-001 
7.446354e-001 
8.403197e-001 
9.399026e-001 
1.040802e+000 
1.141066e+000 
1.232378e+000 
1.304225e+000 
1.357239e+000 
1.388994e+000 
1.402337e+000 
1.391737e+000 
1.357144e+000 
1.303297e+000 
1.231155e+000 
1.133055e+000 
1.015516e+000 
8.884097e-001 
7.519198e-001 
6.076415e-001 
4.568802e-001 
3.089762e-001 
1.653622e-001 
2.405433e-002 
-1.101717e-001 
-2.221949e-001 
-3.123517e-001 
-3.866700e-001 
-4.447443e-001 
-4.806146e-001 
-5.004250e-001 
-5.151628e-001 
-5.249118e-001 
-5.246845e-001 
-5.187817e-001 
-5.169083e-001 
-5.182805e-001 
-5.152612e-001 
-5.109619e-001 
-5.133247e-001 
-5.170251e-001 
-5.180734e-001 
-5.172817e-001 
-5.204290e-001 
-5.275859e-001 
-5.307319e-001 
-5.318590e-001 
-5.378115e-001 
-5.407999e-001 
-5.399871e-001 
-5.328510e-001 
-5.224176e-001 
-5.152124e-001 
-5.029604e-001 
-4.858642e-001 
-4.739435e-001 
-4.653892e-001 
-4.587591e-001 
-4.553900e-001 
-4.491087e-001 
-4.504642e-001 
-4.532151e-001 
-4.506186e-001 
-4.512142e-001 
-4.566928e-001 
-4.638070e-001 
-4.733907e-001 
-4.822804e-001 
-4.949098e-001 
-4.872593e-001 
-4.431415e-001 
-3.956646e-001 
-3.179927e-001 
-2.316562e-001 
-2.596580e-001 
-3.584206e-001 
-4.244044e-001 
-4.348045e-001 
-3.718815e-001 
-3.009050e-001 
-2.419391e-001 
-1.554668e-001 
-1.784800e-001 
-3.207143e-001 
-3.370615e-001 
-2.307006e-001 
-1.182100e-001 
-3.059456e-002 
2.362308e-003 
6.903913e-003 
-4.076941e-003 
-3.912987e-002 
1.014637e-002 
1.808290e-001 
3.522317e-001 
4.852093e-001 
5.962804e-001 
6.934753e-001 
7.897026e-001 
8.902734e-001 
9.893171e-001 
1.083842e+000 
1.171043e+000 
1.240885e+000 
1.290539e+000 
1.320395e+000 
1.328560e+000 
1.313016e+000 
1.273215e+000 
1.216174e+000 
1.142424e+000 
1.048733e+000 
9.379718e-001 
8.122133e-001 
6.772912e-001 
5.358546e-001 
3.913923e-001 
2.502480e-001 
1.161327e-001 
-1.526539e-002 
-1.360201e-001 
-2.401478e-001 
-3.275650e-001 
-3.941734e-001 
-4.422181e-001 
-4.700823e-001 
-4.846017e-001 
-4.936788e-001 
-4.991736e-001 
-4.965660e-001 
-4.930442e-001 
-4.914016e-001 
-4.901005e-001 
-4.867375e-001 
-4.833811e-001 
-4.850943e-001 
-4.891258e-001 
-4.906678e-001 
-4.905815e-001 
-4.953748e-001 
-5.033066e-001 
-5.082978e-001 
-5.094547e-001 
-5.126426e-001 
-5.165561e-001 
-5.181375e-001 
-5.184981e-001 
-5.217130e-001 
-5.278956e-001 
-5.298541e-001 
-5.243628e-001 
-5.209049e-001 
-5.192197e-001 
-5.117476e-001 
-5.011981e-001 
-4.912803e-001 
-4.789943e-001 
-4.596661e-001 
-4.368340e-001 
-4.217122e-001 
-4.163963e-001 
-4.098679e-001 
-4.007593e-001 
-3.979573e-001 
-3.980114e-001 
-3.909596e-001 
-3.837531e-001 
-3.855345e-001 
-3.930751e-001 
-3.966939e-001 
-4.052101e-001 
-4.010311e-001 
-3.628713e-001 
-3.122059e-001 
-2.357749e-001 
-1.170175e-001 
-7.463331e-002 
-1.578934e-001 
-2.488868e-001 
-2.874827e-001 
-2.498881e-001 
-1.758698e-001 
-1.202680e-001 
-2.414917e-002 
2.758504e-002 
-1.081248e-001 
-2.191329e-001 
-1.506852e-001 
-3.580487e-002 
6.203750e-002 
1.151066e-001 
1.194285e-001 
1.082964e-001 
5.202602e-002 
2.304350e-002 
1.423691e-001 
3.201671e-001 
4.617163e-001 
5.803854e-001 
6.750217e-001 
7.578487e-001 
8.497088e-001 
9.456035e-001 
1.037784e+000 
1.124389e+000 
1.201170e+000 
1.262401e+000 
1.298111e+000 
1.311151e+000 
1.306692e+000 
1.283329e+000 
1.238296e+000 
1.175619e+000 
1.099898e+000 
1.007023e+000 
8.930657e-001 
7.637116e-001 
6.286815e-001 
4.919847e-001 
3.533047e-001 
2.178038e-001 
9.305705e-002 
-2.450490e-002 
-1.356956e-001 
-2.349062e-001 
-3.161607e-001 
-3.725210e-001 
-4.100620e-001 
-4.352022e-001 
-4.465927e-001 
-4.521953e-001 
-4.593808e-001 
-4.634269e-001 
-4.668265e-001 
-4.654667e-001 
-4.601877e-001 
-4.622558e-001 
-4.626237e-001 
-4.630448e-001 
-4.718382e-001 
-4.790681e-001 
-4.836613e-001 
-4.907862e-001 
-4.948529e-001 
-5.029894e-001 
-5.098262e-001 
-5.101850e-001 
-5.175027e-001 
-5.266970e-001 
-5.279272e-001 
-5.308708e-001 
-5.361988e-001 
-5.390659e-001 
-5.393205e-001 
-5.356101e-001 
-5.362845e-001 
-5.410929e-001 
-5.399926e-001 
-5.312445e-001 
-5.236316e-001 
-5.134185e-001 
-4.944529e-001 
-4.744974e-001 
-4.608398e-001 
-4.552756e-001 
-4.491287e-001 
-4.403027e-001 
-4.332904e-001 
-4.298220e-001 
-4.208891e-001 
-4.100326e-001 
-4.082246e-001 
-4.134076e-001 
-4.178183e-001 
-4.173563e-001 
-4.242497e-001 
-4.050736e-001 
-3.474821e-001 
-2.912944e-001 
-2.204471e-001 
-1.073523e-001 
-8.140843e-002 
-1.623084e-001 
-2.394152e-001 
-2.679815e-001 
-2.197313e-001 
-1.609593e-001 
-1.261940e-001 
-3.601889e-002 
-1.850568e-003 
-1.460308e-001 
-2.271449e-001 
-1.592453e-001 
-6.137841e-002 
2.136050e-002 
5.557250e-002 
5.698202e-002 
5.074678e-002 
-2.706151e-003 
-1.468015e-002 
1.138836e-001 
2.798214e-001 
4.213439e-001 
5.406667e-001 
6.361577e-001 
7.240764e-001 
8.190603e-001 
9.116339e-001 
9.989446e-001 
1.081166e+000 
1.152962e+000 
1.206651e+000 
1.238147e+000 
1.252778e+000 
1.251634e+000 
1.227267e+000 
1.179416e+000 
1.118577e+000 
1.043095e+000 
9.486910e-001 
8.398586e-001 
7.229546e-001 
6.007186e-001 
4.729231e-001 
3.415701e-001 
2.177618e-001 
1.027203e-001 
-9.802810e-003 
-1.110834e-001 
-1.940844e-001 
-2.615676e-001 
-3.159421e-001 
-3.550196e-001 
-3.763883e-001 
-3.861731e-001 
-3.966741e-001 
-4.029309e-001 
-4.015587e-001 
-4.013562e-001 
-4.047137e-001 
-4.073029e-001 
-4.061734e-001 
-4.067707e-001 
-4.144963e-001 
-4.243889e-001 
-4.291150e-001 
-4.355428e-001 
-4.448995e-001 
-4.522651e-001 
-4.556033e-001 
-4.600815e-001 
-4.692890e-001 
-4.771815e-001 
-4.807486e-001 
-4.825129e-001 
-4.852729e-001 
-4.870774e-001 
-4.857300e-001 
-4.839057e-001 
-4.857114e-001 
-4.830711e-001 
-4.700423e-001 
-4.555490e-001 
-4.404597e-001 
-4.230539e-001 
-4.046631e-001 
-3.890980e-001 
-3.806871e-001 
-3.764053e-001 
-3.671457e-001 
-3.581371e-001 
-3.559276e-001 
-3.517774e-001 
-3.469576e-001 
-3.456518e-001 
-3.505005e-001 
-3.584498e-001 
-3.745450e-001 
-3.763255e-001 
-3.437944e-001 
-2.994663e-001 
-2.467788e-001 
-1.518011e-001 
-7.041705e-002 
-1.225473e-001 
-2.332775e-001 
-2.917243e-001 
-2.677837e-001 
-2.001670e-001 
-1.495359e-001 
-7.913430e-002 
8.675241e-003 
-5.300365e-002 
-2.057982e-001 
-1.920788e-001 
-7.074485e-002 
3.770004e-002 
1.041451e-001 
1.249842e-001 
1.280865e-001 
1.026959e-001 
5.888690e-002 
1.282331e-001 
3.084761e-001 
4.670451e-001 
5.950835e-001 
7.024622e-001 
7.932126e-001 
8.843849e-001 
9.814544e-001 
1.078724e+000 
1.171202e+000 
1.252827e+000 
1.322429e+000 
1.375352e+000 
1.403026e+000 
1.404339e+000 
1.385154e+000 
1.348364e+000 
1.292260e+000 
1.215143e+000 
1.122199e+000 
1.015675e+000 
8.915418e-001 
7.542421e-001 
6.115055e-001 
4.713377e-001 
3.342261e-001 
1.970038e-001 
6.812129e-002 
-4.722570e-002 
-1.520463e-001 
-2.413215e-001 
-3.090718e-001 
-3.570800e-001 
-3.877177e-001 
-4.078259e-001 
-4.176733e-001 
-4.186542e-001 
-4.210925e-001 
-4.227598e-001 
-4.208826e-001 
-4.189392e-001 
-4.196569e-001 
-4.208623e-001 
-4.215748e-001 
-4.215886e-001 
-4.273203e-001 
-4.359311e-001 
-4.413215e-001 
-4.460306e-001 
-4.531635e-001 
-4.609191e-001 
-4.662685e-001 
-4.729555e-001 
-4.815936e-001 
-4.907010e-001 
-4.967134e-001 
-5.008987e-001 
-5.033646e-001 
-5.062727e-001 
-5.065160e-001 
-5.074551e-001 
-5.101153e-001 
-5.105711e-001 
-5.085267e-001 
-5.036218e-001 
-4.960861e-001 
-4.850352e-001 
-4.715592e-001 
-4.561310e-001 
-4.414627e-001 
-4.253255e-001 
-4.117401e-001 
-4.014119e-001 
-3.934799e-001 
-3.890545e-001 
-3.821890e-001 
-3.754474e-001 
-3.719118e-001 
-3.691099e-001 
-3.677290e-001 
-3.699255e-001 
-3.748335e-001 
-3.872104e-001 
-3.772637e-001 
-3.300315e-001 
-2.861919e-001 
-2.245298e-001 
-1.154713e-001 
-7.046359e-002 
-1.424238e-001 
-2.258352e-001 
-2.509093e-001 
-2.057312e-001 
-1.451200e-001 
-1.029649e-001 
-1.195453e-002 
4.201546e-002 
-7.357396e-002 
-1.741511e-001 
-1.119373e-001 
-2.522884e-003 
7.851906e-002 
1.201085e-001 
1.312492e-001 
1.293523e-001 
8.461663e-002 
6.199534e-002 
1.704200e-001 
3.385345e-001 
4.695930e-001 
5.785883e-001 
6.766573e-001 
7.647606e-001 
8.569241e-001 
9.545936e-001 
1.049736e+000 
1.139894e+000 
1.218481e+000 
1.277162e+000 
1.319543e+000 
1.340922e+000 
1.336888e+000 
1.314321e+000 
1.275837e+000 
1.213792e+000 
1.133707e+000 
1.036594e+000 
9.220052e-001 
7.971793e-001 
6.620813e-001 
5.208884e-001 
3.847815e-001 
2.497951e-001 
1.132113e-001 
-1.321879e-002 
-1.294818e-001 
-2.291850e-001 
-3.087138e-001 
-3.707836e-001 
-4.139894e-001 
-4.378639e-001 
-4.554062e-001 
-4.681206e-001 
-4.729345e-001 
-4.726230e-001 
-4.709036e-001 
-4.704818e-001 
-4.684983e-001 
-4.668444e-001 
-4.675476e-001 
-4.722144e-001 
-4.749536e-001 
-4.749535e-001 
-4.778610e-001 
-4.838386e-001 
-4.858276e-001 
-4.879494e-001 
-4.958583e-001 
-5.029891e-001 
-5.069220e-001 
-5.086300e-001 
-5.117704e-001 
-5.167145e-001 
-5.179699e-001 
-5.156119e-001 
-5.177528e-001 
-5.206522e-001 
-5.170496e-001 
-5.134492e-001 
-5.108582e-001 
-5.068988e-001 
-4.996023e-001 
-4.883988e-001 
-4.730607e-001 
-4.581762e-001 
-4.383124e-001 
-4.191576e-001 
-4.095463e-001 
-4.018276e-001 
-3.931464e-001 
-3.859151e-001 
-3.801356e-001 
-3.716273e-001 
-3.637059e-001 
-3.571023e-001 
-3.586599e-001 
-3.624917e-001 
-3.659950e-001 
-3.627138e-001 
-3.297927e-001 
-2.707782e-001 
-2.154707e-001 
-1.380741e-001 
-3.774151e-002 
-4.201136e-002 
-1.309392e-001 
-1.956126e-001 
-2.012265e-001 
-1.515412e-001 
-1.036645e-001 
-6.233616e-002 
2.788874e-002 
3.174002e-002 
-1.066977e-001 
-1.455727e-001 
-5.842197e-002 
3.445857e-002 
1.040878e-001 
1.370651e-001 
1.488444e-001 
1.462975e-001 
1.059790e-001 
1.324546e-001 
2.837795e-001 
4.483450e-001 
5.859435e-001 
7.121405e-001 
8.207493e-001 
9.163620e-001 
1.013927e+000 
1.111217e+000 
1.200347e+000 
1.279643e+000 
1.346148e+000 
1.398639e+000 
1.433401e+000 
1.444284e+000 
1.435203e+000 
1.405875e+000 
1.351284e+000 
1.279251e+000 
1.194645e+000 
1.096857e+000 
9.852981e-001 
8.620589e-001 
7.336810e-001 
6.019383e-001 
4.641377e-001 
3.316049e-001 
2.137364e-001 
1.063816e-001 
1.063038e-002 
-7.183913e-002 
-1.357493e-001 
-1.825090e-001 
-2.194596e-001 
-2.445480e-001 
-2.528311e-001 
-2.527089e-001 
-2.491244e-001 
-2.470951e-001 
-2.460138e-001 
-2.429461e-001 
-2.443308e-001 
-2.500751e-001 
-2.527018e-001 
-2.509098e-001 
-2.504846e-001 
-2.545197e-001 
-2.622922e-001 
-2.666456e-001 
-2.710997e-001 
-2.799136e-001 
-2.866870e-001 
-2.881982e-001 
-2.897984e-001 
-2.988027e-001 
-3.067421e-001 
-3.101291e-001 
-3.133679e-001 
-3.189144e-001 
-3.229892e-001 
-3.233690e-001 
-3.233119e-001 
-3.248259e-001 
-3.230777e-001 
-3.110424e-001 
-3.028641e-001 
-2.958795e-001 
-2.840062e-001 
-2.746317e-001 
-2.700413e-001 
-2.683517e-001 
-2.675788e-001 
-2.637886e-001 
-2.629552e-001 
-2.677012e-001 
-2.635639e-001 
-2.628787e-001 
-2.721390e-001 
-2.809957e-001 
-2.925285e-001 
-3.006246e-001 
-2.812571e-001 
-2.396212e-001 
-1.887262e-001 
-1.048681e-001 
-2.826337e-002 
-5.951377e-002 
-1.542985e-001 
-2.161044e-001 
-2.134107e-001 
-1.528033e-001 
-9.322070e-002 
-3.396527e-002 
4.497942e-002 
1.304779e-002 
-1.175534e-001 
-1.271535e-001 
-2.458943e-002 
8.085531e-002 
1.543335e-001 
1.817206e-001 
1.877526e-001 
1.748748e-001 
1.432624e-001 
1.990175e-001 
3.587014e-001 
5.156033e-001 
6.435039e-001 
7.535805e-001 
8.513241e-001 
9.466137e-001 
1.049711e+000 
1.155162e+000 
1.250285e+000 
1.333633e+000 
1.411560e+000 
1.476000e+000 
1.517042e+000 
1.529270e+000 
1.516918e+000 
1.486194e+000 
1.428678e+000 
1.349349e+000 
1.258938e+000 
1.156170e+000 
1.035214e+000 
8.969616e-001 
7.482014e-001 
6.006556e-001 
4.541091e-001 
3.079171e-001 
1.737939e-001 
5.104183e-002 
-6.101677e-002 
-1.593068e-001 
-2.382821e-001 
-2.968425e-001 
-3.345980e-001 
-3.584887e-001 
-3.729786e-001 
-3.761264e-001 
-3.785145e-001 
-3.794030e-001 
-3.771254e-001 
-3.750336e-001 
-3.764477e-001 
-3.773946e-001 
-3.810230e-001 
-3.843455e-001 
-3.868607e-001 
-3.935289e-001 
-3.944934e-001 
-3.981010e-001 
-4.045253e-001 
-4.110969e-001 
-4.154864e-001 
-4.182714e-001 
-4.201811e-001 
-4.227694e-001 
-4.202224e-001 
-4.187690e-001 
-4.235689e-001 
-4.237722e-001 
-4.220713e-001 
-4.176246e-001 
-4.115975e-001 
-4.008995e-001 
-3.853309e-001 
-3.671272e-001 
-3.524996e-001 
-3.379026e-001 
-3.220297e-001 
-3.107601e-001 
-3.048126e-001 
-2.981052e-001 
-2.892173e-001 
-2.839095e-001 
-2.812869e-001 
-2.803894e-001 
-2.799560e-001 
-2.843944e-001 
-2.900996e-001 
-3.007515e-001 
-3.116128e-001 
-2.963291e-001 
-2.540195e-001 
-2.054363e-001 
-1.146231e-001 
2.742103e-003 
2.829640e-003 
-9.274391e-002 
-1.675969e-001 
-1.751519e-001 
-1.142348e-001 
-5.027797e-002 
1.051786e-002 
1.177055e-001 
1.143621e-001 
-5.077367e-002 
-1.031987e-001 
-5.568095e-003 
1.082548e-001 
1.873659e-001 
2.131180e-001 
2.141683e-001 
1.951693e-001 
1.268392e-001 
1.361937e-001 
2.877187e-001 
4.522312e-001 
5.816440e-001 
6.884117e-001 
7.801947e-001 
8.731366e-001 
9.687485e-001 
1.065557e+000 
1.159401e+000 
1.239587e+000 
1.308419e+000 
1.362424e+000 
1.392338e+000 
1.396605e+000 
1.382252e+000 
1.348641e+000 
1.294957e+000 
1.217488e+000 
1.124843e+000 
1.017716e+000 
8.941363e-001 
7.591391e-001 
6.169639e-001 
4.781156e-001 
3.421707e-001 
2.025556e-001 
6.969104e-002 
-4.887288e-002 
-1.581942e-001 
-2.472257e-001 
-3.160255e-001 
-3.679560e-001 
-3.982979e-001 
-4.196404e-001 
-4.375158e-001 
-4.422534e-001 
-4.448428e-001 
-4.474215e-001 
-4.446372e-001 
-4.432802e-001 
-4.447528e-001 
-4.491549e-001 
-4.558776e-001 
-4.605209e-001 
-4.638927e-001 
-4.711125e-001 
-4.765955e-001 
-4.786404e-001 
-4.827606e-001 
-4.938925e-001 
-5.034643e-001 
-5.072440e-001 
-5.114457e-001 
-5.158234e-001 
-5.178672e-001 
-5.158360e-001 
-5.152561e-001 
-5.181996e-001 
-5.179855e-001 
-5.101313e-001 
-4.996573e-001 
-4.860593e-001 
-4.712890e-001 
-4.547994e-001 
-4.422353e-001 
-4.399358e-001 
-4.385615e-001 
-4.338329e-001 
-4.296258e-001 
-4.256515e-001 
-4.194707e-001 
-4.153944e-001 
-4.138079e-001 
-4.207461e-001 
-4.306556e-001 
-4.413529e-001 
-4.275021e-001 
-3.794373e-001 
-3.283163e-001 
-2.568309e-001 
-1.357235e-001 
-7.303135e-002 
-1.430302e-001 
-2.323031e-001 
-2.664620e-001 
-2.315036e-001 
-1.789451e-001 
-1.400032e-001 
-5.046286e-002 
1.299174e-002 
-1.077472e-001 
-2.371555e-001 
-1.914189e-001 
-9.025704e-002 
-1.302291e-002 
2.793597e-002 
4.129085e-002 
3.481766e-002 
-2.331433e-002 
-6.928664e-002 
2.650648e-002 
1.945929e-001 
3.316123e-001 
4.513896e-001 
5.572014e-001 
6.472807e-001 
7.321584e-001 
8.211853e-001 
9.118683e-001 
9.960767e-001 
1.067231e+000 
1.126529e+000 
1.169350e+000 
1.186282e+000 
1.181200e+000 
1.159254e+000 
1.120805e+000 
1.065444e+000 
9.925008e-001 
9.056373e-001 
8.054449e-001 
6.881163e-001 
5.596370e-001 
4.341177e-001 
3.084396e-001 
1.834597e-001 
6.322329e-002 
-4.786340e-002 
-1.485864e-001 
-2.393244e-001 
-3.163198e-001 
-3.714769e-001 
-4.072125e-001 
-4.341768e-001 
-4.505277e-001 
-4.553831e-001 
-4.564630e-001 
-4.599676e-001 
-4.628136e-001 
-4.627611e-001 
-4.608768e-001 
-4.623251e-001 
-4.669033e-001 
-4.679818e-001 
-4.695024e-001 
-4.782762e-001 
-4.877382e-001 
-4.940812e-001 
-4.973759e-001 
-5.022630e-001 
-5.075157e-001 
-5.049006e-001 
-4.992728e-001 
-4.971855e-001 
-4.917131e-001 
-4.818910e-001 
-4.706015e-001 
-4.634817e-001 
-4.635968e-001 
-4.600649e-001 
-4.539545e-001 
-4.545299e-001 
-4.546630e-001 
-4.496754e-001 
-4.464000e-001 
-4.480211e-001 
-4.539811e-001 
-4.561934e-001 
-4.607145e-001 
-4.620879e-001 
-4.299003e-001 
-3.722155e-001 
-3.125325e-001 
-2.180340e-001 
-1.406293e-001 
-1.887521e-001 
-2.772093e-001 
-3.249543e-001 
-3.145966e-001 
-2.522985e-001 
-2.001562e-001 
-1.382814e-001 
-5.994165e-002 
-1.249578e-001 
-2.624605e-001 
-2.360095e-001 
-1.327497e-001 
-4.458624e-002 
2.030482e-002 
4.555931e-002 
4.979276e-002 
2.864683e-002 
-4.937398e-003 
7.399881e-002 
2.523135e-001 
4.069328e-001 
5.421817e-001 
6.620471e-001 
7.652969e-001 
8.627670e-001 
9.618821e-001 
1.054535e+000 
1.141581e+000 
1.221263e+000 
1.285774e+000 
1.328796e+000 
1.345812e+000 
1.343677e+000 
1.318993e+000 
1.269423e+000 
1.203168e+000 
1.124165e+000 
1.027909e+000 
9.129957e-001 
7.819951e-001 
6.450251e-001 
5.052610e-001 
3.623637e-001 
2.255694e-001 
9.611736e-002 
-2.637599e-002 
-1.395287e-001 
-2.392667e-001 
-3.164032e-001 
-3.736184e-001 
-4.162811e-001 
-4.404246e-001 
-4.547028e-001 
-4.629554e-001 
-4.633742e-001 
-4.622006e-001 
-4.563931e-001 
-4.480277e-001 
-4.474717e-001 
-4.466864e-001 
-4.466256e-001 
-4.480933e-001 
-4.467224e-001 
-4.480307e-001 
-4.480359e-001 
-4.451349e-001 
-4.487188e-001 
-4.556102e-001 
-4.583248e-001 
-4.584707e-001 
-4.525683e-001 
-4.485255e-001 
-4.419467e-001 
-4.271021e-001 
-4.174231e-001 
-4.119471e-001 
-4.059968e-001 
-4.008140e-001 
-3.968125e-001 
-3.944260e-001 
-3.956495e-001 
-3.911942e-001 
-3.882404e-001 
-3.941027e-001 
-3.999178e-001 
-4.054696e-001 
-4.124961e-001 
-4.292112e-001 
-4.346976e-001 
-4.048063e-001 
-3.601998e-001 
-3.099876e-001 
-2.199131e-001 
-1.643194e-001 
-2.297316e-001 
-3.221066e-001 
-3.571983e-001 
-3.176558e-001 
-2.416989e-001 
-1.892638e-001 
-1.146486e-001 
-4.581543e-002 
-1.321240e-001 
-2.475197e-001 
-1.909713e-001 
-6.339822e-002 
3.652945e-002 
9.075728e-002 
1.033543e-001 
1.108704e-001 
8.798239e-002 
7.033440e-002 
1.768035e-001 
3.581478e-001 
4.999756e-001 
6.125398e-001 
7.111413e-001 
8.052043e-001 
9.031288e-001 
1.001252e+000 
1.099302e+000 
1.185647e+000 
1.257429e+000 
1.313807e+000 
1.350073e+000 
1.363101e+000 
1.353884e+000 
1.321717e+000 
1.272030e+000 
1.203107e+000 
1.112977e+000 
1.008552e+000 
8.888778e-001 
7.563689e-001 
6.166937e-001 
4.736708e-001 
3.336605e-001 
1.985243e-001 
6.593046e-002 
-5.676318e-002 
-1.649314e-001 
-2.562532e-001 
-3.285810e-001 
-3.826388e-001 
-4.164304e-001 
-4.337221e-001 
-4.447873e-001 
-4.502722e-001 
-4.489948e-001 
-4.442606e-001 
-4.387419e-001 
-4.352195e-001 
-4.305102e-001 
-4.243574e-001 
-4.233396e-001 
-4.270463e-001 
-4.285834e-001 
-4.274176e-001 
-4.283238e-001 
-4.318537e-001 
-4.349044e-001 
-4.372396e-001 
-4.424504e-001 
-4.487686e-001 
-4.515184e-001 
-4.439863e-001 
-4.362467e-001 
-4.332231e-001 
-4.231514e-001 
-4.105852e-001 
-4.025010e-001 
-3.969512e-001 
-3.931047e-001 
-3.875303e-001 
-3.804985e-001 
-3.842861e-001 
-3.856359e-001 
-3.796515e-001 
-3.822057e-001 
-3.894704e-001 
-3.952128e-001 
-4.009264e-001 
-4.144606e-001 
-4.251614e-001 
-4.010003e-001 
-3.525662e-001 
-2.971996e-001 
-1.989977e-001 
-1.093062e-001 
-1.544344e-001 
-2.550723e-001 
-3.033932e-001 
-2.746911e-001 
-1.925244e-001 
-1.328603e-001 
-5.822716e-002 
3.333131e-002 
-3.253610e-002 
-1.880138e-001 
-1.648358e-001 
-3.724109e-002 
7.131160e-002 
1.332907e-001 
1.434604e-001 
1.433121e-001 
1.131465e-001 
6.357269e-002 
1.331699e-001 
3.149362e-001 
4.660437e-001 
5.781390e-001 
6.720377e-001 
7.602108e-001 
8.522808e-001 
9.442208e-001 
1.034410e+000 
1.121236e+000 
1.197109e+000 
1.250651e+000 
1.284066e+000 
1.301824e+000 
1.296892e+000 
1.269342e+000 
1.221696e+000 
1.160424e+000 
1.083759e+000 
9.837976e-001 
8.659201e-001 
7.429667e-001 
6.140038e-001 
4.785007e-001 
3.432147e-001 
2.118564e-001 
8.927256e-002 
-2.808473e-002 
-1.367370e-001 
-2.267408e-001 
-2.958205e-001 
-3.480835e-001 
-3.849015e-001 
-4.055181e-001 
-4.146016e-001 
-4.185791e-001 
-4.209006e-001 
-4.193550e-001 
-4.149798e-001 
-4.107022e-001 
-4.072728e-001 
-4.030515e-001 
-3.989284e-001 
-3.987138e-001 
-3.998206e-001 
-4.007470e-001 
-4.010495e-001 
-4.023320e-001 
-4.053963e-001 
-4.063786e-001 
-4.074906e-001 
-4.116331e-001 
-4.145514e-001 
-4.147996e-001 
-4.136851e-001 
-4.112570e-001 
-4.093156e-001 
-4.004922e-001 
-3.870151e-001 
-3.763832e-001 
-3.639131e-001 
-3.486411e-001 
-3.327261e-001 
-3.193425e-001 
-3.110108e-001 
-3.015001e-001 
-2.873667e-001 
-2.801297e-001 
-2.741442e-001 
-2.639514e-001 
-2.547411e-001 
-2.486296e-001 
-2.470430e-001 
-2.448907e-001 
-2.459716e-001 
-2.458061e-001 
-2.260983e-001 
-1.910301e-001 
-1.410032e-001 
-5.127642e-002 
2.125577e-002 
-9.845223e-003 
-8.084687e-002 
-1.224717e-001 
-1.145091e-001 
-6.808157e-002 
-2.486944e-002 
4.202907e-002 
1.092483e-001 
4.638131e-002 
-7.512930e-002 
-6.931006e-002 
7.903321e-003 
8.334430e-002 
1.368436e-001 
1.538619e-001 
1.544259e-001 
1.239663e-001 
8.350553e-002 
1.372555e-001 
2.726607e-001 
3.971290e-001 
5.063255e-001 
5.931832e-001 
6.720611e-001 
7.613423e-001 
8.508941e-001 
9.365836e-001 
1.015467e+000 
1.084805e+000 
1.142350e+000 
1.174305e+000 
1.182322e+000 
1.184858e+000 
1.164594e+000 
1.117207e+000 
1.055859e+000 
9.807564e-001 
8.899159e-001 
7.816593e-001 
6.608380e-001 
5.400426e-001 
4.159626e-001 
2.835517e-001 
1.536075e-001 
3.264010e-002 
-7.805946e-002 
-1.799928e-001 
-2.691286e-001 
-3.376480e-001 
-3.899151e-001 
-4.288266e-001 
-4.540181e-001 
-4.682202e-001 
-4.721591e-001 
-4.749587e-001 
-4.785641e-001 
-4.783860e-001 
-4.761016e-001 
-4.782805e-001 
-4.804172e-001 
-4.812759e-001 
-4.812564e-001 
-4.853099e-001 
-4.933940e-001 
-4.963209e-001 
-5.001941e-001 
-5.092322e-001 
-5.172474e-001 
-5.216398e-001 
-5.258447e-001 
-5.300253e-001 
-5.335796e-001 
-5.283505e-001 
-5.188976e-001 
-5.132608e-001 
-5.050060e-001 
-4.926658e-001 
-4.850291e-001 
-4.815331e-001 
-4.816999e-001 
-4.798906e-001 
-4.738279e-001 
-4.708799e-001 
-4.693111e-001 
-4.684589e-001 
-4.694525e-001 
-4.753780e-001 
-4.815609e-001 
-4.903299e-001 
-4.866440e-001 
-4.500457e-001 
-3.888776e-001 
-3.377693e-001 
-2.592097e-001 
-1.802353e-001 
-2.230943e-001 
-3.151131e-001 
-3.668833e-001 
-3.640136e-001 
-3.069838e-001 
-2.616248e-001 
-2.238994e-001 
-1.496163e-001 
-1.950983e-001 
-3.327192e-001 
-3.241296e-001 
-2.333756e-001 
-1.518246e-001 
-8.861703e-002 
-6.788517e-002 
-6.507951e-002 
-7.784129e-002 
-1.108938e-001 
-4.600375e-002 
1.200948e-001 
2.724311e-001 
4.091257e-001 
5.304093e-001 
6.300863e-001 
7.197709e-001 
8.115850e-001 
8.986992e-001 
9.788537e-001 
1.052534e+000 
1.115667e+000 
1.161498e+000 
1.184424e+000 
1.185601e+000 
1.170046e+000 
1.133343e+000 
1.077151e+000 
1.009957e+000 
9.309356e-001 
8.367697e-001 
7.266246e-001 
6.069819e-001 
4.849030e-001 
3.640772e-001 
2.424178e-001 
1.285133e-001 
2.638050e-002 
-6.677405e-002 
-1.521497e-001 
-2.241894e-001 
-2.770371e-001 
-3.120694e-001 
-3.371807e-001 
-3.526252e-001 
-3.561860e-001 
-3.556639e-001 
-3.555383e-001 
-3.558387e-001 
-3.531252e-001 
-3.489874e-001 
-3.508174e-001 
-3.542243e-001 
-3.535655e-001 
-3.559606e-001 
-3.623658e-001 
-3.696504e-001 
-3.747483e-001 
-3.779346e-001 
-3.848797e-001 
-3.933837e-001 
-3.949934e-001 
-3.964700e-001 
-3.966807e-001 
-3.938585e-001 
-3.866553e-001 
-3.740491e-001 
-3.669333e-001 
-3.632139e-001 
-3.572464e-001 
-3.534478e-001 
-3.537057e-001 
-3.525834e-001 
-3.534714e-001 
-3.493615e-001 
-3.498193e-001 
-3.594548e-001 
-3.656426e-001 
-3.718656e-001 
-3.822835e-001 
-3.979178e-001 
-4.043804e-001 
-3.764950e-001 
-3.317608e-001 
-2.945363e-001 
-2.175028e-001 
-1.389057e-001 
-1.844938e-001 
-2.866567e-001 
-3.387370e-001 
-3.207586e-001 
-2.544910e-001 
-2.066255e-001 
-1.492119e-001 
-6.207606e-002 
-1.067576e-001 
-2.470918e-001 
-2.298698e-001 
-1.101274e-001 
-7.748611e-003 
5.945761e-002 
8.319195e-002 
9.241150e-002 
7.997577e-002 
4.666816e-002 
1.169920e-001 
2.975495e-001 
4.536860e-001 
5.764665e-001 
6.835177e-001 
7.766526e-001 
8.659936e-001 
9.582024e-001 
1.048704e+000 
1.133657e+000 
1.206703e+000 
1.261939e+000 
1.300258e+000 
1.317607e+000 
1.312177e+000 
1.284395e+000 
1.238891e+000 
1.175771e+000 
1.093934e+000 
9.953065e-001 
8.845158e-001 
7.604463e-001 
6.260526e-001 
4.902656e-001 
3.554827e-001 
2.225400e-001 
9.150763e-002 
-3.047220e-002 
-1.366690e-001 
-2.268813e-001 
-3.039120e-001 
-3.602261e-001 
-3.951406e-001 
-4.184341e-001 
-4.352214e-001 
-4.448714e-001 
-4.450504e-001 
-4.442342e-001 
-4.355108e-001 
-4.364594e-001 
-4.450897e-001 
-4.477170e-001 
-4.517621e-001 
-4.575190e-001 
-4.588393e-001 
-4.618019e-001 
-4.610328e-001 
-4.607163e-001 
-4.852574e-001 
-4.962430e-001 
-4.938604e-001 
-4.989036e-001 
-5.050253e-001 
-5.061406e-001 
-5.087230e-001 
-5.050008e-001 
-5.029868e-001 
-4.975195e-001 
-4.768670e-001 
-4.593087e-001 
-4.476533e-001 
-4.346713e-001 
-4.268448e-001 
-4.228961e-001 
-4.121808e-001 
-4.057876e-001 
-4.067661e-001 
-4.068634e-001 
-4.066196e-001 
-4.072806e-001 
-4.099741e-001 
-4.201899e-001 
-4.249139e-001 
-4.351363e-001 
-4.389754e-001 
-4.041042e-001 
-3.601767e-001 
-3.005494e-001 
-1.964696e-001 
-1.688845e-001 
-2.501215e-001 
-3.231606e-001 
-3.452364e-001 
-2.994964e-001 
-2.274232e-001 
-1.809740e-001 
-9.541321e-002 
-5.146482e-002 
-1.730284e-001 
-2.512765e-001 
-1.694787e-001 
-5.659409e-002 
3.058165e-002 
7.592879e-002 
8.376182e-002 
8.309144e-002 
4.939319e-002 
4.796627e-002 
1.764030e-001 
3.460441e-001 
4.783112e-001 
5.901355e-001 
6.859747e-001 
7.730251e-001 
8.683423e-001 
9.648560e-001 
1.052069e+000 
1.130432e+000 
1.196796e+000 
1.248219e+000 
1.277507e+000 
1.283472e+000 
1.271949e+000 
1.239058e+000 
1.184525e+000 
1.111967e+000 
1.024743e+000 
9.233761e-001 
8.047950e-001 
6.718354e-001 
5.372357e-001 
4.024829e-001 
2.648461e-001 
1.319346e-001 
7.355786e-003 
-1.053363e-001 
-2.085128e-001 
-2.990613e-001 
-3.655321e-001 
-4.095031e-001 
-4.420537e-001 
-4.631456e-001 
-4.736607e-001 
-4.765405e-001 
-4.760620e-001 
-4.745975e-001 
-4.673792e-001 
-4.580769e-001 
-4.562759e-001 
-4.587659e-001 
-4.583115e-001 
-4.564082e-001 
-4.561511e-001 
-4.579890e-001 
-4.579844e-001 
-4.599710e-001 
-4.667533e-001 
-4.751323e-001 
-4.793641e-001 
-4.778668e-001 
-4.798274e-001 
-4.858920e-001 
-4.853439e-001 
-4.840207e-001 
-4.868165e-001 
-4.876420e-001 
-4.869657e-001 
-4.807282e-001 
-4.731971e-001 
-4.678082e-001 
-4.534253e-001 
-4.324132e-001 
-4.175094e-001 
-4.043421e-001 
-3.932546e-001 
-3.843253e-001 
-3.760615e-001 
-3.719125e-001 
-3.658719e-001 
-3.572189e-001 
-3.551129e-001 
-3.582300e-001 
-3.605581e-001 
-3.646667e-001 
-3.684828e-001 
-3.812784e-001 
-3.844723e-001 
-3.517876e-001 
-3.072711e-001 
-2.488167e-001 
-1.351536e-001 
-4.691920e-002 
-1.005189e-001 
-2.011190e-001 
-2.479710e-001 
-2.192744e-001 
-1.492537e-001 
-9.630380e-002 
-1.171994e-002 
7.488191e-002 
-1.539894e-002 
-1.739050e-001 
-1.470337e-001 
-2.660573e-002 
7.341807e-002 
1.271866e-001 
1.344227e-001 
1.267294e-001 
7.830640e-002 
1.717043e-002 
8.856617e-002 
2.656880e-001 
4.094846e-001 
5.179937e-001 
6.086133e-001 
6.940288e-001 
7.828518e-001 
8.727111e-001 
9.636182e-001 
1.051683e+000 
1.127628e+000 
1.185654e+000 
1.224862e+000 
1.249225e+000 
1.249603e+000 
1.223921e+000 
1.183423e+000 
1.131353e+000 
1.060322e+000 
9.705962e-001 
8.648796e-001 
7.491787e-001 
6.241212e-001 
4.893643e-001 
3.581004e-001 
2.349412e-001 
1.131720e-001 
-5.509459e-003 
-1.116077e-001 
-2.023236e-001 
-2.777592e-001 
-3.376262e-001 
-3.766174e-001 
-3.985900e-001 
-4.142049e-001 
-4.273429e-001 
-4.294334e-001 
-4.282101e-001 
-4.310980e-001 
-4.344913e-001 
-4.340484e-001 
-4.334355e-001 
-4.381600e-001 
-4.471430e-001 
-4.512194e-001 
-4.527780e-001 
-4.658164e-001 
-4.774404e-001 
-4.823883e-001 
-4.899847e-001 
-4.991001e-001 
-5.091605e-001 
-5.154899e-001 
-5.140031e-001 
-5.219398e-001 
-5.311950e-001 
-5.285437e-001 
-5.268991e-001 
-5.288977e-001 
-5.277278e-001 
-5.281067e-001 
-5.211962e-001 
-5.164082e-001 
-5.182503e-001 
-5.083717e-001 
-4.941809e-001 
-4.835236e-001 
-4.732812e-001 
-4.616145e-001 
-4.459882e-001 
-4.255523e-001 
-4.132664e-001 
-4.038950e-001 
-3.951041e-001 
-3.915752e-001 
-3.897471e-001 
-3.882314e-001 
-3.778245e-001 
-3.655524e-001 
-3.630314e-001 
-3.668795e-001 
-3.724705e-001 
-3.893959e-001 
-3.897130e-001 
-3.442109e-001 
-2.835079e-001 
-1.968125e-001 
-6.101070e-002 
1.562702e-002 
-4.412034e-002 
-1.336105e-001 
-1.716386e-001 
-1.274216e-001 
-4.852272e-002 
2.608670e-003 
9.988221e-002 
1.731943e-001 
4.895304e-002 
-9.364066e-002 
-5.070791e-002 
5.894493e-002 
1.463542e-001 
1.842735e-001 
1.830803e-001 
1.694160e-001 
9.992097e-002 
3.442755e-002 
1.143083e-001 
2.758215e-001 
4.042787e-001 
5.074233e-001 
5.989391e-001 
6.841076e-001 
7.678123e-001 
8.569262e-001 
9.412114e-001 
1.017312e+000 
1.089155e+000 
1.151172e+000 
1.193565e+000 
1.215709e+000 
1.214781e+000 
1.191178e+000 
1.152158e+000 
1.095808e+000 
1.024128e+000 
9.403303e-001 
8.431233e-001 
7.315877e-001 
6.086639e-001 
4.814721e-001 
3.527976e-001 
2.356262e-001 
1.216627e-001 
7.973886e-003 
-9.318748e-002 
-1.791073e-001 
-2.523725e-001 
-3.112984e-001 
-3.505249e-001 
-3.732873e-001 
-3.829543e-001 
-3.946680e-001 
-4.060846e-001 
-4.087452e-001 
-4.068808e-001 
-4.107938e-001 
-4.150962e-001 
-4.177817e-001 
-4.216041e-001 
-4.281227e-001 
-4.392077e-001 
-4.476521e-001 
-4.486592e-001 
-4.553018e-001 
-4.651241e-001 
-4.704387e-001 
-4.787904e-001 
-4.879670e-001 
-4.972839e-001 
-4.996354e-001 
-4.989314e-001 
-4.975892e-001 
-5.005714e-001 
-4.981782e-001 
-4.994835e-001 
-5.022375e-001 
-5.013067e-001 
-4.963031e-001 
-4.872232e-001 
-4.809390e-001 
-4.694661e-001 
-4.582039e-001 
-4.436682e-001 
-4.297559e-001 
-4.104512e-001 
-3.953976e-001 
-3.837792e-001 
-3.768237e-001 
-3.697504e-001 
-3.652110e-001 
-3.627640e-001 
-3.545633e-001 
-3.498665e-001 
-3.495936e-001 
-3.558200e-001 
-3.629632e-001 
-3.766330e-001 
-3.751693e-001 
-3.377921e-001 
-2.830131e-001 
-1.976337e-001 
-5.108047e-002 
2.574162e-002 
-4.424714e-002 
-1.316649e-001 
-1.640446e-001 
-1.274331e-001 
-5.573732e-002 
1.674431e-003 
1.148802e-001 
1.851737e-001 
3.661626e-002 
-1.053017e-001 
-5.201607e-002 
5.488162e-002 
1.397894e-001 
1.823291e-001 
1.808654e-001 
1.625833e-001 
7.496216e-002 
2.924922e-005 
8.658880e-002 
2.481608e-001 
3.728285e-001 
4.749543e-001 
5.580621e-001 
6.364847e-001 
7.202973e-001 
8.014580e-001 
8.854027e-001 
9.722404e-001 
1.049756e+000 
1.111725e+000 
1.156528e+000 
1.183284e+000 
1.193239e+000 
1.179561e+000 
1.145255e+000 
1.096702e+000 
1.033486e+000 
9.525704e-001 
8.532160e-001 
7.418962e-001 
6.236809e-001 
4.989825e-001 
3.686771e-001 
2.401439e-001 
1.176844e-001 
4.527295e-004 
-1.113193e-001 
-2.108627e-001 
-2.931099e-001 
-3.598126e-001 
-4.100952e-001 
-4.467209e-001 
-4.689539e-001 
-4.841548e-001 
-4.935947e-001 
-4.958207e-001 
-4.996744e-001 
-5.065805e-001 
-5.090402e-001 
-5.121878e-001 
-5.190230e-001 
-5.246506e-001 
-5.304773e-001 
-5.343265e-001 
-5.438219e-001 
-5.597764e-001 
-5.675792e-001 
-5.708222e-001 
-5.811387e-001 
-5.908713e-001 
-5.975984e-001 
-6.008981e-001 
-6.068724e-001 
-6.145981e-001 
-6.143378e-001 
-6.069294e-001 
-6.009310e-001 
-5.978498e-001 
-5.882018e-001 
-5.691464e-001 
-5.512724e-001 
-5.438516e-001 
-5.351497e-001 
-5.274202e-001 
-5.227929e-001 
-5.198156e-001 
-5.147454e-001 
-5.021609e-001 
-4.931352e-001 
-4.966979e-001 
-5.012179e-001 
-5.001981e-001 
-5.095303e-001 
-5.023310e-001 
-4.534934e-001 
-3.905310e-001 
-3.278033e-001 
-2.221825e-001 
-1.200484e-001 
-1.498288e-001 
-2.400238e-001 
-2.885268e-001 
-2.679753e-001 
-2.087687e-001 
-1.691181e-001 
-1.038894e-001 
-7.272643e-003 
-6.886940e-002 
-2.307576e-001 
-2.266382e-001 
-1.298571e-001 
-4.820594e-002 
2.767856e-003 
1.803222e-002 
1.736291e-002 
-1.959273e-002 
-8.569846e-002 
-3.252733e-002 
1.341585e-001 
2.800856e-001 
4.034860e-001 
5.118029e-001 
6.055572e-001 
6.926931e-001 
7.803327e-001 
8.678735e-001 
9.538661e-001 
1.028260e+000 
1.085293e+000 
1.123658e+000 
1.146422e+000 
1.150156e+000 
1.131041e+000 
1.093550e+000 
1.042409e+000 
9.754919e-001 
8.877626e-001 
7.832266e-001 
6.696496e-001 
5.511466e-001 
4.269509e-001 
3.028632e-001 
1.835560e-001 
6.826074e-002 
-4.328096e-002 
-1.462577e-001 
-2.350174e-001 
-3.065165e-001 
-3.602958e-001 
-3.984320e-001 
-4.195203e-001 
-4.299858e-001 
-4.353156e-001 
-4.356935e-001 
-4.321431e-001 
-4.270259e-001 
-4.204096e-001 
-4.148548e-001 
-4.096208e-001 
-4.048482e-001 
-4.048819e-001 
-4.072451e-001 
-4.111184e-001 
-4.152279e-001 
-4.183353e-001 
-4.203503e-001 
-4.195671e-001 
-4.154238e-001 
-4.113506e-001 
-4.082163e-001 
-4.031105e-001 
-3.943261e-001 
-3.829889e-001 
-3.736681e-001 
-3.662569e-001 
-3.599301e-001 
-3.567555e-001 
-3.584696e-001 
-3.611084e-001 
-3.577357e-001 
-3.530958e-001 
-3.529336e-001 
-3.542203e-001 
-3.556902e-001 
-3.649513e-001 
-3.770169e-001 
-3.596417e-001 
-3.071513e-001 
-2.630958e-001 
-2.078999e-001 
-1.109989e-001 
-9.341288e-002 
-1.804428e-001 
-2.574693e-001 
