60
0.7813
1.2102e+003
397.9507
9.565274e-003 
2.539034e-002 
4.017067e-002 
5.521665e-002 
7.009493e-002 
8.480635e-002 
9.978377e-002 
1.137207e-001 
1.338955e-001 
1.622759e-001 
1.801190e-001 
1.913777e-001 
2.032934e-001 
2.157981e-001 
2.289563e-001 
2.413748e-001 
2.528255e-001 
2.641902e-001 
2.695372e-001 
2.683538e-001 
2.677545e-001 
2.677022e-001 
2.661165e-001 
2.587463e-001 
2.483133e-001 
2.385225e-001 
2.320289e-001 
2.298365e-001 
2.278241e-001 
2.226979e-001 
2.150613e-001 
2.038201e-001 
1.922222e-001 
1.845723e-001 
1.806733e-001 
1.781957e-001 
1.741953e-001 
1.670549e-001 
1.580093e-001 
1.495478e-001 
1.429769e-001 
1.393566e-001 
1.397399e-001 
1.432273e-001 
1.469129e-001 
1.501109e-001 
1.516765e-001 
1.505274e-001 
1.469755e-001 
1.433159e-001 
1.418246e-001 
1.424716e-001 
1.409759e-001 
1.351728e-001 
1.281293e-001 
1.199542e-001 
1.116168e-001 
1.055316e-001 
1.022621e-001 
9.919752e-002 
9.403450e-002 
8.647983e-002 
7.936070e-002 
7.551527e-002 
7.269869e-002 
7.153141e-002 
7.162412e-002 
7.325992e-002 
7.643666e-002 
7.906066e-002 
8.145095e-002 
8.287526e-002 
8.311590e-002 
8.347359e-002 
8.462744e-002 
8.688066e-002 
9.020327e-002 
9.119958e-002 
9.098383e-002 
9.294113e-002 
9.451723e-002 
9.616364e-002 
9.788716e-002 
9.736291e-002 
9.455779e-002 
9.026296e-002 
8.673953e-002 
8.662149e-002 
8.817432e-002 
8.787030e-002 
8.934148e-002 
9.350065e-002 
9.622283e-002 
9.678575e-002 
9.608407e-002 
9.422883e-002 
9.250208e-002 
9.082087e-002 
9.153369e-002 
9.646411e-002 
9.888308e-002 
9.529320e-002 
9.176442e-002 
9.185268e-002 
9.652693e-002 
1.034348e-001 
1.079327e-001 
1.109852e-001 
1.093859e-001 
1.039896e-001 
1.017178e-001 
1.059340e-001 
1.140708e-001 
1.205747e-001 
1.217835e-001 
1.201250e-001 
1.181407e-001 
1.151998e-001 
1.142504e-001 
1.147754e-001 
1.152507e-001 
1.151592e-001 
1.149274e-001 
1.178738e-001 
1.229552e-001 
1.260573e-001 
1.264120e-001 
1.268486e-001 
1.275099e-001 
1.275242e-001 
1.258051e-001 
1.240831e-001 
1.229941e-001 
1.195246e-001 
1.151075e-001 
1.122697e-001 
1.111611e-001 
1.101267e-001 
1.087521e-001 
1.085102e-001 
1.098910e-001 
1.081500e-001 
1.018782e-001 
9.216876e-002 
8.178912e-002 
7.369842e-002 
7.105751e-002 
7.185165e-002 
7.326282e-002 
7.191147e-002 
6.838398e-002 
6.602510e-002 
6.467732e-002 
6.602964e-002 
6.724049e-002 
6.562105e-002 
6.005464e-002 
5.403791e-002 
4.892642e-002 
4.806483e-002 
4.957438e-002 
5.051758e-002 
5.113053e-002 
5.124720e-002 
5.342174e-002 
5.881273e-002 
6.357617e-002 
6.392797e-002 
6.298534e-002 
6.087879e-002 
6.004043e-002 
6.044028e-002 
6.092291e-002 
6.129630e-002 
5.938424e-002 
5.552457e-002 
5.362904e-002 
5.597865e-002 
6.003697e-002 
6.085414e-002 
5.649525e-002 
5.073353e-002 
4.483317e-002 
4.201474e-002 
4.231405e-002 
4.397335e-002 
4.659533e-002 
4.642495e-002 
4.219297e-002 
3.710330e-002 
3.214956e-002 
2.902417e-002 
3.017162e-002 
3.267373e-002 
3.718537e-002 
4.199092e-002 
4.182510e-002 
3.642635e-002 
2.813155e-002 
2.237588e-002 
2.282924e-002 
2.719324e-002 
3.096336e-002 
3.122830e-002 
2.833056e-002 
2.246043e-002 
1.662673e-002 
1.574095e-002 
2.006335e-002 
2.373126e-002 
2.417709e-002 
2.066488e-002 
1.740575e-002 
1.647947e-002 
1.551313e-002 
1.636419e-002 
1.771195e-002 
1.657132e-002 
1.472592e-002 
1.499209e-002 
1.669329e-002 
1.922473e-002 
1.875370e-002 
1.606821e-002 
1.320014e-002 
8.710945e-003 
4.861355e-003 
2.803283e-003 
1.814254e-003 
1.124933e-003 
-8.402927e-004 
-3.012700e-003 
-3.725117e-003 
-4.411629e-003 
-5.180793e-003 
-4.355587e-003 
-2.163335e-003 
2.572868e-003 
5.333869e-003 
6.208197e-003 
7.304986e-003 
8.644721e-003 
1.069397e-002 
1.351676e-002 
1.641296e-002 
1.835489e-002 
1.813005e-002 
1.494039e-002 
1.351771e-002 
1.218977e-002 
1.011980e-002 
5.483113e-003 
-1.135873e-003 
-5.955531e-003 
-9.560067e-003 
-1.238234e-002 
-1.273140e-002 
-1.141388e-002 
-1.158619e-002 
-1.205444e-002 
-1.271581e-002 
-1.166730e-002 
-1.035614e-002 
-1.213289e-002 
-1.362784e-002 
-1.229287e-002 
-9.022374e-003 
-4.660654e-003 
-1.501889e-003 
-2.476425e-003 
-6.212970e-003 
-1.139587e-002 
-1.501036e-002 
-1.467800e-002 
-1.345200e-002 
-1.350099e-002 
-1.564561e-002 
-2.007292e-002 
-2.276193e-002 
-2.181530e-002 
-1.946792e-002 
-1.852111e-002 
-1.898356e-002 
-2.102979e-002 
-2.381018e-002 
-2.478918e-002 
-2.234100e-002 
-1.973014e-002 
-1.998575e-002 
-2.294927e-002 
-2.489427e-002 
-2.283788e-002 
-2.095506e-002 
-1.932764e-002 
-1.559629e-002 
-1.382315e-002 
-1.840316e-002 
-2.472685e-002 
-2.913300e-002 
-2.931446e-002 
-2.809143e-002 
-2.557112e-002 
-1.921833e-002 
-1.023630e-002 
-2.335097e-003 
3.138723e-003 
8.220585e-003 
1.226871e-002 
1.242457e-002 
7.966639e-003 
1.844712e-003 
-5.041470e-003 
-8.573519e-003 
-9.631699e-003 
-1.098439e-002 
-1.268558e-002 
-1.786604e-002 
-2.681152e-002 
-3.475487e-002 
-3.981177e-002 
-4.069795e-002 
-3.937935e-002 
-4.377342e-002 
-5.445750e-002 
-6.810815e-002 
-8.036826e-002 
-8.376737e-002 
-7.867067e-002 
-6.904979e-002 
-5.830429e-002 
-5.169097e-002 
-4.952933e-002 
-4.821939e-002 
-4.683061e-002 
-4.424613e-002 
-4.200096e-002 
-4.278522e-002 
-4.314661e-002 
-4.262853e-002 
-4.262332e-002 
-4.230446e-002 
-4.457763e-002 
-4.896452e-002 
-5.246508e-002 
-5.450355e-002 
-5.460201e-002 
-5.499025e-002 
-6.073145e-002 
-6.912086e-002 
-7.405870e-002 
-7.307290e-002 
-6.222773e-002 
-4.384447e-002 
-2.516834e-002 
-1.376589e-002 
-1.209831e-002 
-1.372625e-002 
-1.038350e-002 
-4.233529e-003 
-2.207673e-003 
-7.335787e-003 
-2.229227e-002 
-4.579179e-002 
-7.224402e-002 
-9.424610e-002 
-1.066674e-001 
-1.149100e-001 
-1.272395e-001 
-1.443736e-001 
-1.637899e-001 
-1.829655e-001 
-1.964826e-001 
-2.021893e-001 
-2.017923e-001 
-1.969309e-001 
-1.911619e-001 
-1.841933e-001 
-1.731999e-001 
-1.580392e-001 
-1.376865e-001 
-1.131708e-001 
-8.978798e-002 
-7.211615e-002 
-5.926086e-002 
-5.070470e-002 
-4.454574e-002 
-3.823129e-002 
-3.256547e-002 
-2.729402e-002 
-2.303785e-002 
-2.082460e-002 
-1.808163e-002 
-1.059596e-002 
-4.075656e-004 
1.098739e-002 
1.999719e-002 
2.288289e-002 
2.084174e-002 
1.792053e-002 
1.694818e-002 
1.746130e-002 
1.842895e-002 
1.732389e-002 
1.351837e-002 
6.938157e-003 
-1.878030e-003 
-9.580809e-003 
-1.255834e-002 
-1.303914e-002 
-1.371290e-002 
-1.437426e-002 
-1.673421e-002 
-2.082036e-002 
-2.603756e-002 
-2.973515e-002 
-2.810697e-002 
-2.119322e-002 
-1.226057e-002 
-6.579917e-003 
-5.869811e-003 
-8.517070e-003 
-1.248197e-002 
-1.532729e-002 
-1.417624e-002 
-1.114905e-002 
-1.018208e-002 
-1.269516e-002 
-1.948390e-002 
-2.702803e-002 
-3.231359e-002 
-3.464748e-002 
-3.498556e-002 
-3.508615e-002 
-3.788558e-002 
-4.187680e-002 
-4.386587e-002 
-4.658240e-002 
-4.826839e-002 
-4.705383e-002 
-4.456031e-002 
-4.211237e-002 
-4.290854e-002 
-4.833410e-002 
-5.553717e-002 
-6.311135e-002 
-6.974437e-002 
-7.142129e-002 
-7.071166e-002 
-7.195910e-002 
-7.721881e-002 
-8.621635e-002 
-9.425859e-002 
-9.747094e-002 
-9.455236e-002 
-8.813167e-002 
-7.942089e-002 
-6.967271e-002 
-6.141023e-002 
-5.416004e-002 
-4.730235e-002 
-4.352529e-002 
-4.453485e-002 
-4.776938e-002 
-5.051487e-002 
-4.862016e-002 
-4.380409e-002 
-4.202222e-002 
-4.482513e-002 
-5.187028e-002 
-6.027592e-002 
-6.544810e-002 
-6.409149e-002 
-6.061248e-002 
-5.957181e-002 
-6.255764e-002 
-6.764161e-002 
-7.087382e-002 
-6.846579e-002 
-5.880057e-002 
-4.706248e-002 
-3.612876e-002 
-2.855560e-002 
-2.335392e-002 
-1.885186e-002 
-1.636942e-002 
-2.022782e-002 
-2.557641e-002 
-3.057920e-002 
-3.624591e-002 
-4.006233e-002 
-4.365324e-002 
-4.687528e-002 
-5.057417e-002 
-5.733436e-002 
-6.503737e-002 
-6.720714e-002 
-6.585066e-002 
-6.220654e-002 
-5.761132e-002 
-5.225015e-002 
-4.463817e-002 
-3.836845e-002 
-3.391611e-002 
-2.717525e-002 
-1.831499e-002 
-9.075932e-003 
-1.342432e-004 
4.472263e-003 
3.619977e-003 
-2.597275e-003 
-1.308564e-002 
-1.955123e-002 
-1.815233e-002 
-1.304346e-002 
-9.094502e-003 
-1.181601e-002 
-2.253055e-002 
-3.390797e-002 
-4.020651e-002 
-4.003276e-002 
-3.393763e-002 
-2.671947e-002 
-2.287021e-002 
-2.230084e-002 
-2.377363e-002 
-2.433501e-002 
-1.984246e-002 
-1.271253e-002 
-7.553453e-003 
-4.381272e-003 
-1.862508e-003 
1.057478e-003 
5.121318e-003 
5.990724e-003 
4.676232e-003 
5.433100e-003 
5.646184e-003 
4.050422e-003 
1.351267e-003 
-1.469954e-003 
-4.078364e-003 
-7.886701e-003 
-1.408388e-002 
-1.796074e-002 
-1.956535e-002 
-2.335675e-002 
-2.959154e-002 
-3.593345e-002 
-3.968456e-002 
-4.256250e-002 
-4.567063e-002 
-4.818522e-002 
-5.036170e-002 
-5.327313e-002 
-5.551046e-002 
-5.467011e-002 
-5.220245e-002 
-5.043944e-002 
-4.878216e-002 
-4.532144e-002 
-3.956925e-002 
-3.366536e-002 
-2.801444e-002 
-2.211362e-002 
-1.732989e-002 
-1.533212e-002 
-1.184857e-002 
-5.446188e-003 
1.175157e-003 
6.184693e-003 
6.489829e-003 
5.254188e-003 
6.170461e-003 
1.031697e-002 
1.660219e-002 
2.444551e-002 
2.994029e-002 
3.044575e-002 
2.508889e-002 
1.672668e-002 
1.158395e-002 
8.792960e-003 
6.631539e-003 
2.749753e-003 
-2.996216e-003 
-1.183350e-002 
-2.328306e-002 
-3.329328e-002 
-3.939779e-002 
-4.250110e-002 
-4.538166e-002 
-4.975191e-002 
-5.762380e-002 
-6.660555e-002 
-7.446006e-002 
-7.662960e-002 
-7.298441e-002 
-6.698388e-002 
-5.784282e-002 
-4.902812e-002 
-4.364333e-002 
-3.984302e-002 
-3.494899e-002 
-3.056781e-002 
-2.641991e-002 
-2.524477e-002 
-2.381471e-002 
-2.000735e-002 
-1.818821e-002 
-1.658301e-002 
-1.393835e-002 
-1.251569e-002 
-1.131296e-002 
-8.066021e-003 
-4.080754e-003 
1.681047e-003 
4.598078e-003 
3.914489e-003 
3.266238e-003 
2.789558e-003 
4.056608e-003 
9.200813e-003 
1.436174e-002 
1.625617e-002 
1.577718e-002 
1.492558e-002 
1.622990e-002 
1.791943e-002 
1.800674e-002 
1.601476e-002 
1.204431e-002 
6.184337e-003 
5.820939e-004 
-2.480418e-003 
-3.807766e-003 
-6.102244e-003 
-9.023652e-003 
-1.056991e-002 
-9.233964e-003 
-5.078567e-003 
-1.223199e-003 
1.215685e-003 
3.314694e-003 
5.638170e-003 
8.961002e-003 
1.364567e-002 
1.725151e-002 
1.900839e-002 
1.830023e-002 
1.697866e-002 
2.048005e-002 
2.751456e-002 
3.295314e-002 
3.580693e-002 
3.596600e-002 
3.386448e-002 
3.308408e-002 
3.429871e-002 
3.752004e-002 
4.060351e-002 
3.860882e-002 
3.337333e-002 
2.975200e-002 
2.765586e-002 
2.678127e-002 
2.529654e-002 
2.164916e-002 
1.770191e-002 
1.515684e-002 
1.371203e-002 
1.356472e-002 
1.347031e-002 
1.337782e-002 
1.606560e-002 
2.017440e-002 
2.624325e-002 
3.390336e-002 
4.063972e-002 
4.538441e-002 
5.067175e-002 
5.826148e-002 
6.909930e-002 
7.834253e-002 
8.037775e-002 
7.790110e-002 
7.330606e-002 
6.975325e-002 
6.981655e-002 
7.199460e-002 
7.228126e-002 
6.540324e-002 
4.973164e-002 
3.204772e-002 
1.745342e-002 
7.363206e-003 
2.844495e-003 
7.366403e-005 
-4.207004e-003 
-1.170567e-002 
-2.150968e-002 
-2.846219e-002 
-3.066307e-002 
-3.013968e-002 
-2.650125e-002 
-2.194675e-002 
-1.915347e-002 
-1.858404e-002 
-1.986304e-002 
-2.052956e-002 
-1.917948e-002 
-1.492538e-002 
-9.266262e-003 
-3.001527e-003 
8.369722e-004 
1.528947e-003 
4.793570e-004 
-3.594986e-004 
-4.215415e-004 
1.088455e-004 
-9.382823e-004 
-5.805361e-003 
-1.072601e-002 
-1.220270e-002 
-7.710070e-003 
2.405438e-003 
1.689625e-002 
3.319786e-002 
4.684414e-002 
5.375301e-002 
5.555951e-002 
5.645343e-002 
5.583789e-002 
5.126240e-002 
4.121426e-002 
2.656410e-002 
7.012080e-003 
-1.599754e-002 
-3.842344e-002 
-5.575107e-002 
-6.863825e-002 
-8.012274e-002 
-9.264418e-002 
-1.087077e-001 
-1.254586e-001 
-1.392379e-001 
-1.470631e-001 
-1.485312e-001 
-1.441948e-001 
-1.352266e-001 
-1.203977e-001 
-1.024168e-001 
-7.974319e-002 
-4.968213e-002 
-1.765003e-002 
1.082107e-002 
3.321649e-002 
5.028642e-002 
6.391289e-002 
7.511457e-002 
8.279321e-002 
9.038887e-002 
9.633967e-002 
9.944301e-002 
1.030632e-001 
1.098514e-001 
1.163844e-001 
1.192021e-001 
1.171413e-001 
1.128021e-001 
1.107422e-001 
1.109672e-001 
1.133561e-001 
1.158312e-001 
1.142003e-001 
1.060531e-001 
9.735149e-002 
9.303306e-002 
9.345313e-002 
9.509315e-002 
9.550282e-002 
9.396760e-002 
9.104893e-002 
8.810571e-002 
8.912723e-002 
9.500328e-002 
1.002846e-001 
1.011930e-001 
1.001443e-001 
1.002674e-001 
1.018910e-001 
1.068695e-001 
1.122390e-001 
1.151749e-001 
1.141415e-001 
1.091961e-001 
1.035076e-001 
9.950996e-002 
9.516418e-002 
9.091808e-002 
8.762060e-002 
7.993287e-002 
6.949770e-002 
5.846128e-002 
4.746643e-002 
3.896177e-002 
3.385858e-002 
3.185038e-002 
3.179746e-002 
2.982207e-002 
2.292717e-002 
1.483792e-002 
7.975305e-003 
5.770790e-003 
7.702435e-003 
1.034776e-002 
1.174625e-002 
1.006477e-002 
6.469413e-003 
3.596068e-003 
3.235594e-003 
4.895775e-003 
5.513690e-003 
9.158975e-004 
-7.981201e-003 
-1.615027e-002 
-2.193251e-002 
-2.655088e-002 
-3.088306e-002 
-3.442147e-002 
-3.757544e-002 
-4.170667e-002 
-4.523130e-002 
-4.517028e-002 
-4.229516e-002 
-4.090692e-002 
-4.106648e-002 
-3.877730e-002 
-3.309135e-002 
-2.618235e-002 
-1.944585e-002 
-1.285391e-002 
-6.189341e-003 
7.258955e-004 
7.211194e-003 
1.425858e-002 
1.916479e-002 
2.092792e-002 
2.336348e-002 
2.435913e-002 
2.483868e-002 
2.807918e-002 
3.115115e-002 
3.128153e-002 
3.018871e-002 
2.825198e-002 
3.006030e-002 
3.402985e-002 
3.533446e-002 
3.586363e-002 
3.505882e-002 
3.272956e-002 
3.095090e-002 
3.228996e-002 
3.651435e-002 
4.260624e-002 
4.753665e-002 
5.063433e-002 
5.007522e-002 
4.717442e-002 
4.387955e-002 
4.017277e-002 
3.928412e-002 
4.061279e-002 
4.284095e-002 
4.375453e-002 
4.167086e-002 
3.755967e-002 
3.704239e-002 
4.117204e-002 
4.818284e-002 
5.531998e-002 
5.883580e-002 
5.849768e-002 
5.551966e-002 
5.460331e-002 
5.760012e-002 
6.561142e-002 
7.465249e-002 
8.038272e-002 
8.391058e-002 
8.644953e-002 
8.644007e-002 
8.500897e-002 
8.469460e-002 
8.426424e-002 
8.362691e-002 
8.002728e-002 
7.353672e-002 
6.799373e-002 
6.068184e-002 
5.242262e-002 
4.866210e-002 
4.926348e-002 
4.990265e-002 
4.697438e-002 
3.989412e-002 
3.222118e-002 
2.656966e-002 
2.308489e-002 
2.464462e-002 
2.766080e-002 
2.925532e-002 
2.830141e-002 
2.660649e-002 
2.817824e-002 
3.264867e-002 
3.740807e-002 
4.056956e-002 
4.116941e-002 
4.034615e-002 
4.151759e-002 
4.444147e-002 
4.808585e-002 
5.144307e-002 
5.317050e-002 
5.397462e-002 
5.482235e-002 
5.661088e-002 
5.936025e-002 
6.040100e-002 
5.874030e-002 
5.592744e-002 
5.424167e-002 
5.358333e-002 
5.224848e-002 
5.020814e-002 
4.854912e-002 
4.731116e-002 
4.533530e-002 
4.401835e-002 
4.283531e-002 
4.094273e-002 
3.716785e-002 
3.241737e-002 
2.998142e-002 
3.069814e-002 
3.329717e-002 
3.627398e-002 
4.023595e-002 
4.253247e-002 
4.492146e-002 
4.720782e-002 
4.877657e-002 
5.066955e-002 
5.229381e-002 
5.255603e-002 
5.296631e-002 
5.149610e-002 
4.649732e-002 
4.275281e-002 
3.958424e-002 
3.795315e-002 
3.904493e-002 
3.864142e-002 
3.560138e-002 
2.971001e-002 
1.991727e-002 
1.277324e-002 
1.053412e-002 
1.106574e-002 
1.287245e-002 
1.197996e-002 
9.319412e-003 
8.882590e-003 
9.457429e-003 
1.315882e-002 
1.933502e-002 
2.273241e-002 
2.329366e-002 
2.015585e-002 
1.617532e-002 
1.532172e-002 
1.525793e-002 
1.400857e-002 
1.443983e-002 
1.572678e-002 
1.613703e-002 
1.770552e-002 
2.041739e-002 
2.462737e-002 
2.950748e-002 
3.341176e-002 
3.643074e-002 
3.879142e-002 
3.830884e-002 
3.641809e-002 
3.774503e-002 
4.305755e-002 
5.235029e-002 
5.836710e-002 
5.614838e-002 
4.699183e-002 
3.388485e-002 
2.138744e-002 
1.229267e-002 
6.371211e-003 
1.813719e-003 
-6.133355e-003 
-2.217281e-002 
-3.781546e-002 
-4.712329e-002 
-4.976753e-002 
-4.836128e-002 
-4.499245e-002 
-4.209671e-002 
-4.101924e-002 
-4.110532e-002 
-3.972314e-002 
-3.509809e-002 
-2.989127e-002 
-2.603354e-002 
-2.306776e-002 
-1.928265e-002 
-1.663890e-002 
-1.397501e-002 
-1.001226e-002 
-7.329934e-003 
-8.391189e-003 
-1.208664e-002 
-1.812985e-002 
-2.425935e-002 
-2.871556e-002 
-3.127048e-002 
-3.055717e-002 
-2.820863e-002 
-2.779442e-002 
-2.898846e-002 
-2.965654e-002 
-2.746402e-002 
-1.882116e-002 
-4.652290e-003 
9.740099e-003 
1.969110e-002 
2.442925e-002 
2.747932e-002 
3.182527e-002 
3.863392e-002 
4.628046e-002 
5.215833e-002 
5.279081e-002 
4.764062e-002 
4.028840e-002 
3.509209e-002 
3.251384e-002 
2.970798e-002 
2.436682e-002 
1.495217e-002 
3.945987e-003 
-5.994541e-003 
-1.220357e-002 
-1.493402e-002 
-1.692594e-002 
-2.041388e-002 
-2.513455e-002 
-3.030853e-002 
-3.405793e-002 
-3.427782e-002 
-3.213092e-002 
-2.848917e-002 
-2.552039e-002 
-2.457209e-002 
-2.337706e-002 
-2.193897e-002 
-2.082818e-002 
-1.881836e-002 
-1.611783e-002 
-1.588532e-002 
-1.910909e-002 
-2.609913e-002 
-3.413357e-002 
-3.847976e-002 
-3.980546e-002 
-3.694155e-002 
-3.059520e-002 
-2.357569e-002 
-1.777122e-002 
-1.199863e-002 
-3.676390e-003 
1.019177e-002 
2.538635e-002 
3.372186e-002 
3.526038e-002 
2.894991e-002 
1.673285e-002 
1.414003e-004 
-1.953686e-002 
-3.806222e-002 
-5.458882e-002 
-7.200216e-002 
-8.862539e-002 
-1.024472e-001 
-1.157070e-001 
-1.287476e-001 
-1.427427e-001 
-1.537942e-001 
-1.584104e-001 
-1.571736e-001 
-1.516162e-001 
-1.449958e-001 
-1.376248e-001 
-1.262694e-001 
-1.085853e-001 
-8.308788e-002 
-5.240086e-002 
-2.184654e-002 
4.823140e-003 
2.457294e-002 
3.897062e-002 
5.108739e-002 
6.234881e-002 
7.025098e-002 
7.345494e-002 
7.255894e-002 
7.072602e-002 
6.919214e-002 
6.981570e-002 
7.210832e-002 
7.330668e-002 
7.314549e-002 
7.070190e-002 
7.026585e-002 
7.081911e-002 
7.014641e-002 
6.909827e-002 
6.862630e-002 
6.652735e-002 
6.394315e-002 
6.089725e-002 
5.902019e-002 
5.986035e-002 
6.108030e-002 
6.539241e-002 
7.245637e-002 
7.635249e-002 
7.625148e-002 
7.519994e-002 
7.537886e-002 
7.949887e-002 
8.508038e-002 
8.877637e-002 
8.758032e-002 
8.000322e-002 
7.036889e-002 
6.734363e-002 
7.142486e-002 
7.717432e-002 
7.795394e-002 
7.113754e-002 
6.013925e-002 
4.831192e-002 
3.991031e-002 
3.740642e-002 
3.788832e-002 
3.465813e-002 
2.559013e-002 
1.482188e-002 
8.085373e-003 
5.957963e-003 
5.130767e-003 
4.662470e-003 
3.190928e-003 
-5.845778e-004 
-5.843700e-003 
-9.845204e-003 
-1.268690e-002 
-1.687648e-002 
-2.205834e-002 
-2.639174e-002 
-2.760726e-002 
-2.700089e-002 
-2.587836e-002 
-2.566398e-002 
-2.789212e-002 
-3.226293e-002 
-3.588725e-002 
-3.813230e-002 
-4.067910e-002 
-4.120573e-002 
-3.921461e-002 
-3.635395e-002 
-3.541667e-002 
-3.679410e-002 
-3.888604e-002 
-4.116547e-002 
-4.246663e-002 
-3.965250e-002 
-3.314282e-002 
-2.811815e-002 
-2.785956e-002 
-3.090230e-002 
-3.235662e-002 
-2.809204e-002 
-1.885782e-002 
-7.160934e-003 
8.191599e-004 
1.919403e-003 
-1.597376e-003 
-5.377868e-003 
-6.235717e-003 
-2.123540e-003 
3.974858e-003 
7.225657e-003 
6.783344e-003 
3.025687e-003 
8.879148e-004 
6.671161e-004 
1.688419e-003 
3.776236e-003 
5.216856e-003 
4.757755e-003 
5.076509e-003 
4.984892e-003 
5.136576e-003 
6.073986e-003 
7.082668e-003 
1.105918e-002 
1.868812e-002 
2.523822e-002 
3.058948e-002 
3.393599e-002 
3.412302e-002 
3.458088e-002 
3.500458e-002 
3.506233e-002 
3.517689e-002 
3.486011e-002 
3.094606e-002 
2.759163e-002 
2.441736e-002 
2.074779e-002 
1.622999e-002 
1.108994e-002 
7.773490e-003 
8.213425e-003 
9.795101e-003 
1.114737e-002 
1.227298e-002 
9.078800e-003 
5.100438e-003 
2.899923e-003 
4.566072e-003 
1.003516e-002 
1.504763e-002 
1.916267e-002 
2.269573e-002 
2.447507e-002 
3.022646e-002 
3.942645e-002 
4.696807e-002 
5.236131e-002 
5.390793e-002 
5.342328e-002 
5.420439e-002 
5.411572e-002 
5.524988e-002 
5.671278e-002 
5.303909e-002 
4.871354e-002 
4.575342e-002 
4.440206e-002 
4.428174e-002 
4.251220e-002 
3.876433e-002 
3.287804e-002 
2.502293e-002 
1.767342e-002 
1.358281e-002 
1.142647e-002 
1.108714e-002 
9.758690e-003 
8.801318e-003 
9.078109e-003 
9.503143e-003 
1.032301e-002 
1.027678e-002 
1.092924e-002 
9.951648e-003 
7.553710e-003 
3.435592e-003 
-7.744590e-005 
-2.235712e-003 
-2.523386e-003 
-1.641842e-003 
7.972403e-004 
2.203728e-003 
-1.948718e-004 
-3.418187e-003 
-7.788677e-003 
-1.009018e-002 
-8.589906e-003 
-6.588902e-003 
-5.598700e-003 
-5.829510e-003 
-7.228093e-003 
-7.984321e-003 
-8.533527e-003 
-1.013645e-002 
-1.080078e-002 
-1.245485e-002 
-1.609128e-002 
-1.882489e-002 
-2.007361e-002 
-1.967528e-002 
-2.071252e-002 
-2.175654e-002 
-2.225663e-002 
-2.293906e-002 
-2.382118e-002 
-2.426252e-002 
-2.360101e-002 
-2.210849e-002 
-2.159416e-002 
-2.245935e-002 
-2.243484e-002 
-2.259982e-002 
-2.138413e-002 
-1.834005e-002 
-1.325304e-002 
-6.495301e-003 
-1.898934e-003 
-1.689938e-003 
-4.367574e-003 
-7.952269e-003 
-9.677845e-003 
-9.910004e-003 
-9.476165e-003 
-8.503697e-003 
-8.470954e-003 
-1.014850e-002 
-1.098005e-002 
-9.812881e-003 
-8.579378e-003 
-9.211943e-003 
-1.196234e-002 
-1.222722e-002 
-8.677653e-003 
-4.674016e-003 
-2.815134e-003 
-2.006196e-003 
-4.547038e-003 
-1.063887e-002 
-1.488228e-002 
-1.380338e-002 
-8.448328e-003 
-6.900401e-003 
-1.276081e-002 
-1.860808e-002 
-2.249858e-002 
-2.592180e-002 
-2.675857e-002 
-2.600962e-002 
-2.711024e-002 
-3.190901e-002 
-3.977196e-002 
-4.390392e-002 
-4.209093e-002 
-3.975669e-002 
-3.682618e-002 
-3.329238e-002 
-2.927868e-002 
-2.408985e-002 
-1.919713e-002 
-1.403067e-002 
-8.464055e-003 
-4.013954e-003 
-2.320518e-003 
-4.168267e-003 
-8.960842e-003 
-1.558696e-002 
-2.391162e-002 
-3.098598e-002 
-3.346082e-002 
-3.329791e-002 
-3.325097e-002 
-3.799873e-002 
-4.696549e-002 
-5.635880e-002 
-6.315640e-002 
-6.688775e-002 
-6.706459e-002 
-6.743171e-002 
-7.082891e-002 
-7.450499e-002 
-7.650209e-002 
-7.478602e-002 
-6.870585e-002 
-5.996736e-002 
-5.200483e-002 
-4.324825e-002 
-3.398862e-002 
-2.353114e-002 
-1.224565e-002 
-2.534801e-003 
3.566452e-003 
8.182834e-003 
1.260581e-002 
1.656692e-002 
2.066843e-002 
2.187985e-002 
1.788491e-002 
1.051613e-002 
3.190138e-003 
-3.433743e-003 
-9.083956e-003 
-1.536198e-002 
-2.440043e-002 
-3.454855e-002 
-4.555207e-002 
-5.576805e-002 
-6.263175e-002 
-6.755720e-002 
-7.354086e-002 
-8.035161e-002 
-8.453853e-002 
-8.426371e-002 
-8.018853e-002 
-7.340041e-002 
-6.578398e-002 
-6.202778e-002 
-6.158382e-002 
-6.253451e-002 
-6.094009e-002 
-5.594437e-002 
-5.343686e-002 
-5.348245e-002 
-5.356865e-002 
-5.721153e-002 
-6.412547e-002 
-6.957896e-002 
-7.294049e-002 
-7.396327e-002 
-7.612632e-002 
-8.177931e-002 
-8.623171e-002 
-8.873132e-002 
-8.855275e-002 
-8.420630e-002 
-7.595155e-002 
-6.624401e-002 
-5.531987e-002 
-4.303684e-002 
-3.128949e-002 
-1.992581e-002 
-9.375106e-003 
-3.815113e-003 
-8.383868e-003 
-2.188389e-002 
-4.169133e-002 
-5.986113e-002 
-7.544053e-002 
-9.084627e-002 
-1.060256e-001 
-1.241673e-001 
-1.471038e-001 
-1.702938e-001 
-1.881280e-001 
-2.004991e-001 
-2.064265e-001 
-2.104221e-001 
-2.156131e-001 
-2.217260e-001 
-2.240839e-001 
-2.168353e-001 
-1.985943e-001 
-1.740882e-001 
-1.467600e-001 
-1.157636e-001 
-8.853973e-002 
-6.894496e-002 
-5.412687e-002 
-4.053070e-002 
-2.759747e-002 
-1.799929e-002 
-1.211977e-002 
-5.914578e-003 
-1.042412e-003 
-3.199843e-003 
-7.425789e-003 
-7.711652e-003 
-3.580127e-003 
1.587849e-003 
2.753426e-003 
1.879010e-003 
3.789420e-004 
-3.848140e-003 
-7.853687e-003 
-6.905940e-003 
-3.149315e-003 
-9.135190e-004 
-1.257929e-003 
-3.193584e-003 
-3.547392e-003 
-2.856937e-003 
-1.582203e-003 
-5.065118e-004 
-1.946922e-003 
-5.233397e-003 
-5.244985e-003 
-2.809484e-003 
-2.228177e-004 
2.560591e-003 
4.143548e-003 
4.150212e-003 
2.850558e-003 
-8.255898e-004 
-4.140664e-003 
-6.844699e-003 
-1.211043e-002 
-1.563122e-002 
-1.793496e-002 
-2.194349e-002 
-2.666240e-002 
-3.255188e-002 
-4.145730e-002 
-4.897909e-002 
-5.291574e-002 
-5.289336e-002 
-5.033368e-002 
-5.169014e-002 
-5.692426e-002 
-6.230682e-002 
-6.582895e-002 
-6.595437e-002 
-6.118255e-002 
-5.349849e-002 
-4.802670e-002 
-4.591056e-002 
-4.738919e-002 
-5.079404e-002 
-5.329458e-002 
-5.371699e-002 
-5.296925e-002 
-5.233617e-002 
-5.473898e-002 
-6.002204e-002 
-6.639954e-002 
-7.694789e-002 
-8.817412e-002 
-9.441181e-002 
-9.546907e-002 
-9.646056e-002 
-1.023976e-001 
-1.128625e-001 
-1.237090e-001 
-1.340962e-001 
-1.425335e-001 
-1.440656e-001 
-1.408791e-001 
-1.390812e-001 
-1.415409e-001 
-1.453748e-001 
-1.455157e-001 
-1.397779e-001 
-1.318866e-001 
-1.243439e-001 
-1.172632e-001 
-1.132137e-001 
-1.092929e-001 
-1.024181e-001 
-9.327871e-002 
-8.227955e-002 
-7.222017e-002 
-6.700102e-002 
-6.368502e-002 
-6.081497e-002 
-5.901897e-002 
-5.610692e-002 
-5.425397e-002 
-5.397033e-002 
-5.333654e-002 
-5.386711e-002 
-5.626945e-002 
-5.934346e-002 
-6.309931e-002 
-6.527439e-002 
-6.493550e-002 
-6.268105e-002 
-5.879647e-002 
-5.586044e-002 
-5.400503e-002 
-5.229575e-002 
-5.027841e-002 
-4.515286e-002 
-3.849437e-002 
-3.340051e-002 
-2.837645e-002 
-2.537771e-002 
-2.339970e-002 
-1.997871e-002 
-1.928056e-002 
-2.063159e-002 
-2.159915e-002 
-2.422208e-002 
-2.474501e-002 
-2.203246e-002 
-2.038868e-002 
-1.882359e-002 
-1.903262e-002 
-2.060459e-002 
-2.004959e-002 
-1.835718e-002 
-1.535192e-002 
-1.051596e-002 
-6.873307e-003 
-5.198891e-003 
-2.201973e-003 
3.295670e-003 
9.367770e-003 
1.191235e-002 
1.101369e-002 
9.898022e-003 
1.082614e-002 
1.149694e-002 
1.114415e-002 
1.206583e-002 
1.311708e-002 
1.333573e-002 
1.248885e-002 
1.232187e-002 
1.413956e-002 
1.562587e-002 
1.328450e-002 
1.075419e-002 
1.146595e-002 
1.631007e-002 
2.257261e-002 
2.534753e-002 
2.637465e-002 
2.604413e-002 
2.383445e-002 
2.148431e-002 
1.973459e-002 
1.698310e-002 
1.398976e-002 
7.070583e-003 
-2.698835e-003 
-1.069911e-002 
-1.816506e-002 
-2.383593e-002 
-2.659660e-002 
-2.850586e-002 
-2.919351e-002 
-2.805822e-002 
-3.122975e-002 
-3.795878e-002 
-4.459537e-002 
-4.943818e-002 
-4.984635e-002 
-4.644869e-002 
-4.318009e-002 
-4.191107e-002 
-4.277019e-002 
-4.539535e-002 
-4.536353e-002 
-4.168838e-002 
-3.939905e-002 
-4.027507e-002 
-4.388990e-002 
-4.990756e-002 
-5.518535e-002 
-5.622434e-002 
-5.364417e-002 
-5.091769e-002 
-5.218175e-002 
-5.705566e-002 
-6.086250e-002 
-6.228158e-002 
-6.287661e-002 
-6.307719e-002 
-6.112175e-002 
-5.897430e-002 
-5.733339e-002 
-5.481136e-002 
-5.035326e-002 
-4.636868e-002 
-4.436422e-002 
-4.451457e-002 
-4.415115e-002 
-4.221099e-002 
-4.102936e-002 
-4.046546e-002 
-4.120892e-002 
-4.269090e-002 
-4.538029e-002 
-4.703708e-002 
-4.777611e-002 
-4.898536e-002 
-5.125589e-002 
-5.496590e-002 
-5.978663e-002 
-6.437977e-002 
-6.822031e-002 
-7.399996e-002 
-7.770602e-002 
-7.767430e-002 
-7.448852e-002 
-6.867518e-002 
-6.409464e-002 
-6.119362e-002 
-5.882117e-002 
-5.861470e-002 
-6.015768e-002 
-5.816562e-002 
-5.479913e-002 
-5.256499e-002 
-5.338476e-002 
-5.641758e-002 
-5.653235e-002 
-5.441842e-002 
-5.367092e-002 
-5.386037e-002 
-5.457346e-002 
-5.557396e-002 
-5.613364e-002 
-5.785921e-002 
-5.870069e-002 
-5.856065e-002 
-6.055184e-002 
-6.377152e-002 
-6.433810e-002 
-6.139277e-002 
-5.655748e-002 
-5.346606e-002 
-5.463030e-002 
-5.819097e-002 
-6.113712e-002 
-6.224166e-002 
-6.063464e-002 
-5.575366e-002 
-5.158631e-002 
-5.019058e-002 
-5.089030e-002 
-5.285285e-002 
-5.354555e-002 
-5.186819e-002 
-4.996092e-002 
-4.869431e-002 
-4.640226e-002 
-4.504905e-002 
-4.534106e-002 
-4.688154e-002 
-4.831287e-002 
-4.834517e-002 
-4.742743e-002 
-4.614211e-002 
-4.403993e-002 
-4.390203e-002 
-4.822182e-002 
-5.404605e-002 
-5.760734e-002 
-5.740155e-002 
-5.509558e-002 
-5.303786e-002 
-5.129761e-002 
-5.197135e-002 
-5.624366e-002 
-5.890588e-002 
-5.854048e-002 
-5.746504e-002 
-5.702863e-002 
-5.605411e-002 
-5.455873e-002 
-5.285437e-002 
-5.120645e-002 
-4.685795e-002 
-4.010381e-002 
-3.465935e-002 
-2.965837e-002 
-2.375542e-002 
-1.545988e-002 
-9.294505e-003 
-4.895215e-003 
1.651506e-003 
9.286241e-003 
1.443447e-002 
1.735981e-002 
1.765002e-002 
1.461413e-002 
9.462061e-003 
4.721073e-004 
-7.273744e-003 
-1.334900e-002 
-2.099791e-002 
-2.909362e-002 
-3.750411e-002 
-4.668348e-002 
-5.410038e-002 
-6.180499e-002 
-7.066016e-002 
-7.824745e-002 
-8.611183e-002 
-9.247793e-002 
-9.599768e-002 
-9.691336e-002 
-9.394260e-002 
-8.791628e-002 
-8.081515e-002 
-7.240285e-002 
-6.433241e-002 
-5.864276e-002 
-5.477534e-002 
-5.057358e-002 
-4.472809e-002 
-3.964450e-002 
-3.651875e-002 
-3.730109e-002 
-4.080227e-002 
-4.401212e-002 
-4.553765e-002 
-4.415929e-002 
-4.047181e-002 
-4.022800e-002 
-4.724442e-002 
-5.930121e-002 
-7.246840e-002 
-8.124825e-002 
-8.440749e-002 
-8.228750e-002 
-7.722205e-002 
-7.113105e-002 
-6.252826e-002 
-4.859797e-002 
-3.097348e-002 
-1.531223e-002 
-5.173174e-003 
9.438638e-004 
4.222686e-003 
2.697133e-003 
-1.689220e-003 
-8.025163e-003 
-2.111396e-002 
-4.350037e-002 
-6.975299e-002 
-9.132991e-002 
-1.049461e-001 
-1.157654e-001 
-1.282632e-001 
-1.427213e-001 
-1.596585e-001 
-1.770406e-001 
-1.895250e-001 
-1.957718e-001 
-1.956070e-001 
-1.896292e-001 
-1.792983e-001 
-1.638283e-001 
-1.445384e-001 
-1.227387e-001 
-9.937398e-002 
-7.698355e-002 
-5.675469e-002 
-3.639361e-002 
-1.684241e-002 
2.208021e-004 
1.170593e-002 
1.701050e-002 
1.970584e-002 
2.209215e-002 
2.537331e-002 
2.922959e-002 
3.178074e-002 
3.300902e-002 
3.375655e-002 
3.338966e-002 
3.345169e-002 
3.472079e-002 
3.522329e-002 
3.258139e-002 
2.908183e-002 
2.737013e-002 
2.879568e-002 
3.019394e-002 
2.688886e-002 
1.960973e-002 
1.328893e-002 
8.483537e-003 
6.501868e-003 
9.508561e-003 
1.365234e-002 
1.543565e-002 
1.419273e-002 
1.116706e-002 
1.141766e-002 
1.600256e-002 
1.995098e-002 
2.206963e-002 
2.244317e-002 
2.003933e-002 
1.602767e-002 
1.437501e-002 
1.615625e-002 
2.109582e-002 
2.558755e-002 
2.640240e-002 
2.313647e-002 
1.785441e-002 
9.091969e-003 
3.979808e-004 
-2.003111e-003 
-6.211756e-004 
-3.545784e-004 
-3.157294e-003 
-1.003408e-002 
-1.832181e-002 
-2.440915e-002 
-2.754905e-002 
-2.380203e-002 
-1.633479e-002 
-1.440444e-002 
-1.939815e-002 
-2.651892e-002 
-3.247091e-002 
-3.438537e-002 
-3.361119e-002 
-3.327715e-002 
-3.457466e-002 
-4.030014e-002 
-4.982417e-002 
-5.821331e-002 
-6.474548e-002 
-6.961023e-002 
-7.378293e-002 
-7.767771e-002 
-8.066807e-002 
-8.295620e-002 
-8.625544e-002 
-8.879668e-002 
-9.059020e-002 
-9.025122e-002 
-8.618654e-002 
-8.151272e-002 
-7.572266e-002 
-7.183527e-002 
-7.056622e-002 
-6.837493e-002 
-6.316503e-002 
-5.573698e-002 
-4.669406e-002 
-4.092977e-002 
-3.870257e-002 
-3.678981e-002 
-3.619873e-002 
-3.452122e-002 
-3.149086e-002 
-2.950493e-002 
-2.753352e-002 
-2.364552e-002 
-1.780181e-002 
-8.358736e-003 
1.339367e-003 
6.151573e-003 
6.077474e-003 
3.411575e-003 
1.743445e-003 
4.458967e-003 
8.630538e-003 
1.159312e-002 
1.282992e-002 
9.947015e-003 
7.027555e-003 
7.278252e-003 
9.506001e-003 
1.263638e-002 
1.561374e-002 
1.820266e-002 
2.244920e-002 
2.648872e-002 
2.970990e-002 
3.402120e-002 
3.515887e-002 
3.608223e-002 
3.969454e-002 
4.660290e-002 
5.570864e-002 
6.366116e-002 
6.914046e-002 
7.361446e-002 
7.628305e-002 
7.754168e-002 
8.171093e-002 
8.461081e-002 
8.735823e-002 
9.114493e-002 
9.605813e-002 
1.003119e-001 
1.009019e-001 
9.815147e-002 
9.537992e-002 
9.401638e-002 
9.480590e-002 
1.014108e-001 
1.096620e-001 
1.138084e-001 
1.096310e-001 
1.010225e-001 
9.501201e-002 
9.214353e-002 
8.983084e-002 
8.648184e-002 
8.031771e-002 
7.002200e-002 
5.864785e-002 
4.866414e-002 
4.297064e-002 
4.068193e-002 
3.625213e-002 
2.873347e-002 
2.259149e-002 
1.859370e-002 
1.591893e-002 
1.459201e-002 
1.279990e-002 
1.327555e-002 
1.660762e-002 
1.988608e-002 
2.591214e-002 
3.520697e-002 
4.079881e-002 
4.398873e-002 
4.610226e-002 
4.673543e-002 
4.794455e-002 
4.645625e-002 
4.153175e-002 
3.745566e-002 
3.306050e-002 
2.720537e-002 
2.375493e-002 
1.909631e-002 
1.164492e-002 
3.945794e-003 
-4.383211e-003 
-1.123132e-002 
-1.559841e-002 
-2.109388e-002 
-2.712462e-002 
-3.010705e-002 
-3.054729e-002 
-2.710019e-002 
-1.964194e-002 
-1.285491e-002 
-7.728887e-003 
-3.758971e-003 
-2.453629e-004 
6.567634e-003 
1.624442e-002 
2.491283e-002 
3.004068e-002 
3.033232e-002 
2.929138e-002 
2.980388e-002 
3.326334e-002 
3.927129e-002 
4.338760e-002 
4.195764e-002 
3.496406e-002 
2.325707e-002 
1.352004e-002 
9.841120e-003 
7.972113e-003 
9.180981e-003 
9.818617e-003 
5.101794e-003 
-2.922768e-003 
-1.115010e-002 
-1.708557e-002 
-1.686797e-002 
-1.398872e-002 
-1.279264e-002 
-1.101172e-002 
-1.157512e-002 
-1.334856e-002 
-1.202217e-002 
-5.500961e-003 
5.275970e-003 
1.603862e-002 
2.097962e-002 
2.097472e-002 
2.073808e-002 
2.156631e-002 
2.403409e-002 
2.828065e-002 
3.359740e-002 
3.664952e-002 
3.719155e-002 
3.859782e-002 
4.371610e-002 
5.044909e-002 
5.577794e-002 
5.612469e-002 
5.173309e-002 
4.373318e-002 
3.366284e-002 
2.640510e-002 
2.212395e-002 
1.877353e-002 
1.616654e-002 
1.444636e-002 
1.181348e-002 
7.697056e-003 
7.199669e-004 
-6.406725e-003 
-1.118147e-002 
-1.471654e-002 
-1.634161e-002 
-1.754788e-002 
-1.932568e-002 
-2.253309e-002 
-2.736890e-002 
-2.867485e-002 
-2.391746e-002 
-1.677962e-002 
-1.006505e-002 
-6.390336e-003 
-6.797437e-003 
-7.010981e-003 
-7.046100e-003 
-5.131169e-003 
2.266606e-003 
9.560710e-003 
1.531256e-002 
2.065619e-002 
2.391780e-002 
2.705083e-002 
3.127338e-002 
3.399347e-002 
3.741892e-002 
4.210000e-002 
4.390342e-002 
4.332560e-002 
4.092373e-002 
3.856250e-002 
3.905273e-002 
4.186475e-002 
4.482381e-002 
4.700916e-002 
4.636065e-002 
4.251783e-002 
3.977701e-002 
4.203334e-002 
4.979823e-002 
5.905049e-002 
6.486556e-002 
6.463051e-002 
5.996995e-002 
5.615743e-002 
5.501849e-002 
5.583611e-002 
5.717559e-002 
5.529500e-002 
4.982321e-002 
4.177120e-002 
3.335840e-002 
2.807131e-002 
2.612747e-002 
2.338820e-002 
1.893181e-002 
1.320189e-002 
5.821563e-003 
-6.965227e-004 
-6.014786e-003 
-8.533240e-003 
-6.710724e-003 
-9.123324e-004 
4.740908e-003 
8.651817e-003 
9.970951e-003 
9.275561e-003 
9.515317e-003 
1.106799e-002 
1.429649e-002 
1.718965e-002 
1.672849e-002 
1.264310e-002 
8.512202e-003 
7.332534e-003 
1.030146e-002 
1.406367e-002 
1.726841e-002 
1.798491e-002 
1.620267e-002 
1.599168e-002 
1.686155e-002 
1.653105e-002 
1.602940e-002 
1.598566e-002 
2.145326e-002 
3.637382e-002 
5.731275e-002 
8.329522e-002 
1.062342e-001 
1.170336e-001 
1.197474e-001 
1.216485e-001 
1.243184e-001 
1.271797e-001 
1.244600e-001 
1.121609e-001 
9.218186e-002 
6.465048e-002 
3.616962e-002 
1.522288e-002 
-7.786162e-004 
-1.706215e-002 
-3.340587e-002 
-5.174523e-002 
-7.211912e-002 
-9.156336e-002 
-1.087412e-001 
-1.209561e-001 
-1.254603e-001 
-1.207263e-001 
-1.058889e-001 
-8.418700e-002 
-6.080158e-002 
-3.801483e-002 
-1.598869e-002 
6.702022e-003 
2.921769e-002 
5.206876e-002 
7.255225e-002 
8.425488e-002 
8.779764e-002 
8.789851e-002 
8.764974e-002 
8.930441e-002 
9.101574e-002 
9.059193e-002 
8.942905e-002 
8.717951e-002 
8.394052e-002 
8.168885e-002 
8.106015e-002 
8.035625e-002 
7.727561e-002 
7.352166e-002 
7.168537e-002 
7.244270e-002 
7.507176e-002 
7.725974e-002 
7.893010e-002 
8.170802e-002 
8.301370e-002 
8.412322e-002 
8.611178e-002 
8.873608e-002 
9.214223e-002 
9.524136e-002 
9.785678e-002 
1.014069e-001 
1.029811e-001 
1.018589e-001 
1.017257e-001 
1.028903e-001 
1.078895e-001 
1.120198e-001 
1.137282e-001 
1.144767e-001 
1.123715e-001 
1.074293e-001 
1.051288e-001 
1.046125e-001 
1.049373e-001 
1.043943e-001 
9.914896e-002 
9.327611e-002 
8.816315e-002 
8.233799e-002 
7.835379e-002 
7.488306e-002 
6.928591e-002 
6.394032e-002 
5.779464e-002 
5.143928e-002 
4.668318e-002 
4.328612e-002 
4.200580e-002 
4.278650e-002 
4.178588e-002 
4.084378e-002 
4.087453e-002 
4.096866e-002 
4.266302e-002 
4.598895e-002 
5.025577e-002 
5.420993e-002 
5.577898e-002 
5.470452e-002 
5.320416e-002 
5.217201e-002 
5.124990e-002 
4.997879e-002 
4.843453e-002 
4.612622e-002 
4.368168e-002 
4.245579e-002 
4.001388e-002 
3.652115e-002 
3.283111e-002 
2.603508e-002 
2.076496e-002 
2.031605e-002 
2.142978e-002 
2.268138e-002 
2.125895e-002 
1.688487e-002 
1.396523e-002 
1.310060e-002 
1.451858e-002 
2.087547e-002 
2.613338e-002 
2.719633e-002 
2.559487e-002 
2.373492e-002 
2.474627e-002 
2.721581e-002 
3.098332e-002 
3.640621e-002 
4.107600e-002 
4.396713e-002 
4.649697e-002 
4.774712e-002 
4.816769e-002 
4.768955e-002 
4.695838e-002 
4.824508e-002 
4.971219e-002 
4.972846e-002 
4.845548e-002 
4.552887e-002 
4.227853e-002 
4.078888e-002 
4.129691e-002 
4.141297e-002 
4.001767e-002 
3.642522e-002 
3.230892e-002 
3.041277e-002 
3.199008e-002 
3.579242e-002 
3.982703e-002 
4.239044e-002 
4.470207e-002 
4.943422e-002 
5.686880e-002 
6.520515e-002 
7.054855e-002 
7.152589e-002 
7.088841e-002 
7.142459e-002 
7.332013e-002 
7.728605e-002 
8.125159e-002 
8.271082e-002 
7.986764e-002 
7.378481e-002 
6.983474e-002 
6.956946e-002 
6.923248e-002 
6.663689e-002 
6.314381e-002 
5.806145e-002 
5.266825e-002 
4.668945e-002 
4.049845e-002 
3.643261e-002 
3.346172e-002 
3.076998e-002 
3.041219e-002 
3.145589e-002 
3.159551e-002 
3.184123e-002 
3.077384e-002 
3.179404e-002 
3.692594e-002 
4.328246e-002 
4.933008e-002 
5.502323e-002 
5.896129e-002 
6.375820e-002 
6.965467e-002 
7.407572e-002 
7.883851e-002 
8.236567e-002 
8.496386e-002 
8.852144e-002 
9.310392e-002 
9.690099e-002 
9.674995e-002 
9.128750e-002 
8.418992e-002 
7.998273e-002 
7.949908e-002 
8.067749e-002 
8.103271e-002 
7.906814e-002 
7.244407e-002 
6.353193e-002 
5.709367e-002 
5.296017e-002 
5.100410e-002 
4.800594e-002 
4.311020e-002 
3.853639e-002 
3.346511e-002 
2.865778e-002 
2.421584e-002 
1.991092e-002 
1.643266e-002 
1.663743e-002 
1.952561e-002 
2.360953e-002 
2.608824e-002 
2.731217e-002 
2.737605e-002 
2.672266e-002 
2.912800e-002 
3.422221e-002 
4.166801e-002 
4.696800e-002 
4.813112e-002 
4.761844e-002 
4.720459e-002 
4.453595e-002 
4.082504e-002 
3.607767e-002 
3.199554e-002 
2.955057e-002 
2.579199e-002 
2.161216e-002 
1.672819e-002 
1.121712e-002 
5.800235e-003 
1.271782e-003 
-5.221078e-004 
6.861885e-004 
1.906448e-003 
1.720906e-003 
6.261170e-004 
1.904179e-004 
1.085276e-003 
3.026928e-004 
-1.850342e-003 
-3.315504e-003 
-4.199874e-003 
-4.003513e-003 
-4.768633e-003 
-6.642047e-003 
-9.153325e-003 
-1.461848e-002 
-2.181362e-002 
-2.531029e-002 
-2.547635e-002 
-2.511027e-002 
-2.665998e-002 
-3.180054e-002 
-3.573461e-002 
-3.849030e-002 
-4.184722e-002 
-4.193180e-002 
-3.876419e-002 
-3.657446e-002 
-3.707603e-002 
-3.737892e-002 
-3.540709e-002 
-3.169639e-002 
-3.177681e-002 
-3.373139e-002 
-3.393142e-002 
-3.343378e-002 
-3.275065e-002 
-3.228884e-002 
-3.165049e-002 
-3.316620e-002 
-3.600087e-002 
-3.608660e-002 
-3.210766e-002 
-2.920907e-002 
-2.861051e-002 
-3.221957e-002 
-4.000581e-002 
-4.824907e-002 
-5.498334e-002 
-5.709311e-002 
-5.705228e-002 
-6.093879e-002 
-6.843619e-002 
-7.484917e-002 
-8.015268e-002 
-8.399656e-002 
-8.505977e-002 
-8.550659e-002 
-8.659596e-002 
-8.989236e-002 
-9.586674e-002 
-1.000170e-001 
-1.000989e-001 
-9.879455e-002 
-9.660562e-002 
-9.131257e-002 
-8.640663e-002 
-8.243574e-002 
-7.991543e-002 
-7.870613e-002 
-7.596726e-002 
-7.139506e-002 
-6.653858e-002 
-6.180763e-002 
-5.745396e-002 
-5.693442e-002 
-5.514017e-002 
-4.951474e-002 
-4.095041e-002 
-3.163858e-002 
-2.256881e-002 
-1.597712e-002 
-1.332561e-002 
-1.241773e-002 
-1.159081e-002 
-7.432454e-003 
-2.848708e-003 
-4.809485e-004 
9.040497e-004 
3.528657e-003 
4.747023e-003 
4.660545e-003 
4.579636e-003 
3.587412e-003 
2.674312e-003 
2.224881e-003 
2.642235e-003 
5.453214e-003 
8.228591e-003 
7.328296e-003 
5.943275e-003 
5.359793e-003 
6.955688e-003 
1.121732e-002 
1.566452e-002 
1.998426e-002 
2.540473e-002 
2.849372e-002 
3.039394e-002 
3.315075e-002 
3.577702e-002 
3.886083e-002 
4.180323e-002 
4.548908e-002 
5.023270e-002 
5.463092e-002 
5.639926e-002 
5.642474e-002 
5.464167e-002 
5.382078e-002 
5.425173e-002 
5.383633e-002 
5.083982e-002 
4.409131e-002 
3.788297e-002 
3.613979e-002 
3.953949e-002 
4.858738e-002 
6.423621e-002 
8.567448e-002 
1.097067e-001 
1.309237e-001 
1.488449e-001 
1.641236e-001 
1.731875e-001 
1.741843e-001 
1.673668e-001 
1.576962e-001 
1.476988e-001 
1.330193e-001 
1.144879e-001 
9.554061e-002 
7.594186e-002 
5.608424e-002 
3.495280e-002 
1.000597e-002 
-1.640292e-002 
-4.460784e-002 
-7.268175e-002 
-9.346248e-002 
-1.066586e-001 
-1.123633e-001 
-1.108186e-001 
-1.039792e-001 
-8.909011e-002 
-6.399898e-002 
-3.247325e-002 
1.233509e-003 
3.136490e-002 
5.186029e-002 
6.492977e-002 
7.465365e-002 
8.454058e-002 
9.627798e-002 
1.070514e-001 
1.143975e-001 
1.198092e-001 
1.225893e-001 
1.226618e-001 
1.233695e-001 
1.234044e-001 
1.206265e-001 
1.155557e-001 
1.081408e-001 
1.004258e-001 
9.327037e-002 
8.440920e-002 
7.579214e-002 
6.928156e-002 
6.207261e-002 
5.673322e-002 
5.329384e-002 
4.901441e-002 
4.493577e-002 
4.188361e-002 
4.021753e-002 
4.082767e-002 
4.108128e-002 
3.932635e-002 
3.721226e-002 
3.399498e-002 
3.339418e-002 
3.732636e-002 
4.314631e-002 
4.658689e-002 
4.723256e-002 
4.526577e-002 
4.266997e-002 
4.180096e-002 
4.376841e-002 
4.824398e-002 
5.148950e-002 
5.248631e-002 
5.336927e-002 
5.562317e-002 
5.771398e-002 
5.917275e-002 
6.108840e-002 
6.306406e-002 
6.347293e-002 
6.261516e-002 
6.190114e-002 
6.128630e-002 
5.922480e-002 
5.459112e-002 
5.044091e-002 
4.782736e-002 
4.442029e-002 
3.931246e-002 
3.394397e-002 
2.823445e-002 
2.407203e-002 
1.965447e-002 
1.422223e-002 
9.820595e-003 
3.783262e-003 
-2.798048e-003 
-6.851539e-003 
-8.206010e-003 
-8.145678e-003 
-7.659463e-003 
-1.114720e-002 
-1.388688e-002 
-1.466617e-002 
-1.441279e-002 
-1.208786e-002 
-8.652556e-003 
-6.597023e-003 
-6.250522e-003 
-6.431938e-003 
-5.792297e-003 
-2.248822e-003 
1.085964e-003 
3.065222e-003 
5.106903e-003 
8.445209e-003 
1.118253e-002 
1.377675e-002 
1.732278e-002 
2.101561e-002 
2.393732e-002 
2.568097e-002 
2.650314e-002 
2.843432e-002 
2.959060e-002 
2.932115e-002 
3.188636e-002 
3.847840e-002 
4.659698e-002 
5.473123e-002 
5.994316e-002 
6.233666e-002 
6.413500e-002 
6.566495e-002 
6.943299e-002 
7.468158e-002 
7.887471e-002 
8.039605e-002 
8.033501e-002 
7.982900e-002 
8.085050e-002 
8.328924e-002 
8.565898e-002 
8.650360e-002 
8.583986e-002 
8.595156e-002 
8.630694e-002 
8.735965e-002 
8.852245e-002 
8.837470e-002 
8.816933e-002 
8.793727e-002 
8.850706e-002 
9.208911e-002 
9.615824e-002 
9.783341e-002 
9.766279e-002 
9.681458e-002 
9.555968e-002 
9.427635e-002 
9.365789e-002 
9.550092e-002 
9.809324e-002 
9.846232e-002 
9.762188e-002 
9.672130e-002 
9.494583e-002 
9.196177e-002 
9.146431e-002 
9.514170e-002 
1.009678e-001 
1.052177e-001 
1.061719e-001 
1.056057e-001 
1.054024e-001 
1.065866e-001 
1.091865e-001 
1.128908e-001 
1.145262e-001 
1.134449e-001 
1.102433e-001 
1.062902e-001 
1.044529e-001 
1.058326e-001 
1.053758e-001 
1.011837e-001 
9.657117e-002 
9.321499e-002 
9.085236e-002 
8.721171e-002 
8.194887e-002 
7.740491e-002 
7.334831e-002 
6.714516e-002 
6.302210e-002 
6.276285e-002 
6.370694e-002 
6.077200e-002 
5.520824e-002 
5.155838e-002 
5.094992e-002 
5.103312e-002 
5.050245e-002 
4.988619e-002 
4.808624e-002 
4.604571e-002 
4.395768e-002 
4.356706e-002 
4.369461e-002 
4.237859e-002 
3.978325e-002 
3.791416e-002 
3.537048e-002 
3.293138e-002 
3.178702e-002 
3.016160e-002 
2.872391e-002 
2.808204e-002 
2.888801e-002 
3.077734e-002 
3.098480e-002 
2.682873e-002 
2.185428e-002 
1.809379e-002 
1.741349e-002 
1.715386e-002 
1.575747e-002 
1.331070e-002 
9.333771e-003 
4.128748e-003 
-1.092295e-003 
-3.305886e-003 
-2.844917e-003 
-1.938772e-003 
-3.455712e-003 
-4.666763e-003 
-5.505773e-003 
-4.970114e-003 
-4.598980e-003 
-3.743217e-003 
4.139533e-004 
6.603006e-003 
1.279388e-002 
1.695704e-002 
1.984543e-002 
2.229981e-002 
2.429744e-002 
2.583376e-002 
2.998599e-002 
3.435017e-002 
3.600166e-002 
3.392510e-002 
3.098644e-002 
3.065465e-002 
3.056886e-002 
2.686554e-002 
2.154892e-002 
1.491120e-002 
7.558941e-003 
3.185635e-003 
1.268959e-003 
8.220653e-004 
-1.909177e-003 
-1.049370e-002 
-2.139130e-002 
-2.774978e-002 
-3.078884e-002 
-3.003051e-002 
-2.916868e-002 
-3.181705e-002 
-3.637433e-002 
-4.181196e-002 
-4.491247e-002 
-4.191075e-002 
-3.634489e-002 
-3.350935e-002 
-3.180584e-002 
-3.267061e-002 
-3.383832e-002 
-3.323262e-002 
-3.173534e-002 
-2.906554e-002 
-2.630485e-002 
-2.484210e-002 
-2.278991e-002 
-2.040649e-002 
-2.104750e-002 
-2.174800e-002 
-2.053447e-002 
-1.863893e-002 
-1.682578e-002 
-1.479896e-002 
-1.193758e-002 
-1.036722e-002 
-1.059230e-002 
-8.374745e-003 
1.603456e-004 
1.203775e-002 
2.257342e-002 
2.970938e-002 
3.455275e-002 
3.655221e-002 
3.472501e-002 
3.338620e-002 
3.275323e-002 
2.977575e-002 
2.362528e-002 
1.393004e-002 
1.933359e-003 
-1.008179e-002 
-2.175817e-002 
-3.108284e-002 
-3.913656e-002 
-4.962900e-002 
-6.014959e-002 
-6.824789e-002 
-7.666426e-002 
-8.456358e-002 
-8.852171e-002 
-8.703446e-002 
-8.254273e-002 
-7.893381e-002 
-7.431365e-002 
-6.531695e-002 
-5.345510e-002 
-4.195825e-002 
-2.893629e-002 
-1.532692e-002 
-6.094025e-003 
-2.588642e-003 
-1.307470e-003 
2.340764e-003 
8.619035e-003 
1.441300e-002 
1.802667e-002 
2.054850e-002 
2.131259e-002 
2.276753e-002 
2.739997e-002 
3.341051e-002 
3.835478e-002 
3.929756e-002 
3.811404e-002 
4.011899e-002 
4.713440e-002 
5.885035e-002 
7.623126e-002 
9.673225e-002 
1.171025e-001 
1.342717e-001 
1.477133e-001 
1.590932e-001 
1.633232e-001 
1.534296e-001 
1.315992e-001 
1.040573e-001 
7.689115e-002 
5.143682e-002 
2.807340e-002 
9.023955e-003 
-9.598571e-003 
-3.226734e-002 
-5.805717e-002 
-8.505950e-002 
-1.101196e-001 
-1.308267e-001 
-1.512346e-001 
-1.696563e-001 
-1.832508e-001 
-1.901262e-001 
-1.882837e-001 
-1.799315e-001 
-1.650291e-001 
-1.410285e-001 
-1.136397e-001 
-8.908471e-002 
-6.701649e-002 
-4.967627e-002 
-3.756799e-002 
-3.217377e-002 
-3.173459e-002 
-3.195178e-002 
-3.259511e-002 
-3.381772e-002 
-3.153078e-002 
-2.685687e-002 
-2.376817e-002 
-2.290045e-002 
-2.636670e-002 
-3.185317e-002 
-3.754128e-002 
-4.184215e-002 
-4.328357e-002 
-4.269553e-002 
-4.345467e-002 
-4.538957e-002 
-4.854571e-002 
-5.204737e-002 
-5.360853e-002 
-5.401914e-002 
-5.270909e-002 
-5.172111e-002 
-5.075662e-002 
-4.837870e-002 
-4.487735e-002 
-4.314873e-002 
-4.357842e-002 
-4.729828e-002 
-5.174184e-002 
-5.412612e-002 
-5.746108e-002 
-5.953193e-002 
-6.040090e-002 
-6.150678e-002 
-6.263850e-002 
-6.199254e-002 
-5.964911e-002 
-5.618912e-002 
-5.554742e-002 
-5.840205e-002 
-5.972690e-002 
-5.850098e-002 
-5.317322e-002 
-4.531204e-002 
-3.896159e-002 
-3.967436e-002 
-4.940831e-002 
-6.254780e-002 
-7.223761e-002 
-7.705253e-002 
-8.100901e-002 
-8.569369e-002 
-9.439450e-002 
-1.100986e-001 
-1.331951e-001 
-1.572654e-001 
-1.749857e-001 
-1.868008e-001 
-1.977620e-001 
-2.104795e-001 
-2.237570e-001 
-2.397997e-001 
-2.582571e-001 
-2.750687e-001 
-2.832579e-001 
-2.815100e-001 
-2.754430e-001 
-2.700606e-001 
-2.653624e-001 
-2.628363e-001 
-2.607963e-001 
-2.556890e-001 
-2.452832e-001 
-2.303020e-001 
-2.162433e-001 
-2.069831e-001 
-1.990347e-001 
-1.886234e-001 
-1.769809e-001 
-1.641767e-001 
-1.528022e-001 
-1.432172e-001 
-1.361277e-001 
-1.302498e-001 
-1.254813e-001 
-1.196253e-001 
-1.131535e-001 
-1.093270e-001 
-1.091446e-001 
-1.093639e-001 
-1.083134e-001 
-1.059393e-001 
-1.036817e-001 
-1.044137e-001 
-1.046867e-001 
-1.034355e-001 
-1.039296e-001 
-1.067393e-001 
-1.090112e-001 
-1.107347e-001 
-1.106708e-001 
-1.092888e-001 
-1.056039e-001 
-1.005898e-001 
-9.712394e-002 
-9.618944e-002 
-9.462046e-002 
-8.987454e-002 
-8.306617e-002 
-7.740296e-002 
-7.493021e-002 
-7.459306e-002 
-7.518793e-002 
-7.275937e-002 
-6.670400e-002 
-5.959158e-002 
-5.514853e-002 
-5.583404e-002 
-5.949402e-002 
-6.058912e-002 
-5.706827e-002 
-5.183614e-002 
-4.964928e-002 
-5.045006e-002 
-5.191103e-002 
-5.422544e-002 
-5.358573e-002 
-4.715461e-002 
-3.902213e-002 
-3.395465e-002 
-3.359081e-002 
-3.610535e-002 
-3.528857e-002 
-3.404798e-002 
-3.485365e-002 
-3.377205e-002 
-3.227097e-002 
-3.087276e-002 
-2.748792e-002 
-2.491248e-002 
-2.486622e-002 
-2.608807e-002 
-2.989858e-002 
-3.182620e-002 
-3.172352e-002 
-3.073787e-002 
-3.014458e-002 
-3.382877e-002 
-4.159868e-002 
-4.858720e-002 
-5.111892e-002 
-4.973096e-002 
-4.795507e-002 
-4.976403e-002 
-5.400423e-002 
-6.125601e-002 
-6.798509e-002 
-7.209309e-002 
-7.371502e-002 
-7.328266e-002 
-7.399864e-002 
-7.829847e-002 
-8.335895e-002 
-8.639542e-002 
-8.710514e-002 
-8.491999e-002 
-8.295708e-002 
-7.997606e-002 
-7.515110e-002 
-7.189674e-002 
-7.188538e-002 
-7.366885e-002 
-7.626784e-002 
-7.814405e-002 
-7.959647e-002 
-8.137675e-002 
-8.234812e-002 
-8.329772e-002 
-8.509340e-002 
-8.658066e-002 
-8.694646e-002 
-8.438713e-002 
-8.111996e-002 
-8.009456e-002 
-8.106267e-002 
-8.209072e-002 
-8.183932e-002 
-7.985267e-002 
-7.859899e-002 
-7.864390e-002 
-7.752125e-002 
-7.705609e-002 
-7.621236e-002 
-7.508606e-002 
-7.338709e-002 
-7.257292e-002 
-7.371509e-002 
-7.631485e-002 
-7.910355e-002 
-8.074718e-002 
-7.996364e-002 
-7.784572e-002 
-7.883036e-002 
-8.047755e-002 
-8.163935e-002 
-8.023525e-002 
-7.694948e-002 
-7.547277e-002 
-7.444662e-002 
-7.150831e-002 
-7.145426e-002 
-7.413519e-002 
-7.193568e-002 
-6.765321e-002 
-6.253854e-002 
-5.994689e-002 
-6.246541e-002 
-6.605398e-002 
-6.880900e-002 
-7.308101e-002 
-7.364788e-002 
-7.289670e-002 
-7.542244e-002 
-7.743166e-002 
-8.127323e-002 
-8.566826e-002 
-8.634600e-002 
-8.568570e-002 
-8.565622e-002 
-8.739273e-002 
-9.354125e-002 
-9.645993e-002 
-9.253718e-002 
-8.421384e-002 
-7.087582e-002 
-5.638169e-002 
-4.469310e-002 
-3.537133e-002 
-3.022749e-002 
-2.609336e-002 
-2.003057e-002 
-1.375042e-002 
-9.464110e-003 
-8.059283e-003 
-8.508712e-003 
-7.173800e-003 
-7.091447e-003 
-1.241604e-002 
-1.963551e-002 
-2.750865e-002 
-3.457973e-002 
-4.207746e-002 
-4.918268e-002 
-5.673009e-002 
-6.707068e-002 
-8.289413e-002 
-9.733561e-002 
-1.030887e-001 
-1.008296e-001 
-9.476371e-002 
-8.989069e-002 
-8.697096e-002 
-8.712324e-002 
-8.917061e-002 
-9.082596e-002 
-8.927372e-002 
-8.712691e-002 
-8.737097e-002 
-8.969048e-002 
-9.107604e-002 
-9.012006e-002 
-8.959220e-002 
-9.037437e-002 
-9.125666e-002 
-9.282447e-002 
-9.583830e-002 
-9.814893e-002 
-9.606188e-002 
-8.966232e-002 
-8.124468e-002 
-6.959482e-002 
-4.951672e-002 
-2.211871e-002 
4.111186e-003 
2.185642e-002 
3.165317e-002 
3.874024e-002 
4.278898e-002 
4.224875e-002 
3.789147e-002 
2.691154e-002 
7.105364e-003 
-2.146956e-002 
-5.233668e-002 
-7.459924e-002 
-8.849676e-002 
-1.040519e-001 
-1.258671e-001 
-1.526345e-001 
-1.799959e-001 
-2.016211e-001 
-2.169023e-001 
-2.239931e-001 
-2.217876e-001 
-2.155797e-001 
-2.056238e-001 
-1.876304e-001 
-1.612676e-001 
-1.299796e-001 
-9.664774e-002 
-6.741772e-002 
-4.202287e-002 
-1.948897e-002 
-2.258155e-003 
1.336780e-002 
2.563877e-002 
3.176130e-002 
3.515476e-002 
3.824691e-002 
3.990466e-002 
4.268628e-002 
4.446597e-002 
4.641780e-002 
4.939698e-002 
5.039354e-002 
5.136681e-002 
5.111965e-002 
4.833597e-002 
4.731160e-002 
5.033838e-002 
5.733013e-002 
6.463954e-002 
6.708517e-002 
6.561149e-002 
6.229875e-002 
5.673089e-002 
5.275886e-002 
5.181153e-002 
4.966259e-002 
4.398580e-002 
3.480238e-002 
2.527859e-002 
1.975240e-002 
1.867384e-002 
1.732431e-002 
1.629759e-002 
1.454208e-002 
1.114010e-002 
1.052375e-002 
1.314983e-002 
1.721531e-002 
2.330105e-002 
2.928729e-002 
3.398933e-002 
3.889938e-002 
4.043521e-002 
3.924416e-002 
3.767741e-002 
3.505316e-002 
3.201146e-002 
2.910881e-002 
2.378935e-002 
1.206856e-002 
-6.857815e-003 
-2.854647e-002 
-4.565137e-002 
-5.545368e-002 
-6.081098e-002 
-6.647301e-002 
-7.414568e-002 
-8.565316e-002 
-9.725163e-002 
-1.036421e-001 
-1.016494e-001 
-9.301676e-002 
-8.346580e-002 
-7.689779e-002 
-7.392777e-002 
-7.220701e-002 
-7.007420e-002 
-6.731894e-002 
-6.410155e-002 
-5.822234e-002 
-5.113417e-002 
-4.379860e-002 
-3.730789e-002 
-3.266085e-002 
-2.719310e-002 
-2.165834e-002 
-1.721299e-002 
-1.206817e-002 
-7.795209e-003 
-5.264712e-003 
-4.075545e-003 
-4.390779e-003 
-2.198152e-003 
4.748849e-003 
1.102097e-002 
1.457723e-002 
1.400988e-002 
1.113589e-002 
1.067762e-002 
1.168852e-002 
1.304748e-002 
1.368753e-002 
1.117082e-002 
5.054614e-003 
-2.030783e-004 
-2.438123e-003 
1.212998e-004 
5.952564e-003 
1.075756e-002 
1.245854e-002 
1.264522e-002 
1.424694e-002 
1.808528e-002 
2.310522e-002 
2.627105e-002 
2.846757e-002 
3.147521e-002 
3.451369e-002 
3.663100e-002 
4.001109e-002 
4.351008e-002 
4.655557e-002 
5.054190e-002 
5.494076e-002 
6.027718e-002 
6.568951e-002 
6.768844e-002 
6.869015e-002 
7.084770e-002 
7.247101e-002 
7.404696e-002 
7.429678e-002 
7.337886e-002 
7.313107e-002 
7.384452e-002 
7.558986e-002 
7.977271e-002 
8.207035e-002 
8.088893e-002 
7.622882e-002 
7.134049e-002 
6.907422e-002 
6.756790e-002 
6.457475e-002 
6.204564e-002 
6.047531e-002 
5.916625e-002 
5.931965e-002 
6.080699e-002 
6.438031e-002 
6.937262e-002 
7.321239e-002 
7.427960e-002 
7.627394e-002 
7.845122e-002 
7.917088e-002 
7.857967e-002 
7.782981e-002 
7.803523e-002 
7.996555e-002 
7.923540e-002 
7.626570e-002 
7.498043e-002 
7.456648e-002 
7.452292e-002 
7.306996e-002 
6.847533e-002 
6.073246e-002 
5.120486e-002 
4.281397e-002 
3.888150e-002 
3.973138e-002 
4.231073e-002 
4.172456e-002 
3.548930e-002 
2.850996e-002 
2.412108e-002 
2.450870e-002 
2.820097e-002 
3.145393e-002 
3.322743e-002 
3.294005e-002 
3.101101e-002 
3.033950e-002 
3.374700e-002 
3.924530e-002 
4.661022e-002 
5.358375e-002 
5.847733e-002 
6.007706e-002 
5.906880e-002 
5.498233e-002 
5.088996e-002 
5.022868e-002 
5.176582e-002 
5.453776e-002 
5.514397e-002 
5.009130e-002 
4.291725e-002 
3.691019e-002 
3.219208e-002 
3.150757e-002 
3.088330e-002 
2.718724e-002 
2.204936e-002 
1.477148e-002 
9.069595e-003 
9.827788e-003 
1.404169e-002 
1.799283e-002 
2.009952e-002 
1.874132e-002 
1.867744e-002 
2.151782e-002 
2.319417e-002 
2.485959e-002 
2.666353e-002 
2.713335e-002 
2.901788e-002 
3.282242e-002 
3.552629e-002 
3.839604e-002 
3.912002e-002 
3.778711e-002 
3.760306e-002 
3.635161e-002 
3.335698e-002 
2.986935e-002 
2.389207e-002 
1.760797e-002 
1.532532e-002 
1.537193e-002 
1.521477e-002 
9.608277e-003 
-9.469963e-004 
-1.032346e-002 
-1.574386e-002 
-1.750325e-002 
-1.622072e-002 
-1.442191e-002 
-1.507753e-002 
-1.791690e-002 
-2.079939e-002 
-1.908806e-002 
-1.284773e-002 
-6.402547e-003 
-3.919362e-003 
-3.254479e-003 
-1.724291e-003 
1.946475e-003 
7.790009e-003 
1.116777e-002 
1.280764e-002 
1.462325e-002 
1.637627e-002 
1.996232e-002 
2.812964e-002 
3.566136e-002 
3.982984e-002 
3.882116e-002 
3.616416e-002 
3.924783e-002 
4.586895e-002 
5.240928e-002 
6.024175e-002 
6.924762e-002 
7.701649e-002 
8.518079e-002 
9.388177e-002 
1.028809e-001 
1.087852e-001 
1.111256e-001 
1.123548e-001 
1.166018e-001 
1.218073e-001 
1.241390e-001 
1.238561e-001 
1.200942e-001 
1.116592e-001 
1.030047e-001 
9.767311e-002 
9.407387e-002 
9.240305e-002 
8.899849e-002 
8.163979e-002 
7.339902e-002 
6.516474e-002 
5.675313e-002 
5.197371e-002 
4.887862e-002 
4.722166e-002 
4.721817e-002 
4.460717e-002 
3.829321e-002 
3.233920e-002 
2.646618e-002 
2.165704e-002 
2.096512e-002 
2.163386e-002 
2.228479e-002 
2.003950e-002 
1.375876e-002 
5.851310e-003 
4.419764e-005 
-4.089789e-003 
-6.064103e-003 
-8.219069e-003 
-1.325608e-002 
-1.937893e-002 
-2.687924e-002 
-3.760105e-002 
-4.790242e-002 
-5.124989e-002 
-4.665828e-002 
-3.583950e-002 
-2.176370e-002 
-3.206999e-003 
1.697058e-002 
3.132338e-002 
4.157430e-002 
5.559311e-002 
7.195280e-002 
8.121778e-002 
7.640879e-002 
6.211598e-002 
4.510415e-002 
2.500641e-002 
5.008809e-003 
-8.972195e-003 
-1.781457e-002 
-3.035003e-002 
-5.306641e-002 
-8.126941e-002 
-1.048260e-001 
-1.237517e-001 
-1.401535e-001 
-1.531472e-001 
-1.614261e-001 
-1.639286e-001 
-1.615168e-001 
-1.523512e-001 
-1.304927e-001 
-9.890409e-002 
-6.618778e-002 
-3.457739e-002 
-7.788142e-003 
1.217978e-002 
2.686372e-002 
3.608865e-002 
4.391344e-002 
5.351836e-002 
5.874833e-002 
5.994112e-002 
5.987034e-002 
5.655917e-002 
5.232246e-002 
5.022613e-002 
4.897924e-002 
5.062337e-002 
4.973839e-002 
4.386426e-002 
3.832344e-002 
3.495232e-002 
3.387252e-002 
3.546211e-002 
3.885907e-002 
4.293933e-002 
4.638693e-002 
4.540432e-002 
4.385650e-002 
4.295488e-002 
4.173901e-002 
4.041844e-002 
4.165550e-002 
4.630967e-002 
5.052804e-002 
5.030648e-002 
4.591340e-002 
4.108124e-002 
3.636650e-002 
3.369370e-002 
3.400832e-002 
3.632142e-002 
3.560825e-002 
3.038726e-002 
2.491054e-002 
2.218588e-002 
2.207052e-002 
2.329498e-002 
2.529421e-002 
2.504874e-002 
2.291691e-002 
2.047619e-002 
2.038084e-002 
2.180971e-002 
2.190884e-002 
2.013790e-002 
1.986046e-002 
2.021676e-002 
2.124491e-002 
2.427983e-002 
2.626282e-002 
2.622353e-002 
2.575266e-002 
2.715532e-002 
3.189455e-002 
3.730381e-002 
3.827170e-002 
3.609775e-002 
3.094045e-002 
2.531199e-002 
2.157116e-002 
1.810570e-002 
1.212400e-002 
1.514601e-003 
-1.302160e-002 
-2.800622e-002 
-4.067257e-002 
-4.961699e-002 
-5.661259e-002 
-6.511776e-002 
-7.367272e-002 
-8.191174e-002 
-8.845121e-002 
-9.077603e-002 
-9.090455e-002 
-8.767052e-002 
-8.032070e-002 
-7.053201e-002 
-5.741751e-002 
-4.218653e-002 
-2.960039e-002 
-1.781079e-002 
-4.849316e-003 
1.047957e-002 
2.848887e-002 
4.431365e-002 
5.282894e-002 
5.275956e-002 
4.830045e-002 
4.541955e-002 
5.001265e-002 
6.191865e-002 
7.434910e-002 
7.793561e-002 
6.929711e-002 
5.186698e-002 
3.507852e-002 
2.650577e-002 
2.356312e-002 
2.095592e-002 
1.630177e-002 
6.944947e-003 
-7.457458e-003 
-2.258690e-002 
-3.154245e-002 
-3.139411e-002 
-2.468861e-002 
-1.876078e-002 
-1.581451e-002 
-1.379439e-002 
-1.376232e-002 
-1.496738e-002 
-1.175304e-002 
-4.448983e-004 
1.511967e-002 
3.059504e-002 
4.238975e-002 
5.084149e-002 
5.981631e-002 
7.062691e-002 
8.198544e-002 
9.340340e-002 
1.015487e-001 
1.023120e-001 
9.782116e-002 
9.270343e-002 
9.222799e-002 
9.852132e-002 
1.047267e-001 
1.048729e-001 
9.831912e-002 
8.758782e-002 
7.708180e-002 
7.135006e-002 
7.115426e-002 
7.552756e-002 
8.023097e-002 
8.221356e-002 
7.907730e-002 
7.080426e-002 
6.218196e-002 
5.487329e-002 
5.033145e-002 
4.958762e-002 
5.220631e-002 
5.497865e-002 
5.311548e-002 
4.443504e-002 
3.671954e-002 
3.492517e-002 
3.948302e-002 
4.906381e-002 
5.823599e-002 
6.171519e-002 
5.706517e-002 
4.825919e-002 
4.347795e-002 
4.561642e-002 
5.244774e-002 
5.990225e-002 
6.199556e-002 
5.793666e-002 
4.915809e-002 
4.177739e-002 
4.147653e-002 
4.499304e-002 
4.844469e-002 
5.065024e-002 
4.824567e-002 
4.338569e-002 
3.997913e-002 
3.928861e-002 
4.542738e-002 
5.645346e-002 
6.643828e-002 
7.282469e-002 
7.395004e-002 
7.041880e-002 
6.907837e-002 
7.304400e-002 
7.964761e-002 
8.406518e-002 
8.000640e-002 
6.824752e-002 
5.493815e-002 
4.394645e-002 
3.627131e-002 
3.300417e-002 
3.190528e-002 
3.017972e-002 
2.383002e-002 
1.413670e-002 
1.021131e-002 
1.663172e-002 
2.876657e-002 
3.943954e-002 
4.838285e-002 
5.825145e-002 
6.866299e-002 
7.544147e-002 
8.398107e-002 
1.010231e-001 
1.219629e-001 
1.377950e-001 
1.445044e-001 
1.453384e-001 
1.441448e-001 
1.421271e-001 
1.390601e-001 
1.389965e-001 
1.400808e-001 
1.369003e-001 
1.269763e-001 
1.116682e-001 
9.708618e-002 
8.926275e-002 
8.442990e-002 
7.628910e-002 
6.304117e-002 
4.608412e-002 
3.123429e-002 
2.066436e-002 
1.468173e-002 
1.358468e-002 
1.275995e-002 
6.841040e-003 
4.744159e-004 
-3.766859e-003 
-3.936803e-003 
-8.155758e-005 
3.002292e-003 
3.304737e-003 
1.935445e-003 
-7.228734e-005 
7.819893e-004 
7.057381e-003 
1.326943e-002 
1.810348e-002 
2.150563e-002 
2.309142e-002 
2.427571e-002 
2.563962e-002 
2.672459e-002 
2.638603e-002 
2.588687e-002 
2.534511e-002 
2.661135e-002 
2.898294e-002 
3.059229e-002 
2.986296e-002 
2.838667e-002 
2.796673e-002 
2.821148e-002 
3.016953e-002 
3.206098e-002 
3.298172e-002 
3.118728e-002 
2.924446e-002 
2.884777e-002 
3.161989e-002 
3.573201e-002 
3.727016e-002 
3.624795e-002 
3.679738e-002 
3.816796e-002 
3.843567e-002 
4.030120e-002 
4.238274e-002 
4.440115e-002 
4.571670e-002 
4.688467e-002 
5.214885e-002 
6.137519e-002 
6.827789e-002 
7.512932e-002 
8.536699e-002 
9.640075e-002 
1.071794e-001 
1.173060e-001 
1.278119e-001 
1.373337e-001 
1.462646e-001 
1.561308e-001 
1.671512e-001 
1.744334e-001 
1.756090e-001 
1.742029e-001 
1.715559e-001 
1.675856e-001 
1.624659e-001 
1.577783e-001 
1.501184e-001 
1.381325e-001 
1.228674e-001 
1.084864e-001 
9.534484e-002 
8.230113e-002 
6.983551e-002 
5.749511e-002 
4.646803e-002 
3.577824e-002 
2.619655e-002 
1.885564e-002 
1.358610e-002 
1.040930e-002 
9.972561e-003 
1.048649e-002 
1.208523e-002 
1.407328e-002 
1.299399e-002 
1.174687e-002 
1.046664e-002 
6.659446e-003 
1.782309e-003 
-4.012588e-003 
-1.025023e-002 
-1.624272e-002 
-2.287223e-002 
-2.954804e-002 
-3.433970e-002 
-3.909409e-002 
-4.233668e-002 
-3.993921e-002 
-3.319697e-002 
-2.457537e-002 
-1.421075e-002 
-4.467625e-003 
2.155013e-003 
9.585584e-003 
2.080499e-002 
3.388351e-002 
4.254262e-002 
3.951848e-002 
2.572787e-002 
5.294097e-003 
-2.052240e-002 
-4.762507e-002 
-7.052735e-002 
-9.006603e-002 
-1.118987e-001 
-1.386479e-001 
-1.665814e-001 
-1.916198e-001 
-2.115593e-001 
-2.269833e-001 
-2.385695e-001 
-2.423970e-001 
-2.368446e-001 
-2.261437e-001 
-2.112575e-001 
-1.927527e-001 
-1.709605e-001 
-1.434189e-001 
-1.143566e-001 
-8.564577e-002 
-5.698208e-002 
-3.224570e-002 
-1.574437e-002 
-6.378664e-003 
-2.369015e-003 
1.325922e-003 
5.281487e-003 
5.658122e-003 
4.148534e-003 
2.794575e-003 
2.285290e-003 
2.593465e-003 
3.374063e-003 
2.733004e-003 
8.308598e-004 
-2.820676e-003 
-5.603879e-003 
-4.210174e-003 
1.798043e-004 
3.585140e-003 
4.565169e-003 
1.668927e-003 
-3.536774e-003 
-7.945874e-003 
-1.073358e-002 
-1.234160e-002 
-1.458409e-002 
-1.914702e-002 
-2.421822e-002 
-2.801169e-002 
-3.167987e-002 
-3.490331e-002 
-3.862436e-002 
-4.241388e-002 
-4.598939e-002 
-4.943446e-002 
-5.107447e-002 
-5.122478e-002 
-5.273988e-002 
-5.375912e-002 
-5.125651e-002 
-4.668616e-002 
-4.121911e-002 
-3.752624e-002 
-3.535506e-002 
-3.256313e-002 
-3.223517e-002 
-3.244637e-002 
-2.983950e-002 
-2.782272e-002 
-2.791807e-002 
-2.804561e-002 
-2.862339e-002 
-2.706775e-002 
-2.470792e-002 
-2.535127e-002 
-2.739843e-002 
-3.023360e-002 
-3.254638e-002 
-3.283342e-002 
-3.349214e-002 
-3.719965e-002 
-4.177844e-002 
-4.805149e-002 
-5.546380e-002 
-5.956329e-002 
-6.003106e-002 
-6.032043e-002 
-6.437209e-002 
-7.112136e-002 
-7.696161e-002 
-7.900264e-002 
-7.901077e-002 
-7.879312e-002 
-7.862878e-002 
-7.964007e-002 
-8.220247e-002 
-8.480119e-002 
-8.323922e-002 
-7.917410e-002 
-7.386257e-002 
-6.934612e-002 
-6.606717e-002 
-6.074063e-002 
-5.427837e-002 
-5.113676e-002 
-5.108037e-002 
-5.043355e-002 
-4.960128e-002 
-4.612739e-002 
-4.008503e-002 
-3.174615e-002 
-2.249630e-002 
-1.627010e-002 
-1.281025e-002 
-7.046847e-003 
2.632526e-003 
1.166645e-002 
1.918771e-002 
2.587986e-002 
3.076447e-002 
3.430167e-002 
3.766358e-002 
4.178519e-002 
4.867721e-002 
5.700460e-002 
6.301319e-002 
6.976890e-002 
7.593097e-002 
7.851701e-002 
7.911529e-002 
7.748580e-002 
7.605947e-002 
7.756790e-002 
7.957477e-002 
8.103371e-002 
8.385153e-002 
8.620764e-002 
9.049356e-002 
9.519530e-002 
9.694746e-002 
9.837803e-002 
9.900574e-002 
9.711640e-002 
9.453481e-002 
9.387525e-002 
9.504468e-002 
9.695484e-002 
9.423206e-002 
8.925237e-002 
8.697843e-002 
8.520852e-002 
8.143350e-002 
7.661267e-002 
7.287130e-002 
6.809752e-002 
6.309938e-002 
5.687595e-002 
4.995945e-002 
4.262003e-002 
3.350154e-002 
2.331099e-002 
1.589379e-002 
1.087342e-002 
5.460150e-003 
-1.525875e-004 
-9.892922e-003 
-2.062859e-002 
-2.668131e-002 
-2.873150e-002 
-3.015592e-002 
-3.175177e-002 
-3.457980e-002 
-3.719358e-002 
-3.877160e-002 
-4.185156e-002 
-4.327098e-002 
-4.336630e-002 
-4.561296e-002 
-4.912878e-002 
-5.065705e-002 
-5.027524e-002 
-4.823494e-002 
-4.780019e-002 
-5.109606e-002 
-5.292881e-002 
-5.158112e-002 
-5.024885e-002 
-4.953661e-002 
-5.091576e-002 
-5.477115e-002 
-5.802164e-002 
-6.074988e-002 
-6.214893e-002 
-5.952387e-002 
-5.808321e-002 
-6.201419e-002 
-6.904057e-002 
-7.581393e-002 
-7.858388e-002 
-7.870653e-002 
-8.104082e-002 
-8.845377e-002 
-9.763679e-002 
-1.069551e-001 
-1.154283e-001 
-1.210058e-001 
-1.221047e-001 
-1.214383e-001 
-1.217811e-001 
-1.239047e-001 
-1.270239e-001 
-1.275405e-001 
-1.258691e-001 
-1.244091e-001 
-1.217050e-001 
-1.172131e-001 
-1.125189e-001 
-1.081220e-001 
-1.067253e-001 
-1.064638e-001 
-1.037876e-001 
-9.848242e-002 
-9.321479e-002 
-8.805420e-002 
-8.397279e-002 
-8.235462e-002 
-8.307536e-002 
-8.343465e-002 
-8.046915e-002 
-7.601269e-002 
-7.361118e-002 
-7.488247e-002 
-7.804267e-002 
-8.324129e-002 
-8.798907e-002 
-9.053097e-002 
-9.220580e-002 
-9.543789e-002 
-1.004257e-001 
-1.046163e-001 
-1.073602e-001 
-1.102567e-001 
-1.146761e-001 
-1.194440e-001 
-1.246407e-001 
-1.295445e-001 
-1.329565e-001 
-1.339516e-001 
-1.333157e-001 
-1.339184e-001 
-1.351571e-001 
-1.342554e-001 
-1.313197e-001 
-1.284417e-001 
-1.249414e-001 
-1.229859e-001 
-1.224811e-001 
-1.224904e-001 
-1.229972e-001 
-1.214250e-001 
-1.185399e-001 
-1.181447e-001 
-1.187042e-001 
-1.169160e-001 
-1.152363e-001 
-1.134136e-001 
-1.123567e-001 
-1.126235e-001 
-1.130848e-001 
-1.144193e-001 
-1.160795e-001 
-1.153623e-001 
-1.137032e-001 
-1.136955e-001 
-1.152951e-001 
-1.178035e-001 
-1.195287e-001 
-1.219123e-001 
-1.251296e-001 
-1.301038e-001 
-1.351089e-001 
-1.381251e-001 
-1.385126e-001 
-1.386610e-001 
-1.381227e-001 
-1.373713e-001 
-1.354838e-001 
-1.297351e-001 
-1.209118e-001 
-1.076254e-001 
-9.273748e-002 
-7.889010e-002 
-6.648119e-002 
-5.219457e-002 
-3.703409e-002 
-2.174867e-002 
-8.017488e-003 
1.354670e-003 
7.379567e-003 
1.200417e-002 
1.649711e-002 
1.952485e-002 
2.038528e-002 
1.554819e-002 
6.344018e-003 
-3.711492e-003 
-1.299293e-002 
-1.922508e-002 
-2.665344e-002 
-3.974516e-002 
-5.585601e-002 
-7.186795e-002 
-8.595295e-002 
-9.371137e-002 
-9.553358e-002 
-9.567661e-002 
-9.990432e-002 
-1.102990e-001 
-1.192473e-001 
-1.239583e-001 
-1.266305e-001 
-1.290587e-001 
-1.318909e-001 
-1.366763e-001 
-1.448986e-001 
-1.556434e-001 
-1.639479e-001 
-1.672327e-001 
-1.699060e-001 
-1.735486e-001 
-1.782264e-001 
-1.813647e-001 
-1.836897e-001 
-1.884577e-001 
-1.940058e-001 
-1.940778e-001 
-1.873553e-001 
-1.746737e-001 
-1.564729e-001 
-1.327834e-001 
-1.039101e-001 
-8.065260e-002 
-6.837921e-002 
-6.127013e-002 
-5.701660e-002 
-5.709531e-002 
-6.252604e-002 
-7.446049e-002 
-9.048210e-002 
-1.127423e-001 
-1.445488e-001 
-1.769312e-001 
-2.033486e-001 
-2.251913e-001 
-2.442752e-001 
-2.646132e-001 
-2.869481e-001 
-3.104211e-001 
-3.339588e-001 
-3.502278e-001 
-3.543969e-001 
-3.476544e-001 
-3.331801e-001 
-3.135214e-001 
-2.883521e-001 
-2.576120e-001 
-2.241087e-001 
-1.879374e-001 
-1.515309e-001 
-1.211452e-001 
-9.766148e-002 
-8.121167e-002 
-6.913454e-002 
-5.870962e-002 
-5.409492e-002 
-5.443712e-002 
-5.562812e-002 
-5.779866e-002 
-6.068299e-002 
-6.230082e-002 
-6.345989e-002 
-6.422279e-002 
-6.727813e-002 
-7.595790e-002 
-8.537223e-002 
-9.411758e-002 
-1.016931e-001 
-1.084763e-001 
-1.129097e-001 
-1.161010e-001 
-1.185581e-001 
-1.209751e-001 
-1.239758e-001 
-1.241773e-001 
-1.219620e-001 
-1.180819e-001 
-1.142497e-001 
-1.104232e-001 
-1.078858e-001 
-1.062736e-001 
-1.064231e-001 
-1.057146e-001 
-1.013696e-001 
-9.537479e-002 
-8.946260e-002 
-8.345419e-002 
-7.713153e-002 
-7.142832e-002 
-6.960240e-002 
-7.000770e-002 
-6.982495e-002 
-7.113792e-002 
-7.301345e-002 
-7.219546e-002 
-6.903149e-002 
-6.765497e-002 
-7.078243e-002 
-7.629669e-002 
-7.842883e-002 
-7.917219e-002 
-7.963399e-002 
-7.788111e-002 
-7.543699e-002 
-7.550424e-002 
-7.775260e-002 
-7.895751e-002 
-7.804257e-002 
-7.643914e-002 
-7.674443e-002 
-7.755931e-002 
-7.753381e-002 
-7.847731e-002 
-7.963724e-002 
-8.038718e-002 
-8.344246e-002 
-8.973921e-002 
-9.520253e-002 
-9.829834e-002 
-9.889697e-002 
-9.976633e-002 
-1.034281e-001 
-1.082810e-001 
-1.151809e-001 
-1.226229e-001 
-1.262768e-001 
-1.256216e-001 
-1.243123e-001 
-1.251936e-001 
-1.286151e-001 
-1.313895e-001 
-1.332871e-001 
-1.347064e-001 
-1.345132e-001 
-1.342856e-001 
-1.333971e-001 
-1.325438e-001 
-1.325505e-001 
-1.302665e-001 
-1.259895e-001 
-1.222704e-001 
-1.192744e-001 
-1.166723e-001 
-1.136696e-001 
-1.077843e-001 
-1.030003e-001 
-9.835405e-002 
-9.172961e-002 
-8.595371e-002 
-8.188090e-002 
-8.174621e-002 
-8.500930e-002 
-8.833931e-002 
-8.988714e-002 
-9.104289e-002 
-8.983611e-002 
-9.127590e-002 
-9.796406e-002 
-1.102281e-001 
-1.253122e-001 
-1.351285e-001 
-1.383761e-001 
-1.400679e-001 
-1.418332e-001 
-1.452847e-001 
-1.526754e-001 
-1.604852e-001 
-1.655839e-001 
-1.630853e-001 
-1.541685e-001 
-1.469311e-001 
-1.433926e-001 
-1.394163e-001 
-1.358647e-001 
-1.315537e-001 
-1.269952e-001 
-1.219921e-001 
-1.161165e-001 
-1.109562e-001 
-1.089914e-001 
-1.079541e-001 
-1.068627e-001 
-1.068545e-001 
-1.065166e-001 
-1.078623e-001 
-1.096362e-001 
-1.105671e-001 
-1.123241e-001 
-1.171095e-001 
-1.221341e-001 
-1.249658e-001 
-1.248296e-001 
-1.225584e-001 
-1.219599e-001 
-1.223209e-001 
-1.217028e-001 
-1.202163e-001 
-1.163384e-001 
-1.106600e-001 
-1.063431e-001 
-1.040298e-001 
-1.019655e-001 
-1.013342e-001 
-9.852872e-002 
-9.350510e-002 
-8.829852e-002 
-8.386890e-002 
-8.230008e-002 
-8.156698e-002 
-7.835865e-002 
-7.441933e-002 
-7.314284e-002 
-7.244136e-002 
-7.356744e-002 
-7.591426e-002 
-7.654392e-002 
-7.305886e-002 
-6.641865e-002 
-6.013089e-002 
-5.812136e-002 
-5.956437e-002 
-6.121578e-002 
-6.426750e-002 
-6.716407e-002 
-6.789638e-002 
-6.774558e-002 
-6.943752e-002 
-7.464999e-002 
-8.261843e-002 
-9.052579e-002 
-9.652229e-002 
-1.010976e-001 
-1.032105e-001 
-1.045757e-001 
-1.073094e-001 
-1.122256e-001 
-1.193701e-001 
-1.256510e-001 
-1.283012e-001 
-1.277945e-001 
-1.260380e-001 
-1.231067e-001 
-1.219976e-001 
-1.205850e-001 
-1.176556e-001 
-1.150724e-001 
-1.130801e-001 
-1.118802e-001 
-1.125150e-001 
-1.117791e-001 
-1.078141e-001 
-1.033660e-001 
-9.613972e-002 
-9.080326e-002 
-9.068919e-002 
-9.177983e-002 
-9.070602e-002 
-8.569648e-002 
-7.594241e-002 
-6.671273e-002 
-6.140236e-002 
-5.766806e-002 
-5.510955e-002 
-5.147151e-002 
-4.521549e-002 
-3.812039e-002 
-3.314036e-002 
-3.212035e-002 
-3.872383e-002 
-4.951495e-002 
-5.556947e-002 
-5.684823e-002 
-5.830055e-002 
-6.123234e-002 
-6.563316e-002 
-7.107048e-002 
-7.755393e-002 
-8.552267e-002 
-8.891167e-002 
-8.654127e-002 
-8.455505e-002 
-8.444150e-002 
-8.389979e-002 
-8.371406e-002 
-8.226920e-002 
-7.857018e-002 
-7.103563e-002 
-6.020823e-002 
-4.958669e-002 
-4.041397e-002 
-3.292961e-002 
-2.684546e-002 
-2.178360e-002 
-1.644795e-002 
-1.075539e-002 
-4.274875e-003 
-1.093950e-003 
-2.841411e-004 
8.397235e-004 
2.866348e-003 
7.132764e-003 
1.332528e-002 
2.092269e-002 
3.209803e-002 
4.486791e-002 
5.608123e-002 
6.925469e-002 
8.360258e-002 
9.684003e-002 
1.118228e-001 
1.273616e-001 
1.416976e-001 
1.539474e-001 
1.618565e-001 
1.667062e-001 
1.704239e-001 
1.724668e-001 
1.735114e-001 
1.755147e-001 
1.739135e-001 
1.671811e-001 
1.565453e-001 
1.455998e-001 
1.357729e-001 
1.284896e-001 
1.214013e-001 
1.107279e-001 
9.698247e-002 
8.137676e-002 
6.729103e-002 
5.666056e-002 
4.761980e-002 
3.670709e-002 
2.598968e-002 
1.196642e-002 
-6.867278e-003 
-2.445778e-002 
-3.850601e-002 
-5.066630e-002 
-6.311736e-002 
-8.053659e-002 
-9.906732e-002 
-1.137656e-001 
-1.268300e-001 
-1.359456e-001 
-1.397881e-001 
-1.403755e-001 
-1.348492e-001 
-1.202976e-001 
-9.823527e-002 
-6.863048e-002 
-3.127735e-002 
1.066033e-002 
4.700983e-002 
7.139732e-002 
8.773101e-002 
1.020688e-001 
1.147497e-001 
1.190933e-001 
1.142687e-001 
1.035124e-001 
8.226204e-002 
4.949547e-002 
1.686620e-002 
-7.689904e-003 
-2.499709e-002 
-4.135924e-002 
-6.502750e-002 
-9.491134e-002 
-1.256295e-001 
-1.513062e-001 
-1.660115e-001 
-1.665676e-001 
-1.569722e-001 
-1.421112e-001 
-1.244118e-001 
-1.046139e-001 
-7.960762e-002 
-4.702180e-002 
-1.142345e-002 
2.085237e-002 
4.742492e-002 
6.526131e-002 
7.581959e-002 
8.286877e-002 
8.559158e-002 
8.473634e-002 
8.261930e-002 
7.895403e-002 
7.354375e-002 
6.684336e-002 
5.782471e-002 
4.830376e-002 
3.930244e-002 
2.847735e-002 
1.873930e-002 
1.107803e-002 
2.011015e-003 
-8.374102e-003 
-1.724011e-002 
-2.387690e-002 
-2.662764e-002 
-2.714737e-002 
-2.823578e-002 
-2.863564e-002 
-2.810508e-002 
-2.493384e-002 
-1.736727e-002 
-7.220186e-003 
4.134019e-003 
1.584392e-002 
2.390241e-002 
2.656629e-002 
2.714104e-002 
2.824269e-002 
2.984776e-002 
3.061194e-002 
3.167030e-002 
3.445075e-002 
3.577047e-002 
3.155426e-002 
2.284756e-002 
1.618564e-002 
1.258970e-002 
1.136142e-002 
1.406346e-002 
1.918337e-002 
2.184336e-002 
1.904721e-002 
1.416609e-002 
1.470638e-002 
2.314492e-002 
3.386979e-002 
4.453466e-002 
5.431742e-002 
6.167197e-002 
6.568221e-002 
6.881036e-002 
7.431020e-002 
8.021271e-002 
8.272931e-002 
8.260903e-002 
8.317199e-002 
8.528047e-002 
8.714988e-002 
8.717647e-002 
8.598398e-002 
8.461272e-002 
8.256447e-002 
8.196800e-002 
8.417228e-002 
8.625735e-002 
8.749564e-002 
8.932584e-002 
9.338460e-002 
9.924660e-002 
1.063920e-001 
1.128316e-001 
1.174409e-001 
1.196724e-001 
1.212835e-001 
1.261148e-001 
1.337687e-001 
1.415168e-001 
1.457968e-001 
1.458873e-001 
1.441872e-001 
1.433165e-001 
1.439268e-001 
1.452608e-001 
1.444603e-001 
1.415337e-001 
1.387421e-001 
1.337939e-001 
1.299749e-001 
1.287006e-001 
1.272268e-001 
1.247667e-001 
1.212106e-001 
1.181583e-001 
1.175149e-001 
1.172529e-001 
1.143730e-001 
1.125646e-001 
1.091008e-001 
1.028574e-001 
9.545171e-002 
8.797919e-002 
8.178014e-002 
7.817842e-002 
7.540863e-002 
7.186959e-002 
6.724954e-002 
5.837858e-002 
5.011976e-002 
4.463240e-002 
4.357083e-002 
4.767886e-002 
5.365050e-002 
5.607152e-002 
5.474797e-002 
5.167817e-002 
5.124427e-002 
5.589064e-002 
6.081613e-002 
6.641075e-002 
7.061685e-002 
7.065708e-002 
6.829237e-002 
6.670972e-002 
6.856130e-002 
7.270792e-002 
7.314912e-002 
7.151779e-002 
7.085152e-002 
7.029667e-002 
6.991032e-002 
6.990326e-002 
7.179589e-002 
7.688439e-002 
8.181394e-002 
8.609175e-002 
9.150364e-002 
9.600721e-002 
1.002599e-001 
1.064384e-001 
1.154453e-001 
1.240437e-001 
1.293720e-001 
1.285941e-001 
1.241628e-001 
1.206244e-001 
1.202231e-001 
1.241249e-001 
1.292421e-001 
1.300201e-001 
1.243549e-001 
1.173943e-001 
1.119597e-001 
1.109444e-001 
1.134252e-001 
1.143970e-001 
1.120109e-001 
1.070403e-001 
1.020573e-001 
1.016680e-001 
1.069355e-001 
1.144846e-001 
1.216736e-001 
1.252283e-001 
1.244096e-001 
1.209692e-001 
1.187504e-001 
1.178940e-001 
1.180922e-001 
1.176830e-001 
1.164026e-001 
1.141904e-001 
1.115885e-001 
1.080812e-001 
1.057518e-001 
1.060670e-001 
1.060119e-001 
1.037139e-001 
9.661144e-002 
8.730200e-002 
7.810968e-002 
7.127435e-002 
6.636356e-002 
6.194670e-002 
5.654774e-002 
5.000695e-002 
4.109547e-002 
3.246206e-002 
2.930284e-002 
3.049608e-002 
3.078190e-002 
2.501907e-002 
1.501831e-002 
8.042870e-003 
6.045897e-003 
5.954471e-003 
8.397067e-003 
1.178536e-002 
1.308239e-002 
1.034850e-002 
7.472118e-003 
8.459895e-003 
1.321774e-002 
1.730153e-002 
1.749448e-002 
1.705758e-002 
1.736371e-002 
1.947071e-002 
2.316557e-002 
2.672575e-002 
2.603168e-002 
2.310162e-002 
1.930666e-002 
1.742678e-002 
2.106244e-002 
2.677778e-002 
3.252983e-002 
3.620583e-002 
3.639981e-002 
3.678410e-002 
4.275474e-002 
5.240182e-002 
6.368135e-002 
7.267886e-002 
7.862988e-002 
8.407932e-002 
8.701054e-002 
8.704846e-002 
8.653177e-002 
8.686634e-002 
8.891331e-002 
8.981104e-002 
8.972108e-002 
9.194724e-002 
9.168436e-002 
8.433352e-002 
7.193884e-002 
5.841411e-002 
4.858523e-002 
4.067552e-002 
3.123997e-002 
2.445080e-002 
1.896152e-002 
1.043314e-002 
-2.748100e-003 
-1.635685e-002 
-2.444973e-002 
-2.603501e-002 
-2.528309e-002 
-2.383972e-002 
-2.299953e-002 
-2.500383e-002 
-2.924320e-002 
-3.237798e-002 
-2.569499e-002 
-9.027616e-003 
1.067373e-002 
2.782794e-002 
3.983713e-002 
4.949271e-002 
6.115283e-002 
7.644507e-002 
9.273367e-002 
1.074446e-001 
1.142827e-001 
1.140877e-001 
1.122299e-001 
1.116764e-001 
1.139454e-001 
1.145557e-001 
1.086956e-001 
9.632411e-002 
8.408932e-002 
7.494274e-002 
7.123506e-002 
6.813759e-002 
6.136603e-002 
5.010493e-002 
3.682997e-002 
2.571131e-002 
2.010275e-002 
2.138314e-002 
2.521248e-002 
2.807769e-002 
2.683740e-002 
2.485763e-002 
2.404077e-002 
2.547458e-002 
2.303105e-002 
1.456143e-002 
1.806827e-003 
-1.269218e-002 
-2.612563e-002 
-3.894148e-002 
-5.385705e-002 
-6.847221e-002 
-7.395388e-002 
-7.053474e-002 
-5.815768e-002 
-3.751766e-002 
-9.430571e-003 
1.893149e-002 
3.351888e-002 
3.313224e-002 
3.327051e-002 
3.946047e-002 
4.096352e-002 
3.191830e-002 
1.537502e-002 
-5.704450e-003 
-3.550276e-002 
-7.265722e-002 
-1.013407e-001 
-1.179744e-001 
-1.342538e-001 
-1.607184e-001 
-1.971654e-001 
-2.340416e-001 
-2.669928e-001 
-2.961091e-001 
-3.157857e-001 
-3.227878e-001 
-3.228174e-001 
-3.177713e-001 
-3.083987e-001 
-2.893064e-001 
-2.569352e-001 
-2.205509e-001 
-1.869936e-001 
-1.579879e-001 
-1.349329e-001 
-1.161984e-001 
-1.010007e-001 
-8.943880e-002 
-7.763620e-002 
-6.779959e-002 
-6.271246e-002 
-5.850523e-002 
-5.659799e-002 
-5.651874e-002 
-5.505126e-002 
-5.553476e-002 
-5.806407e-002 
-6.086262e-002 
-6.393302e-002 
-6.646772e-002 
-7.252461e-002 
-8.522129e-002 
-9.621419e-002 
-9.986793e-002 
-9.945707e-002 
-9.747115e-002 
-9.693442e-002 
-9.750656e-002 
-1.001416e-001 
-1.035384e-001 
-9.988142e-002 
-8.488511e-002 
-6.419949e-002 
-4.789390e-002 
-4.094126e-002 
-4.334613e-002 
-4.914272e-002 
-5.202947e-002 
-4.636728e-002 
-3.489155e-002 
-2.217675e-002 
-1.148931e-002 
-5.070861e-003 
-2.846804e-003 
-3.848779e-003 
-3.314174e-003 
6.300280e-004 
7.562140e-003 
1.510987e-002 
2.142210e-002 
2.155095e-002 
1.215167e-002 
-4.624949e-003 
-2.042472e-002 
-2.977367e-002 
-3.186180e-002 
-2.881462e-002 
-2.879124e-002 
-3.721726e-002 
-5.435596e-002 
-7.461436e-002 
-8.894128e-002 
-9.441344e-002 
-9.524825e-002 
-9.428772e-002 
-9.429773e-002 
-9.439781e-002 
-9.048029e-002 
-8.322833e-002 
-7.303329e-002 
-6.138244e-002 
-5.206700e-002 
-4.495130e-002 
-4.159946e-002 
-4.370548e-002 
-4.676496e-002 
-4.798819e-002 
-5.113952e-002 
-5.574582e-002 
-5.995611e-002 
-6.372227e-002 
-7.034979e-002 
-8.528697e-002 
-1.022458e-001 
-1.117859e-001 
-1.159883e-001 
-1.207091e-001 
-1.244927e-001 
-1.274760e-001 
-1.313329e-001 
-1.363280e-001 
-1.387303e-001 
-1.321675e-001 
-1.214394e-001 
-1.136245e-001 
-1.071720e-001 
-9.926821e-002 
-9.159411e-002 
-8.500447e-002 
-7.948005e-002 
-7.408045e-002 
-6.692322e-002 
-6.087683e-002 
-5.259055e-002 
-3.980775e-002 
-2.862253e-002 
-2.251098e-002 
-2.063728e-002 
-2.066457e-002 
-2.186993e-002 
-2.480487e-002 
-2.852947e-002 
-2.722872e-002 
-2.288295e-002 
-1.970155e-002 
-1.821062e-002 
-2.094830e-002 
-2.726795e-002 
-3.654368e-002 
-4.380260e-002 
-4.232529e-002 
-3.446174e-002 
-2.953706e-002 
-2.911377e-002 
-3.177239e-002 
-3.622829e-002 
-4.018755e-002 
-4.329703e-002 
-4.208040e-002 
-3.799663e-002 
-3.818590e-002 
-4.234260e-002 
-4.364809e-002 
-4.237404e-002 
-4.268796e-002 
-4.760768e-002 
-5.466571e-002 
-5.837238e-002 
-5.614121e-002 
-4.891083e-002 
-3.602049e-002 
-1.992797e-002 
-6.919353e-003 
-1.392138e-003 
-2.102983e-003 
-5.140398e-003 
-4.958935e-003 
7.617695e-004 
6.508584e-003 
1.168736e-002 
1.596284e-002 
1.604811e-002 
9.937949e-003 
-1.537028e-003 
-1.401553e-002 
-1.927802e-002 
-1.935629e-002 
-2.282295e-002 
-3.202949e-002 
-4.730390e-002 
-6.567786e-002 
-8.202672e-002 
-9.148916e-002 
-9.097959e-002 
-8.298714e-002 
-7.547624e-002 
-7.434724e-002 
-7.814403e-002 
-8.003256e-002 
-7.783220e-002 
-7.372155e-002 
-7.044251e-002 
-6.982910e-002 
-6.947527e-002 
-6.614505e-002 
-6.081672e-002 
-5.441767e-002 
-4.721621e-002 
-4.292671e-002 
-4.095502e-002 
-4.045798e-002 
-3.821594e-002 
-3.334850e-002 
-3.011881e-002 
-3.347021e-002 
-4.225882e-002 
-5.085032e-002 
-5.579652e-002 
-5.630477e-002 
-5.602205e-002 
-5.561411e-002 
-5.769997e-002 
-6.203532e-002 
-6.434135e-002 
-6.096328e-002 
-5.292959e-002 
-4.383591e-002 
-3.737369e-002 
-3.289475e-002 
-2.749611e-002 
-2.162866e-002 
-1.314690e-002 
-1.494980e-003 
1.137978e-002 
2.264667e-002 
2.716625e-002 
2.360055e-002 
1.592274e-002 
7.357044e-003 
-7.638307e-004 
-8.984550e-003 
-1.841549e-002 
-2.873334e-002 
-4.323810e-002 
-6.293049e-002 
-8.186351e-002 
-9.228826e-002 
-9.268552e-002 
-9.189127e-002 
-9.486843e-002 
-1.004433e-001 
-1.061932e-001 
-1.110134e-001 
-1.110456e-001 
-1.039077e-001 
-8.785351e-002 
-6.896088e-002 
-5.386515e-002 
-4.105592e-002 
-2.894601e-002 
-1.403519e-002 
3.068801e-003 
1.918308e-002 
3.362333e-002 
4.743940e-002 
5.935053e-002 
6.987652e-002 
7.914150e-002 
9.193098e-002 
1.072898e-001 
1.190382e-001 
1.247066e-001 
1.268371e-001 
1.269171e-001 
1.254021e-001 
1.228028e-001 
1.211072e-001 
1.200291e-001 
1.123621e-001 
9.989857e-002 
8.716107e-002 
7.772746e-002 
7.136566e-002 
6.686414e-002 
6.249466e-002 
5.586717e-002 
4.468923e-002 
3.257711e-002 
2.561831e-002 
2.252064e-002 
2.080585e-002 
2.022127e-002 
1.929597e-002 
1.566782e-002 
9.455069e-003 
4.514177e-003 
1.270509e-003 
-1.537689e-003 
-6.771347e-003 
-1.284328e-002 
-1.832365e-002 
-2.769373e-002 
-3.858319e-002 
-4.582304e-002 
-4.819597e-002 
-4.880367e-002 
-4.787007e-002 
-4.340948e-002 
-3.204430e-002 
-1.744877e-002 
-1.177382e-003 
2.229464e-002 
5.204571e-002 
8.150219e-002 
1.027241e-001 
1.146643e-001 
1.225436e-001 
1.274450e-001 
1.257485e-001 
1.203175e-001 
1.124238e-001 
9.805387e-002 
7.464655e-002 
4.450314e-002 
1.792706e-002 
-6.425773e-004 
-1.785348e-002 
-3.862735e-002 
-6.273761e-002 
-8.823739e-002 
-1.107146e-001 
-1.277189e-001 
-1.359465e-001 
-1.324490e-001 
-1.213652e-001 
-1.057388e-001 
-8.753187e-002 
-6.614538e-002 
-3.966723e-002 
-9.183055e-003 
2.223473e-002 
5.261513e-002 
7.892547e-002 
9.676875e-002 
1.055721e-001 
1.070598e-001 
1.076680e-001 
1.100495e-001 
1.165083e-001 
1.253865e-001 
1.314765e-001 
1.297433e-001 
1.207831e-001 
1.126771e-001 
1.097958e-001 
1.113354e-001 
1.134463e-001 
1.129215e-001 
1.077294e-001 
9.974102e-002 
9.243309e-002 
9.312030e-002 
1.029797e-001 
1.129081e-001 
1.193339e-001 
1.224424e-001 
1.232869e-001 
1.248020e-001 
1.256766e-001 
1.252791e-001 
1.242453e-001 
1.191281e-001 
1.108514e-001 
1.055200e-001 
1.014403e-001 
9.577261e-002 
8.833824e-002 
7.967809e-002 
7.212230e-002 
6.446712e-002 
5.642194e-002 
4.967949e-002 
4.377174e-002 
3.632659e-002 
3.075833e-002 
3.019890e-002 
3.304606e-002 
3.594976e-002 
3.772193e-002 
3.799925e-002 
3.822592e-002 
4.024302e-002 
4.401222e-002 
5.064733e-002 
5.546756e-002 
5.683865e-002 
5.842024e-002 
6.108834e-002 
6.364664e-002 
6.804736e-002 
7.330557e-002 
7.917805e-002 
8.482699e-002 
8.805199e-002 
9.383158e-002 
1.025812e-001 
1.087127e-001 
1.109612e-001 
1.106988e-001 
1.095547e-001 
1.094887e-001 
1.097578e-001 
1.092001e-001 
1.099442e-001 
1.101079e-001 
1.069225e-001 
1.022452e-001 
9.812703e-002 
9.662817e-002 
9.757325e-002 
9.892688e-002 
9.872861e-002 
9.822729e-002 
9.714757e-002 
9.601176e-002 
9.988083e-002 
1.120455e-001 
1.287295e-001 
1.413829e-001 
1.455737e-001 
1.414326e-001 
1.347483e-001 
1.312816e-001 
1.333983e-001 
1.397909e-001 
1.442576e-001 
1.403075e-001 
1.290226e-001 
1.191993e-001 
1.132229e-001 
1.098552e-001 
1.065749e-001 
9.895229e-002 
8.488471e-002 
6.796762e-002 
5.218813e-002 
4.375437e-002 
4.304473e-002 
4.082801e-002 
3.659893e-002 
3.280477e-002 
3.021012e-002 
3.084161e-002 
3.390286e-002 
3.611460e-002 
3.733836e-002 
3.550220e-002 
3.173745e-002 
3.214964e-002 
3.608320e-002 
4.258882e-002 
4.963184e-002 
5.556637e-002 
6.063448e-002 
6.435819e-002 
6.536827e-002 
6.448881e-002 
6.530975e-002 
6.628515e-002 
6.934784e-002 
7.282100e-002 
7.379061e-002 
7.198989e-002 
6.907707e-002 
6.682056e-002 
6.765359e-002 
7.048505e-002 
7.061921e-002 
7.051200e-002 
6.762467e-002 
6.444655e-002 
6.399175e-002 
6.523229e-002 
6.483087e-002 
6.255629e-002 
5.798984e-002 
5.234747e-002 
4.792359e-002 
4.434273e-002 
4.295258e-002 
4.059927e-002 
3.663507e-002 
3.200137e-002 
3.007813e-002 
2.932145e-002 
2.780641e-002 
2.563990e-002 
2.386183e-002 
2.262067e-002 
2.178083e-002 
2.222699e-002 
2.540314e-002 
2.981957e-002 
3.179166e-002 
3.301949e-002 
3.457165e-002 
3.644218e-002 
3.622152e-002 
3.288171e-002 
2.969645e-002 
2.841221e-002 
2.802940e-002 
2.738910e-002 
2.555739e-002 
2.218332e-002 
1.589245e-002 
5.416484e-003 
-4.085910e-003 
-1.027092e-002 
-1.493477e-002 
-1.840923e-002 
-2.400980e-002 
-3.074446e-002 
-3.547224e-002 
-3.989991e-002 
-4.284221e-002 
-4.264426e-002 
-4.255682e-002 
-4.283421e-002 
-4.405750e-002 
-4.831567e-002 
-5.272526e-002 
-5.709929e-002 
-6.152252e-002 
-6.422274e-002 
-6.458222e-002 
-6.418729e-002 
-6.398970e-002 
-6.486117e-002 
-6.609602e-002 
-6.690683e-002 
-6.762257e-002 
-6.762112e-002 
-6.793339e-002 
-6.793018e-002 
-6.717651e-002 
-6.422572e-002 
-5.874075e-002 
-5.164276e-002 
-4.498968e-002 
-3.841136e-002 
-3.253617e-002 
-2.752805e-002 
-2.121111e-002 
-1.532989e-002 
-1.008167e-002 
-5.282132e-003 
-1.231981e-003 
3.030787e-003 
8.921120e-003 
1.500464e-002 
2.094688e-002 
2.758947e-002 
3.586629e-002 
4.970855e-002 
6.791507e-002 
8.790767e-002 
1.084958e-001 
1.282369e-001 
1.460555e-001 
1.638933e-001 
1.844462e-001 
2.066045e-001 
2.261286e-001 
2.416066e-001 
2.538788e-001 
2.628718e-001 
2.685979e-001 
2.704274e-001 
2.681850e-001 
2.612443e-001 
2.475761e-001 
2.323309e-001 
2.187502e-001 
2.037402e-001 
1.853436e-001 
1.633899e-001 
1.396669e-001 
1.168496e-001 
9.693758e-002 
8.156730e-002 
7.090535e-002 
6.021068e-002 
4.968299e-002 
3.910410e-002 
3.009556e-002 
2.485880e-002 
2.395595e-002 
2.506206e-002 
2.663026e-002 
2.703661e-002 
2.763555e-002 
2.823019e-002 
2.560250e-002 
2.234177e-002 
2.125630e-002 
2.306124e-002 
2.610473e-002 
2.859052e-002 
2.876522e-002 
3.100299e-002 
3.668858e-002 
4.949197e-002 
7.219224e-002 
9.955861e-002 
1.206700e-001 
1.267494e-001 
1.177713e-001 
1.019944e-001 
8.633451e-002 
6.955232e-002 
5.153727e-002 
2.706956e-002 
-8.901445e-003 
-5.626208e-002 
-1.056258e-001 
-1.460460e-001 
-1.766541e-001 
-2.043149e-001 
-2.334716e-001 
-2.645681e-001 
-2.974316e-001 
-3.285376e-001 
-3.525266e-001 
-3.629609e-001 
-3.615891e-001 
-3.519772e-001 
-3.361363e-001 
-3.143659e-001 
-2.879895e-001 
-2.589697e-001 
-2.304113e-001 
-2.026682e-001 
-1.758217e-001 
-1.530847e-001 
-1.354650e-001 
-1.235504e-001 
-1.142920e-001 
-1.054487e-001 
-9.542567e-002 
-8.644605e-002 
-7.846589e-002 
-7.116702e-002 
-6.547648e-002 
-6.009493e-002 
-5.204667e-002 
-4.095771e-002 
-2.953522e-002 
-1.839023e-002 
-8.906912e-003 
-3.742975e-004 
8.074507e-003 
1.482940e-002 
1.957440e-002 
2.269798e-002 
2.449177e-002 
2.653290e-002 
3.110732e-002 
3.715821e-002 
4.182594e-002 
4.396165e-002 
4.369486e-002 
4.313289e-002 
4.371309e-002 
4.614724e-002 
4.616104e-002 
4.392076e-002 
4.224659e-002 
4.169307e-002 
4.471388e-002 
4.981629e-002 
5.485908e-002 
6.172848e-002 
7.129365e-002 
7.984566e-002 
8.470145e-002 
8.211170e-002 
7.295426e-002 
6.025523e-002 
4.487375e-002 
3.457587e-002 
3.299645e-002 
3.306733e-002 
2.473850e-002 
4.281694e-003 
-1.945637e-002 
-3.652328e-002 
-4.726031e-002 
-5.399130e-002 
-5.811700e-002 
-6.722557e-002 
-8.310874e-002 
-1.018778e-001 
-1.160160e-001 
-1.190533e-001 
-1.131018e-001 
-1.048317e-001 
-9.943326e-002 
-9.751080e-002 
-9.482968e-002 
-8.788476e-002 
-7.948823e-002 
-7.186660e-002 
-6.470487e-002 
-5.708205e-002 
-5.104003e-002 
-4.853655e-002 
-4.712429e-002 
-4.433221e-002 
-4.294516e-002 
-4.476051e-002 
-4.840175e-002 
-5.193340e-002 
-5.512232e-002 
-6.019773e-002 
-6.620846e-002 
-6.937243e-002 
-7.038771e-002 
-7.360006e-002 
-8.121949e-002 
-9.032407e-002 
-9.543419e-002 
-9.527697e-002 
-9.162503e-002 
-8.440521e-002 
-7.534677e-002 
-6.781099e-002 
-6.281811e-002 
-5.738243e-002 
-4.753217e-002 
-3.350459e-002 
-2.024719e-002 
-1.100551e-002 
-4.922448e-003 
-1.270853e-003 
2.557147e-003 
8.036032e-003 
1.354488e-002 
1.973042e-002 
2.695157e-002 
3.289626e-002 
3.668909e-002 
3.841293e-002 
3.816206e-002 
3.698501e-002 
3.366547e-002 
2.926717e-002 
2.936488e-002 
3.128952e-002 
2.890894e-002 
2.224414e-002 
1.588010e-002 
1.233397e-002 
1.060417e-002 
7.784815e-003 
2.912375e-003 
-2.911614e-003 
-1.203960e-002 
-2.261701e-002 
-2.958332e-002 
-3.061231e-002 
-3.092235e-002 
-3.422823e-002 
-3.889445e-002 
-4.276855e-002 
-4.255920e-002 
-3.942670e-002 
-3.464169e-002 
-2.913078e-002 
-2.301664e-002 
-1.848565e-002 
-1.354195e-002 
-6.491297e-003 
-1.976933e-004 
7.292123e-003 
1.622943e-002 
2.603526e-002 
3.726469e-002 
4.737178e-002 
5.148370e-002 
4.920543e-002 
4.136804e-002 
3.392075e-002 
3.308301e-002 
3.360318e-002 
3.195272e-002 
2.573545e-002 
1.332997e-002 
-2.169803e-004 
-1.159754e-002 
-1.769821e-002 
-1.603126e-002 
-1.402567e-002 
-1.739469e-002 
-2.128458e-002 
-2.652015e-002 
-3.098934e-002 
-3.148372e-002 
-3.048042e-002 
-2.411730e-002 
-1.352239e-002 
-7.169595e-003 
-6.704271e-003 
-1.059304e-002 
-1.915295e-002 
-2.383434e-002 
-2.317537e-002 
-2.314932e-002 
-2.637686e-002 
-3.855281e-002 
-6.166508e-002 
-8.707072e-002 
-1.057056e-001 
-1.149396e-001 
-1.150301e-001 
-1.174059e-001 
-1.290063e-001 
-1.445497e-001 
-1.581881e-001 
-1.643327e-001 
-1.592317e-001 
-1.500662e-001 
-1.440692e-001 
-1.400175e-001 
-1.384868e-001 
-1.338809e-001 
-1.234228e-001 
-1.103044e-001 
-9.616355e-002 
-8.331919e-002 
-7.165935e-002 
-5.441846e-002 
-3.372258e-002 
-2.054115e-002 
-1.970597e-002 
-3.047248e-002 
-4.431399e-002 
-5.472079e-002 
-5.983587e-002 
-5.920133e-002 
-5.962677e-002 
-7.079198e-002 
-9.214669e-002 
-1.148945e-001 
-1.297656e-001 
-1.336082e-001 
-1.328532e-001 
-1.325614e-001 
-1.351455e-001 
-1.425654e-001 
-1.498063e-001 
-1.504884e-001 
-1.401690e-001 
-1.193691e-001 
-9.586467e-002 
-7.791921e-002 
-6.352023e-002 
-4.965131e-002 
-3.271697e-002 
-8.397575e-003 
2.267404e-002 
5.654915e-002 
8.376351e-002 
9.614270e-002 
9.804732e-002 
1.015059e-001 
1.113117e-001 
1.292664e-001 
1.493869e-001 
1.632804e-001 
1.641063e-001 
1.497414e-001 
1.288646e-001 
1.141430e-001 
1.079080e-001 
1.038430e-001 
9.611022e-002 
8.050333e-002 
5.856935e-002 
3.288543e-002 
1.011551e-002 
-4.384140e-003 
-1.356646e-002 
-2.121853e-002 
-3.025907e-002 
-3.998443e-002 
-4.823728e-002 
-5.661843e-002 
-6.683100e-002 
-7.530757e-002 
-8.127861e-002 
-8.373097e-002 
-8.136364e-002 
-7.875184e-002 
-7.658406e-002 
-7.656842e-002 
-8.056009e-002 
-8.633859e-002 
-9.150206e-002 
-9.814201e-002 
-1.066751e-001 
-1.125235e-001 
-1.112889e-001 
-1.036429e-001 
-9.372877e-002 
-8.353514e-002 
-7.501023e-002 
-6.682900e-002 
-5.620383e-002 
-3.763294e-002 
-6.900932e-003 
2.655706e-002 
4.966837e-002 
6.107644e-002 
6.462023e-002 
6.337738e-002 
6.046648e-002 
5.581966e-002 
4.691537e-002 
3.055301e-002 
2.720248e-003 
-3.131350e-002 
-6.073903e-002 
-8.365588e-002 
-1.048773e-001 
-1.260161e-001 
-1.487782e-001 
-1.727163e-001 
-1.934591e-001 
-2.091959e-001 
-2.177087e-001 
-2.191482e-001 
-2.154523e-001 
-2.044244e-001 
-1.862127e-001 
-1.679992e-001 
-1.483695e-001 
-1.265388e-001 
-1.041658e-001 
-8.256666e-002 
-6.488564e-002 
-5.163593e-002 
-4.410144e-002 
-4.518208e-002 
-5.003652e-002 
-4.798888e-002 
-3.949093e-002 
-2.745941e-002 
-1.854974e-002 
-1.515700e-002 
-1.428979e-002 
-1.420607e-002 
-1.304831e-002 
-7.906458e-003 
3.530746e-004 
7.052506e-003 
1.125615e-002 
1.180311e-002 
1.306275e-002 
1.612845e-002 
1.798487e-002 
1.664078e-002 
1.189882e-002 
6.455838e-003 
2.267948e-003 
-1.713467e-003 
-6.665348e-003 
-1.084429e-002 
-1.432428e-002 
-1.706787e-002 
-1.934204e-002 
-2.116343e-002 
-2.088998e-002 
-1.896853e-002 
-1.584615e-002 
-1.182917e-002 
-7.898498e-003 
-5.611325e-003 
-5.891997e-003 
-9.603534e-003 
-1.467297e-002 
-1.560779e-002 
-1.255504e-002 
-1.008079e-002 
-1.070121e-002 
-1.297109e-002 
-1.414330e-002 
-1.401158e-002 
-1.342551e-002 
-1.237908e-002 
-1.164592e-002 
-1.632125e-002 
-2.381641e-002 
-3.007159e-002 
-3.338427e-002 
-3.365575e-002 
-3.282738e-002 
-3.171212e-002 
-3.164059e-002 
-3.113660e-002 
-3.025049e-002 
-2.820692e-002 
-2.886823e-002 
-3.143177e-002 
-3.401795e-002 
-3.634821e-002 
-3.901490e-002 
-4.043653e-002 
-3.919480e-002 
-3.640302e-002 
-3.254374e-002 
-2.823679e-002 
-2.070164e-002 
-1.231279e-002 
-4.098210e-003 
5.997443e-003 
1.826102e-002 
3.029490e-002 
4.032652e-002 
4.601003e-002 
4.790197e-002 
4.768850e-002 
4.715140e-002 
5.166886e-002 
6.137072e-002 
7.261543e-002 
8.080792e-002 
8.322019e-002 
8.151546e-002 
7.991526e-002 
8.134332e-002 
8.494204e-002 
8.755653e-002 
8.553919e-002 
7.801319e-002 
6.524288e-002 
5.275412e-002 
4.336397e-002 
3.811533e-002 
3.721996e-002 
3.817112e-002 
3.954410e-002 
3.769730e-002 
3.239381e-002 
2.638939e-002 
2.172842e-002 
1.664132e-002 
9.823053e-003 
2.611743e-003 
-3.660368e-003 
-9.432240e-003 
-1.278473e-002 
-1.076086e-002 
-4.323311e-003 
5.143542e-003 
1.328231e-002 
1.946857e-002 
2.993881e-002 
4.418378e-002 
5.911503e-002 
7.661471e-002 
9.232765e-002 
1.007125e-001 
1.002331e-001 
9.325316e-002 
8.757412e-002 
8.903904e-002 
9.372407e-002 
1.006916e-001 
1.126770e-001 
1.199133e-001 
1.153668e-001 
1.018677e-001 
8.277015e-002 
6.183191e-002 
4.336934e-002 
2.756187e-002 
1.850037e-002 
1.233764e-002 
-2.946641e-003 
-2.479814e-002 
-4.581360e-002 
-5.946010e-002 
-6.027776e-002 
-5.267208e-002 
-4.378044e-002 
-3.862852e-002 
-4.411259e-002 
-5.833327e-002 
-7.262330e-002 
-8.120377e-002 
-7.907337e-002 
-6.887845e-002 
-5.660967e-002 
-4.583445e-002 
-4.085580e-002 
-4.167486e-002 
-4.339906e-002 
-4.404560e-002 
-4.155041e-002 
-3.615333e-002 
-2.942489e-002 
-2.376075e-002 
-2.345038e-002 
-2.839767e-002 
-3.223373e-002 
-3.236124e-002 
-2.853021e-002 
-2.127514e-002 
-1.470981e-002 
-1.020693e-002 
-8.693556e-003 
-7.502108e-003 
-2.239560e-003 
8.017423e-003 
1.821554e-002 
2.702561e-002 
3.318824e-002 
3.694539e-002 
3.952360e-002 
4.128060e-002 
4.265490e-002 
4.345638e-002 
4.306239e-002 
4.133945e-002 
4.089535e-002 
4.130005e-002 
4.086068e-002 
3.826805e-002 
3.420688e-002 
3.107131e-002 
3.154702e-002 
3.561792e-002 
4.263130e-002 
4.820348e-002 
4.736406e-002 
4.246838e-002 
3.674562e-002 
3.308723e-002 
3.440249e-002 
3.762584e-002 
4.084544e-002 
4.208241e-002 
3.687035e-002 
2.847578e-002 
2.349609e-002 
2.122694e-002 
2.304654e-002 
2.595610e-002 
2.654716e-002 
2.584016e-002 
2.207101e-002 
1.633522e-002 
1.508297e-002 
1.982611e-002 
2.906204e-002 
4.017249e-002 
4.826794e-002 
5.562331e-002 
6.201063e-002 
6.798337e-002 
7.477731e-002 
8.342313e-002 
9.070352e-002 
9.597918e-002 
9.945185e-002 
1.040019e-001 
1.111573e-001 
1.198859e-001 
1.297908e-001 
1.414919e-001 
1.566927e-001 
1.726357e-001 
1.908198e-001 
2.101216e-001 
2.280338e-001 
2.435956e-001 
2.575056e-001 
2.713670e-001 
2.876409e-001 
3.041272e-001 
3.157958e-001 
3.219805e-001 
3.226693e-001 
3.197499e-001 
3.139548e-001 
3.045751e-001 
2.923454e-001 
2.752616e-001 
2.539755e-001 
2.299178e-001 
2.048278e-001 
1.813610e-001 
1.586985e-001 
1.350860e-001 
1.111100e-001 
9.055164e-002 
7.502098e-002 
6.317106e-002 
4.962932e-002 
3.545554e-002 
2.214968e-002 
1.115828e-002 
3.849573e-003 
3.129686e-004 
1.704820e-003 
2.669563e-003 
-5.273759e-004 
-6.244938e-003 
-1.246972e-002 
-2.090533e-002 
-2.934963e-002 
-3.768957e-002 
-4.418446e-002 
-4.864942e-002 
-5.224742e-002 
-5.330040e-002 
-5.265963e-002 
-5.004771e-002 
-4.201428e-002 
-2.438650e-002 
2.682415e-003 
3.418491e-002 
6.035429e-002 
7.734134e-002 
8.651628e-002 
9.016754e-002 
9.290493e-002 
9.537024e-002 
9.504815e-002 
8.752597e-002 
6.846615e-002 
3.999689e-002 
1.282244e-002 
-7.984268e-003 
-2.481392e-002 
-4.141828e-002 
-6.134117e-002 
-8.398543e-002 
-1.077480e-001 
-1.293749e-001 
-1.439036e-001 
-1.480714e-001 
-1.447385e-001 
-1.364296e-001 
-1.222177e-001 
-1.001096e-001 
-7.374039e-002 
-4.600082e-002 
-1.735111e-002 
1.067200e-002 
3.703176e-002 
5.919218e-002 
7.437188e-002 
8.612935e-002 
9.418963e-002 
9.716347e-002 
1.001414e-001 
1.037228e-001 
1.067413e-001 
1.101312e-001 
1.125080e-001 
1.132197e-001 
1.155056e-001 
1.162945e-001 
1.151737e-001 
1.128600e-001 
1.090853e-001 
1.065958e-001 
1.080355e-001 
1.107978e-001 
1.129772e-001 
1.141306e-001 
1.123818e-001 
1.098328e-001 
1.081342e-001 
1.100440e-001 
1.140942e-001 
1.176109e-001 
1.183510e-001 
1.166760e-001 
1.145566e-001 
1.121159e-001 
1.089544e-001 
1.065085e-001 
1.067747e-001 
1.064837e-001 
1.065532e-001 
1.048223e-001 
1.022422e-001 
9.987083e-002 
9.707537e-002 
9.684700e-002 
1.032737e-001 
1.134897e-001 
1.232182e-001 
1.294529e-001 
1.279253e-001 
1.225961e-001 
1.142170e-001 
1.067589e-001 
1.031247e-001 
1.006621e-001 
9.666256e-002 
9.000269e-002 
7.825492e-002 
6.309297e-002 
4.874010e-002 
3.724548e-002 
3.092848e-002 
2.609329e-002 
1.964098e-002 
1.096586e-002 
-2.941023e-004 
-1.162739e-002 
-1.980063e-002 
-2.170621e-002 
-1.764881e-002 
-9.646946e-003 
-1.467789e-003 
2.452219e-003 
2.660855e-003 
4.013686e-003 
5.823293e-003 
7.833778e-003 
9.983736e-003 
1.151875e-002 
1.504864e-002 
1.760472e-002 
1.896084e-002 
2.433571e-002 
3.129333e-002 
3.630066e-002 
4.116559e-002 
4.528031e-002 
5.052812e-002 
5.588600e-002 
5.961445e-002 
6.505119e-002 
7.097117e-002 
7.537018e-002 
8.092989e-002 
8.636599e-002 
9.078583e-002 
9.483185e-002 
1.000492e-001 
1.087291e-001 
1.183301e-001 
1.248154e-001 
1.285754e-001 
1.287343e-001 
1.266187e-001 
1.267379e-001 
1.293561e-001 
1.342089e-001 
1.362200e-001 
1.318142e-001 
1.242259e-001 
1.160539e-001 
1.081719e-001 
1.049994e-001 
1.034384e-001 
9.728130e-002 
8.770258e-002 
7.503583e-002 
6.533327e-002 
6.002691e-002 
5.466498e-002 
5.090078e-002 
5.039859e-002 
4.913124e-002 
4.812783e-002 
4.866644e-002 
5.040824e-002 
5.418628e-002 
5.504522e-002 
5.436556e-002 
5.686261e-002 
6.097630e-002 
6.423855e-002 
6.702938e-002 
7.017468e-002 
7.635927e-002 
8.369333e-002 
8.831452e-002 
9.189459e-002 
9.602853e-002 
1.010741e-001 
1.100555e-001 
1.218593e-001 
1.316335e-001 
1.359209e-001 
1.315055e-001 
1.218370e-001 
1.154426e-001 
1.137589e-001 
1.162115e-001 
1.183513e-001 
1.105946e-001 
9.443101e-002 
7.785381e-002 
6.350006e-002 
5.596330e-002 
5.391840e-002 
4.966212e-002 
4.375242e-002 
3.450109e-002 
2.569821e-002 
2.657675e-002 
3.452751e-002 
4.248345e-002 
4.920135e-002 
5.070552e-002 
5.040312e-002 
5.308262e-002 
5.815686e-002 
6.682717e-002 
7.419493e-002 
7.627129e-002 
7.365183e-002 
6.745963e-002 
6.153156e-002 
6.025861e-002 
6.105378e-002 
6.309918e-002 
6.289910e-002 
5.909842e-002 
5.439275e-002 
5.025939e-002 
5.197124e-002 
6.167547e-002 
7.319098e-002 
7.981386e-002 
8.191738e-002 
8.011587e-002 
7.751081e-002 
7.477328e-002 
7.457487e-002 
7.756544e-002 
7.779756e-002 
7.028214e-002 
5.758340e-002 
4.750017e-002 
3.935314e-002 
3.167932e-002 
2.287703e-002 
1.403232e-002 
4.482908e-003 
-7.195815e-003 
-1.936642e-002 
-2.731752e-002 
-2.994906e-002 
-3.161253e-002 
-3.219088e-002 
-3.095426e-002 
-2.645989e-002 
-2.136669e-002 
-1.701811e-002 
-1.473063e-002 
-1.242815e-002 
-8.717778e-003 
-3.853790e-003 
3.298297e-003 
1.111801e-002 
1.820542e-002 
2.520062e-002 
3.446260e-002 
4.512281e-002 
5.857131e-002 
7.274962e-002 
8.664722e-002 
1.000040e-001 
1.124392e-001 
1.258151e-001 
1.417151e-001 
1.579151e-001 
1.731627e-001 
1.883548e-001 
2.003041e-001 
2.104631e-001 
2.181805e-001 
2.225523e-001 
2.241969e-001 
2.212108e-001 
2.148967e-001 
2.078879e-001 
1.976226e-001 
1.837386e-001 
1.697456e-001 
1.536873e-001 
1.373052e-001 
1.215053e-001 
1.062709e-001 
9.304293e-002 
7.871039e-002 
6.256212e-002 
4.765574e-002 
3.319073e-002 
1.939740e-002 
8.560858e-003 
-2.048885e-004 
-6.897979e-003 
-1.042329e-002 
-1.152549e-002 
-1.279599e-002 
-1.868822e-002 
-2.838944e-002 
-3.845697e-002 
-4.911247e-002 
-5.895603e-002 
-6.500120e-002 
-6.564607e-002 
-6.572826e-002 
-6.816715e-002 
-6.946552e-002 
-6.469495e-002 
-5.666694e-002 
-4.837328e-002 
-3.810488e-002 
-2.355151e-002 
-8.178391e-003 
1.374919e-003 
4.050040e-003 
2.873480e-003 
-6.313608e-004 
-6.887955e-003 
-1.556065e-002 
-2.626638e-002 
-3.966438e-002 
-6.230730e-002 
-9.657467e-002 
-1.338394e-001 
-1.650595e-001 
-1.901202e-001 
-2.110011e-001 
-2.332380e-001 
-2.580406e-001 
-2.807848e-001 
-2.998799e-001 
-3.117164e-001 
-3.106051e-001 
-3.006936e-001 
-2.896850e-001 
-2.778461e-001 
-2.656220e-001 
-2.493821e-001 
-2.251740e-001 
-1.986327e-001 
-1.749552e-001 
-1.531790e-001 
-1.359480e-001 
-1.226397e-001 
-1.087418e-001 
-9.709451e-002 
-8.972006e-002 
-8.456273e-002 
-8.260161e-002 
-8.141110e-002 
-7.820679e-002 
-7.585555e-002 
-7.501199e-002 
-7.435967e-002 
-7.627426e-002 
-7.749149e-002 
-7.596503e-002 
-7.344401e-002 
-7.173434e-002 
-7.228190e-002 
-7.348000e-002 
-7.284043e-002 
-6.896979e-002 
-6.335477e-002 
-5.699395e-002 
-5.424469e-002 
-5.652050e-002 
-6.264957e-002 
-6.773982e-002 
-6.890027e-002 
-6.814021e-002 
-6.920090e-002 
-7.273744e-002 
-7.911699e-002 
-8.986754e-002 
-9.966200e-002 
-1.055532e-001 
-1.068090e-001 
-1.059482e-001 
-1.083902e-001 
-1.144392e-001 
-1.197022e-001 
-1.243567e-001 
-1.272084e-001 
-1.255563e-001 
-1.205631e-001 
-1.124151e-001 
-1.057191e-001 
-1.021508e-001 
-9.724753e-002 
-8.929860e-002 
-8.284847e-002 
-7.950475e-002 
-7.836239e-002 
-7.691586e-002 
-7.445902e-002 
-7.226632e-002 
-6.754339e-002 
-5.959850e-002 
-5.107661e-002 
-4.590522e-002 
-4.177021e-002 
-3.649652e-002 
-3.105523e-002 
-2.649961e-002 
-2.181225e-002 
-1.725286e-002 
-1.358465e-002 
-1.352935e-002 
-1.908509e-002 
-2.695660e-002 
-3.698566e-002 
-4.732133e-002 
-5.515484e-002 
-6.057309e-002 
-6.680852e-002 
-7.628944e-002 
-8.967767e-002 
-1.038101e-001 
-1.146068e-001 
-1.185204e-001 
-1.142054e-001 
-1.056622e-001 
-9.564830e-002 
-8.853380e-002 
-8.558674e-002 
-8.227457e-002 
-7.692050e-002 
-6.709351e-002 
-5.196173e-002 
-3.721304e-002 
-2.209576e-002 
-4.260290e-003 
9.112283e-003 
1.474009e-002 
1.356838e-002 
8.147224e-003 
5.186987e-003 
4.478957e-003 
4.268732e-003 
4.858161e-003 
1.055816e-003 
-1.304867e-002 
-3.285524e-002 
-4.883441e-002 
-5.547492e-002 
-5.380014e-002 
-5.192386e-002 
-5.606354e-002 
-6.545634e-002 
-7.796083e-002 
-8.963452e-002 
-9.331408e-002 
-8.698431e-002 
-7.423762e-002 
-6.204753e-002 
-5.679829e-002 
-5.502811e-002 
-5.151113e-002 
-4.578928e-002 
-3.780084e-002 
-2.694899e-002 
-1.422252e-002 
-1.939690e-003 
4.932751e-003 
5.095070e-003 
4.007350e-003 
5.004172e-003 
8.317754e-003 
1.248400e-002 
1.562512e-002 
1.411108e-002 
6.013394e-003 
-7.506399e-003 
-1.803171e-002 
-1.682888e-002 
-6.182195e-003 
5.327719e-003 
1.296986e-002 
1.454935e-002 
1.042234e-002 
2.876958e-003 
-3.655930e-003 
-2.173860e-003 
5.759702e-003 
1.212168e-002 
1.521528e-002 
1.668938e-002 
1.551586e-002 
1.261404e-002 
9.580746e-003 
1.064511e-002 
1.512455e-002 
1.759242e-002 
1.850401e-002 
2.184321e-002 
2.742083e-002 
3.501914e-002 
4.613751e-002 
5.881924e-002 
6.730060e-002 
6.471448e-002 
5.392871e-002 
4.261522e-002 
3.247437e-002 
2.227534e-002 
1.005249e-002 
-6.417973e-003 
-2.995002e-002 
-5.869164e-002 
-8.577619e-002 
-1.055378e-001 
-1.200826e-001 
-1.362472e-001 
-1.587562e-001 
-1.836200e-001 
-2.058111e-001 
-2.249505e-001 
-2.372064e-001 
-2.416284e-001 
-2.388158e-001 
-2.305252e-001 
-2.211960e-001 
-2.116203e-001 
-1.988610e-001 
-1.887760e-001 
-1.841342e-001 
-1.797999e-001 
-1.726435e-001 
-1.618203e-001 
-1.513098e-001 
-1.448212e-001 
-1.410308e-001 
-1.389880e-001 
-1.369143e-001 
-1.306478e-001 
-1.187638e-001 
-1.055438e-001 
-9.518538e-002 
-8.895998e-002 
-8.370635e-002 
-7.587689e-002 
-6.467063e-002 
-5.183261e-002 
-4.073429e-002 
-3.042369e-002 
-2.111367e-002 
-1.235593e-002 
-3.703575e-003 
7.556638e-003 
2.185846e-002 
3.901450e-002 
5.663778e-002 
7.413290e-002 
8.846722e-002 
9.329102e-002 
9.017753e-002 
8.510146e-002 
8.162024e-002 
7.891159e-002 
7.354142e-002 
6.092045e-002 
4.213390e-002 
1.795670e-002 
-9.113237e-003 
-3.611485e-002 
-6.372226e-002 
-9.375726e-002 
-1.278277e-001 
-1.664703e-001 
-2.037181e-001 
-2.335382e-001 
-2.579746e-001 
-2.813646e-001 
-3.039918e-001 
-3.215699e-001 
-3.311384e-001 
-3.329236e-001 
-3.277737e-001 
-3.191901e-001 
-3.122871e-001 
-3.083607e-001 
-3.044152e-001 
-2.951106e-001 
-2.805507e-001 
-2.645080e-001 
-2.515118e-001 
-2.418897e-001 
-2.316018e-001 
-2.143698e-001 
-1.903588e-001 
-1.648880e-001 
-1.421524e-001 
-1.221956e-001 
-1.026948e-001 
-7.993615e-002 
-4.536559e-002 
-2.097121e-003 
3.730005e-002 
6.109250e-002 
6.741237e-002 
6.193945e-002 
5.279564e-002 
4.153171e-002 
3.219453e-002 
2.390907e-002 
5.005581e-003 
-2.958902e-002 
-7.439469e-002 
-1.214538e-001 
-1.645971e-001 
-2.009802e-001 
-2.327971e-001 
-2.587601e-001 
-2.819405e-001 
-3.044878e-001 
-3.189386e-001 
-3.159859e-001 
-2.964711e-001 
-2.648536e-001 
-2.310932e-001 
-2.005407e-001 
-1.696842e-001 
-1.392034e-001 
-1.135454e-001 
-9.282680e-002 
-8.001265e-002 
-7.750351e-002 
-8.480467e-002 
-1.021795e-001 
-1.177675e-001 
-1.249479e-001 
-1.319458e-001 
-1.489236e-001 
-1.755988e-001 
-2.072200e-001 
-2.364891e-001 
-2.615062e-001 
-2.797938e-001 
-2.864899e-001 
-2.859641e-001 
-2.835905e-001 
-2.780151e-001 
-2.643146e-001 
-2.429429e-001 
-2.181637e-001 
-1.979721e-001 
-1.818599e-001 
-1.666412e-001 
-1.515412e-001 
-1.371691e-001 
-1.259754e-001 
-1.187855e-001 
-1.128843e-001 
-1.058719e-001 
-9.742940e-002 
-8.541023e-002 
-7.270966e-002 
-6.212831e-002 
-5.559782e-002 
-5.158322e-002 
-4.735583e-002 
-4.291605e-002 
-4.076521e-002 
-3.965471e-002 
-3.664900e-002 
-3.175408e-002 
-2.677462e-002 
-2.202877e-002 
-1.466072e-002 
-6.678193e-003 
-2.844852e-003 
-5.935608e-005 
7.301090e-003 
1.959730e-002 
3.288565e-002 
4.129833e-002 
4.460715e-002 
4.642790e-002 
4.745507e-002 
4.925729e-002 
5.667924e-002 
6.767190e-002 
7.888491e-002 
8.824261e-002 
9.200429e-002 
9.140716e-002 
8.985780e-002 
8.762557e-002 
8.540275e-002 
8.272332e-002 
7.708806e-002 
6.794147e-002 
5.532366e-002 
3.923991e-002 
2.516705e-002 
1.630266e-002 
1.244629e-002 
1.149822e-002 
7.873946e-003 
-7.145013e-004 
-1.215572e-002 
-2.304985e-002 
-2.874348e-002 
-2.856724e-002 
-2.766920e-002 
-2.630716e-002 
-2.607497e-002 
-2.741168e-002 
-2.681552e-002 
-2.131695e-002 
-9.520295e-003 
5.349601e-003 
1.658116e-002 
2.308035e-002 
3.007951e-002 
3.935190e-002 
5.086532e-002 
6.342476e-002 
7.682973e-002 
8.749346e-002 
9.087125e-002 
8.797311e-002 
8.550137e-002 
8.830688e-002 
9.381622e-002 
9.694769e-002 
9.686265e-002 
9.539150e-002 
8.987240e-002 
8.064913e-002 
7.543605e-002 
7.692805e-002 
7.938201e-002 
7.792939e-002 
7.117845e-002 
6.426455e-002 
6.063276e-002 
5.729862e-002 
5.772230e-002 
6.558795e-002 
7.190281e-002 
7.486663e-002 
7.734597e-002 
7.999405e-002 
8.439647e-002 
8.935689e-002 
9.383155e-002 
9.973491e-002 
1.052406e-001 
1.087986e-001 
1.139724e-001 
1.182540e-001 
1.182041e-001 
1.159015e-001 
1.158542e-001 
1.166165e-001 
1.169446e-001 
1.175348e-001 
1.172927e-001 
1.149619e-001 
1.104860e-001 
1.051179e-001 
1.023983e-001 
1.025866e-001 
1.016040e-001 
9.948185e-002 
9.657272e-002 
9.286582e-002 
9.073471e-002 
9.019181e-002 
9.005925e-002 
9.207559e-002 
9.628444e-002 
9.903653e-002 
9.967482e-002 
9.900991e-002 
9.863830e-002 
9.825673e-002 
9.691752e-002 
9.641911e-002 
9.809757e-002 
9.898174e-002 
9.617945e-002 
9.181536e-002 
8.971918e-002 
9.090754e-002 
9.162572e-002 
9.253956e-002 
9.246479e-002 
8.941250e-002 
8.434414e-002 
8.079788e-002 
8.238346e-002 
8.749409e-002 
9.011004e-002 
8.966702e-002 
8.929424e-002 
8.816134e-002 
8.733360e-002 
8.807429e-002 
9.061077e-002 
9.351498e-002 
9.397234e-002 
9.285455e-002 
9.343781e-002 
9.427665e-002 
9.359634e-002 
9.309838e-002 
9.308591e-002 
9.392158e-002 
9.628100e-002 
9.900573e-002 
1.002234e-001 
1.006635e-001 
1.001540e-001 
1.018072e-001 
1.071032e-001 
1.126460e-001 
1.156668e-001 
1.173860e-001 
1.185358e-001 
1.205062e-001 
1.262472e-001 
1.330758e-001 
1.390814e-001 
1.413560e-001 
1.383808e-001 
1.322888e-001 
1.307987e-001 
1.333781e-001 
1.374582e-001 
1.416097e-001 
1.442911e-001 
1.485207e-001 
1.560682e-001 
1.652881e-001 
1.765167e-001 
1.897423e-001 
2.023416e-001 
2.163515e-001 
2.320563e-001 
2.500729e-001 
2.682071e-001 
2.837283e-001 
2.970371e-001 
3.098958e-001 
3.232907e-001 
3.363411e-001 
3.442891e-001 
3.450749e-001 
3.393812e-001 
3.279027e-001 
3.164192e-001 
3.058013e-001 
2.946114e-001 
2.818718e-001 
2.653150e-001 
2.474317e-001 
2.331384e-001 
2.209950e-001 
2.092183e-001 
1.977567e-001 
1.836892e-001 
1.708244e-001 
1.610512e-001 
1.555426e-001 
1.544090e-001 
1.553106e-001 
1.552405e-001 
1.532390e-001 
1.502037e-001 
1.475008e-001 
1.465661e-001 
1.437566e-001 
1.379632e-001 
1.321388e-001 
1.317765e-001 
1.343265e-001 
1.371455e-001 
1.438924e-001 
1.564320e-001 
1.719135e-001 
1.878164e-001 
2.043159e-001 
2.216787e-001 
2.306453e-001 
2.232856e-001 
2.073307e-001 
1.924569e-001 
1.808696e-001 
1.693979e-001 
1.554552e-001 
1.393609e-001 
1.184409e-001 
8.669016e-002 
5.031985e-002 
1.844013e-002 
-6.744894e-003 
-2.656414e-002 
-4.710603e-002 
-6.848950e-002 
-8.731663e-002 
-1.029467e-001 
-1.158214e-001 
-1.178027e-001 
-1.063384e-001 
-8.485543e-002 
-5.950920e-002 
-3.835455e-002 
-2.067674e-002 
-4.383633e-003 
1.102292e-002 
2.513823e-002 
4.347598e-002 
6.237147e-002 
7.865662e-002 
9.034319e-002 
9.695801e-002 
1.037175e-001 
1.139336e-001 
1.258025e-001 
1.358718e-001 
1.428321e-001 
1.433790e-001 
1.403425e-001 
1.365335e-001 
1.335844e-001 
1.336607e-001 
1.354390e-001 
1.337302e-001 
1.266191e-001 
1.147570e-001 
1.005172e-001 
9.020448e-002 
8.364358e-002 
7.943798e-002 
7.766064e-002 
7.399049e-002 
6.566727e-002 
5.517699e-002 
4.658984e-002 
4.537524e-002 
5.222901e-002 
6.078014e-002 
7.066107e-002 
7.959520e-002 
8.551194e-002 
9.030129e-002 
9.794030e-002 
1.105143e-001 
1.262414e-001 
1.411477e-001 
1.509942e-001 
1.564882e-001 
1.557041e-001 
1.509011e-001 
1.454319e-001 
1.420647e-001 
1.387972e-001 
1.345048e-001 
1.282543e-001 
1.176570e-001 
1.041072e-001 
8.709716e-002 
7.170826e-002 
6.242568e-002 
5.748916e-002 
5.250411e-002 
4.694528e-002 
3.924531e-002 
2.931747e-002 
2.218844e-002 
2.136792e-002 
3.054736e-002 
4.387677e-002 
5.532352e-002 
6.439728e-002 
7.119744e-002 
7.346145e-002 
7.237549e-002 
7.351979e-002 
7.797349e-002 
8.400767e-002 
8.743072e-002 
9.068588e-002 
9.408477e-002 
9.440762e-002 
9.060810e-002 
8.778049e-002 
9.043047e-002 
9.766011e-002 
1.056721e-001 
1.101157e-001 
1.112777e-001 
1.086645e-001 
1.038259e-001 
1.003159e-001 
1.013694e-001 
1.058812e-001 
1.068954e-001 
1.020309e-001 
9.285302e-002 
8.313843e-002 
7.633371e-002 
7.106770e-002 
6.603216e-002 
6.196903e-002 
5.661654e-002 
4.885127e-002 
4.289629e-002 
3.680839e-002 
3.087612e-002 
2.708383e-002 
2.336547e-002 
2.412031e-002 
2.855777e-002 
3.334919e-002 
4.019591e-002 
4.828087e-002 
5.608739e-002 
6.697559e-002 
7.785118e-002 
8.511654e-002 
8.783699e-002 
8.201885e-002 
7.475749e-002 
7.080260e-002 
6.943473e-002 
7.047448e-002 
6.968091e-002 
6.348358e-002 
5.542751e-002 
4.739102e-002 
4.237546e-002 
4.461885e-002 
4.781166e-002 
4.740911e-002 
4.149212e-002 
3.145967e-002 
2.668367e-002 
2.967050e-002 
3.659826e-002 
4.537217e-002 
5.315010e-002 
5.537238e-002 
5.322420e-002 
4.899523e-002 
4.844726e-002 
5.263530e-002 
5.629766e-002 
5.770435e-002 
5.661643e-002 
5.329739e-002 
4.905768e-002 
4.667474e-002 
4.686147e-002 
4.908631e-002 
4.890417e-002 
4.468633e-002 
3.771417e-002 
3.183692e-002 
2.801759e-002 
2.741027e-002 
3.043456e-002 
3.402937e-002 
3.597230e-002 
3.560066e-002 
3.386421e-002 
3.468715e-002 
3.609257e-002 
3.267106e-002 
2.770835e-002 
2.195480e-002 
1.669405e-002 
1.419288e-002 
1.298680e-002 
1.299568e-002 
1.280412e-002 
8.643441e-003 
2.937730e-003 
-9.624946e-004 
-4.364764e-003 
-7.243589e-003 
-1.295311e-002 
-2.104505e-002 
-2.923030e-002 
-3.622465e-002 
-3.902836e-002 
-3.906494e-002 
-3.882607e-002 
-3.880461e-002 
-3.840859e-002 
-3.678258e-002 
-2.949044e-002 
-1.736399e-002 
-3.757168e-003 
6.432740e-003 
8.627210e-003 
6.381381e-003 
4.984686e-003 
7.182356e-003 
1.290884e-002 
2.169891e-002 
2.602478e-002 
2.187306e-002 
1.019751e-002 
-4.578069e-003 
-1.618805e-002 
-2.287733e-002 
-2.647481e-002 
-3.068483e-002 
-3.749994e-002 
-4.852610e-002 
-6.116861e-002 
-7.239808e-002 
-8.026412e-002 
-8.514694e-002 
-8.434958e-002 
-8.009656e-002 
