52
0.6771
1.4250e+003
2.8333
1.046708e-003 
2.778413e-003 
4.395794e-003 
6.042245e-003 
7.670344e-003 
9.280185e-003 
1.091913e-002 
1.244422e-002 
1.465191e-002 
1.789528e-002 
2.007571e-002 
2.092559e-002 
2.146183e-002 
2.296590e-002 
2.381397e-002 
2.374857e-002 
2.318359e-002 
2.129174e-002 
1.885608e-002 
1.644869e-002 
1.255667e-002 
8.545904e-003 
4.181079e-003 
-3.439278e-003 
-1.008702e-002 
-1.575274e-002 
-2.254575e-002 
-2.799008e-002 
-3.428704e-002 
-4.491829e-002 
-5.510059e-002 
-6.441431e-002 
-7.331777e-002 
-7.919582e-002 
-8.622488e-002 
-9.657994e-002 
-1.059936e-001 
-1.156890e-001 
-1.257608e-001 
-1.328289e-001 
-1.399504e-001 
-1.488453e-001 
-1.572915e-001 
-1.660124e-001 
-1.749926e-001 
-1.809984e-001 
-1.869093e-001 
-1.938623e-001 
-2.014631e-001 
-2.090390e-001 
-2.155287e-001 
-2.188636e-001 
-2.231641e-001 
-2.301990e-001 
-2.357395e-001 
-2.408733e-001 
-2.457117e-001 
-2.495318e-001 
-2.522733e-001 
-2.551122e-001 
-2.579642e-001 
-2.623127e-001 
-2.647426e-001 
-2.643729e-001 
-2.634666e-001 
-2.627121e-001 
-2.623731e-001 
-2.605730e-001 
-2.568259e-001 
-2.517021e-001 
-2.457489e-001 
-2.407768e-001 
-2.361231e-001 
-2.301966e-001 
-2.250706e-001 
-2.196417e-001 
-2.127762e-001 
-2.074281e-001 
-2.032082e-001 
-1.995066e-001 
-1.975833e-001 
-1.947552e-001 
-1.932010e-001 
-1.960819e-001 
-2.009666e-001 
-2.055642e-001 
-2.109451e-001 
-2.163003e-001 
-2.228882e-001 
-2.322144e-001 
-2.407929e-001 
-2.504605e-001 
-2.623612e-001 
-2.723977e-001 
-2.814507e-001 
-2.923599e-001 
-3.033745e-001 
-3.135455e-001 
-3.219223e-001 
-3.270252e-001 
-3.322702e-001 
-3.377986e-001 
-3.409810e-001 
-3.430796e-001 
-3.442957e-001 
-3.419634e-001 
-3.352450e-001 
-3.223986e-001 
-2.921182e-001 
-2.302701e-001 
-1.360396e-001 
-3.408545e-002 
4.811904e-002 
1.076256e-001 
1.596309e-001 
2.117294e-001 
2.671326e-001 
3.382362e-001 
4.206152e-001 
4.767748e-001 
4.774164e-001 
4.372790e-001 
3.892525e-001 
3.434955e-001 
2.842206e-001 
1.992014e-001 
8.735375e-002 
-6.403160e-002 
-2.627114e-001 
-4.866912e-001 
-7.097326e-001 
-9.267742e-001 
-1.147370e+000 
-1.380843e+000 
-1.624910e+000 
-1.869624e+000 
-2.115202e+000 
-2.363873e+000 
-2.614786e+000 
-2.867769e+000 
-3.120644e+000 
-3.366413e+000 
-3.602684e+000 
-3.826757e+000 
-4.035124e+000 
-4.232287e+000 
-4.421400e+000 
-4.601401e+000 
-4.771510e+000 
-4.927086e+000 
-5.063643e+000 
-5.179801e+000 
-5.271237e+000 
-5.335257e+000 
-5.371989e+000 
-5.382861e+000 
-5.367016e+000 
-5.321376e+000 
-5.243981e+000 
-5.135000e+000 
-4.992548e+000 
-4.817135e+000 
-4.609465e+000 
-4.369647e+000 
-4.103835e+000 
-3.813870e+000 
-3.501499e+000 
-3.170467e+000 
-2.820179e+000 
-2.454571e+000 
-2.080303e+000 
-1.699772e+000 
-1.319970e+000 
-9.498191e-001 
-5.907848e-001 
-2.467893e-001 
8.244940e-002 
3.956059e-001 
6.867629e-001 
9.546792e-001 
1.199455e+000 
1.420147e+000 
1.617559e+000 
1.794790e+000 
1.953835e+000 
2.096851e+000 
2.224818e+000 
2.339290e+000 
2.440358e+000 
2.531193e+000 
2.610974e+000 
2.681826e+000 
2.749582e+000 
2.814716e+000 
2.877713e+000 
2.941433e+000 
3.003534e+000 
3.063975e+000 
3.125350e+000 
3.185912e+000 
3.249046e+000 
3.312990e+000 
3.373942e+000 
3.433817e+000 
3.494427e+000 
3.554455e+000 
3.614642e+000 
3.673665e+000 
3.729860e+000 
3.782403e+000 
3.829935e+000 
3.874909e+000 
3.917833e+000 
3.957270e+000 
3.991287e+000 
4.017658e+000 
4.037382e+000 
4.050933e+000 
4.057425e+000 
4.058188e+000 
4.051891e+000 
4.035341e+000 
4.011619e+000 
3.979743e+000 
3.938510e+000 
3.891089e+000 
3.834240e+000 
3.766843e+000 
3.692730e+000 
3.610586e+000 
3.522167e+000 
3.430017e+000 
3.328263e+000 
3.218543e+000 
3.103955e+000 
2.983611e+000 
2.860720e+000 
2.736105e+000 
2.606607e+000 
2.475651e+000 
2.342694e+000 
2.206898e+000 
2.072795e+000 
1.940961e+000 
1.810416e+000 
1.680874e+000 
1.552113e+000 
1.426503e+000 
1.305787e+000 
1.187809e+000 
1.073504e+000 
9.627648e-001 
8.571435e-001 
7.572449e-001 
6.619653e-001 
5.723622e-001 
4.875488e-001 
4.059109e-001 
3.298029e-001 
2.593835e-001 
1.948537e-001 
1.374168e-001 
8.416674e-002 
3.311519e-002 
-1.401892e-002 
-5.759586e-002 
-9.578653e-002 
-1.278399e-001 
-1.571774e-001 
-1.835882e-001 
-2.073346e-001 
-2.284473e-001 
-2.475272e-001 
-2.635401e-001 
-2.772255e-001 
-2.895999e-001 
-3.004589e-001 
-3.086988e-001 
-3.149826e-001 
-3.195820e-001 
-3.232098e-001 
-3.284781e-001 
-3.324906e-001 
-3.341674e-001 
-3.341281e-001 
-3.312301e-001 
-3.279586e-001 
-3.267603e-001 
-3.252551e-001 
-3.231081e-001 
-3.196861e-001 
-3.131116e-001 
-3.057559e-001 
-2.997864e-001 
-2.947383e-001 
-2.898780e-001 
-2.840679e-001 
-2.774422e-001 
-2.695910e-001 
-2.622985e-001 
-2.554614e-001 
-2.493176e-001 
-2.445138e-001 
-2.392352e-001 
-2.325155e-001 
-2.275048e-001 
-2.246774e-001 
-2.205108e-001 
-2.166210e-001 
-2.133340e-001 
-2.120891e-001 
-2.122749e-001 
-2.117439e-001 
-2.111713e-001 
-2.131201e-001 
-2.137353e-001 
-2.128121e-001 
-2.160470e-001 
-2.214733e-001 
-2.262818e-001 
-2.294592e-001 
-2.331270e-001 
-2.388877e-001 
-2.455441e-001 
-2.513152e-001 
-2.593504e-001 
-2.687663e-001 
-2.750260e-001 
-2.815314e-001 
-2.907583e-001 
-3.016569e-001 
-3.106138e-001 
-3.180966e-001 
-3.260956e-001 
-3.350947e-001 
-3.428184e-001 
-3.504453e-001 
-3.598772e-001 
-3.683909e-001 
-3.739467e-001 
-3.784000e-001 
-3.857222e-001 
-3.933814e-001 
-3.994428e-001 
-4.045647e-001 
-4.098786e-001 
-4.146119e-001 
-4.182027e-001 
-4.216579e-001 
-4.267145e-001 
-4.321922e-001 
-4.345133e-001 
-4.369797e-001 
-4.418891e-001 
-4.465984e-001 
-4.499539e-001 
-4.528451e-001 
-4.560005e-001 
-4.596584e-001 
-4.630271e-001 
-4.653065e-001 
-4.684932e-001 
-4.714597e-001 
-4.720796e-001 
-4.733785e-001 
-4.764966e-001 
-4.789225e-001 
-4.805769e-001 
-4.811275e-001 
-4.799828e-001 
-4.796142e-001 
-4.799326e-001 
-4.796830e-001 
-4.802559e-001 
-4.792443e-001 
-4.759131e-001 
-4.744142e-001 
-4.738594e-001 
-4.730544e-001 
-4.724035e-001 
-4.713173e-001 
-4.695827e-001 
-4.684802e-001 
-4.667267e-001 
-4.657049e-001 
-4.656967e-001 
-4.631596e-001 
-4.600267e-001 
-4.575971e-001 
-4.572525e-001 
-4.566322e-001 
-4.545518e-001 
-4.504848e-001 
-4.460359e-001 
-4.403778e-001 
-4.350502e-001 
-4.294610e-001 
-4.208500e-001 
-4.105577e-001 
-3.979259e-001 
-3.838174e-001 
-3.665606e-001 
-3.364715e-001 
-2.761370e-001 
-1.826225e-001 
-7.812440e-002 
7.726318e-003 
6.926724e-002 
1.180399e-001 
1.642120e-001 
2.132221e-001 
2.758532e-001 
3.516955e-001 
4.050074e-001 
4.012466e-001 
3.514129e-001 
2.886866e-001 
2.240633e-001 
1.473084e-001 
4.469018e-002 
-8.788335e-002 
-2.615535e-001 
-4.845923e-001 
-7.393209e-001 
-9.998914e-001 
-1.259557e+000 
-1.527022e+000 
-1.810131e+000 
-2.104957e+000 
-2.400247e+000 
-2.694130e+000 
-2.986717e+000 
-3.278406e+000 
-3.568641e+000 
-3.852972e+000 
-4.125294e+000 
-4.379112e+000 
-4.608240e+000 
-4.814656e+000 
-5.001479e+000 
-5.171275e+000 
-5.326209e+000 
-5.462598e+000 
-5.576238e+000 
-5.664939e+000 
-5.724786e+000 
-5.755007e+000 
-5.757454e+000 
-5.732129e+000 
-5.682371e+000 
-5.605168e+000 
-5.496456e+000 
-5.356903e+000 
-5.188291e+000 
-4.988360e+000 
-4.755544e+000 
-4.494470e+000 
-4.209905e+000 
-3.901004e+000 
-3.566769e+000 
-3.210013e+000 
-2.836499e+000 
-2.452216e+000 
-2.055753e+000 
-1.653636e+000 
-1.258698e+000 
-8.729685e-001 
-4.989291e-001 
-1.395235e-001 
2.024896e-001 
5.215898e-001 
8.190752e-001 
1.094651e+000 
1.340625e+000 
1.559837e+000 
1.756711e+000 
1.931589e+000 
2.088903e+000 
2.227246e+000 
2.348539e+000 
2.456916e+000 
2.551914e+000 
2.635886e+000 
2.712538e+000 
2.781568e+000 
2.846630e+000 
2.909298e+000 
2.970725e+000 
3.032486e+000 
3.092935e+000 
3.150853e+000 
3.206797e+000 
3.261790e+000 
3.317187e+000 
3.373621e+000 
3.429608e+000 
3.485323e+000 
3.539319e+000 
3.591242e+000 
3.642262e+000 
3.694368e+000 
3.744538e+000 
3.791796e+000 
3.836572e+000 
3.876984e+000 
3.914595e+000 
3.949686e+000 
3.979664e+000 
4.004102e+000 
4.021448e+000 
4.030573e+000 
4.034963e+000 
4.033703e+000 
4.023966e+000 
4.006711e+000 
3.979860e+000 
3.942128e+000 
3.896041e+000 
3.841908e+000 
3.779825e+000 
3.709229e+000 
3.627910e+000 
3.537528e+000 
3.440763e+000 
3.337057e+000 
3.225509e+000 
3.107816e+000 
2.983698e+000 
2.854740e+000 
2.722902e+000 
2.588686e+000 
2.453541e+000 
2.317171e+000 
2.177541e+000 
2.037158e+000 
1.900178e+000 
1.765791e+000 
1.636133e+000 
1.509083e+000 
1.382324e+000 
1.259558e+000 
1.141607e+000 
1.027972e+000 
9.215578e-001 
8.205775e-001 
7.234020e-001 
6.318574e-001 
5.438004e-001 
4.611517e-001 
3.865047e-001 
3.157834e-001 
2.491613e-001 
1.877796e-001 
1.311696e-001 
8.031123e-002 
3.406723e-002 
-9.642810e-003 
-4.962133e-002 
-8.572375e-002 
-1.170731e-001 
-1.441267e-001 
-1.680006e-001 
-1.882257e-001 
-2.077811e-001 
-2.265877e-001 
-2.414289e-001 
-2.524811e-001 
-2.605467e-001 
-2.667131e-001 
-2.749984e-001 
-2.814450e-001 
-2.855808e-001 
-2.888218e-001 
-2.885038e-001 
-2.860141e-001 
-2.851039e-001 
-2.843182e-001 
-2.831374e-001 
-2.809030e-001 
-2.750602e-001 
-2.699646e-001 
-2.659801e-001 
-2.614110e-001 
-2.565809e-001 
-2.520917e-001 
-2.467694e-001 
-2.411263e-001 
-2.368314e-001 
-2.339315e-001 
-2.317631e-001 
-2.270434e-001 
-2.214629e-001 
-2.183791e-001 
-2.178949e-001 
-2.178993e-001 
-2.184606e-001 
-2.199556e-001 
-2.201479e-001 
-2.192627e-001 
-2.203043e-001 
-2.255042e-001 
-2.313269e-001 
-2.356022e-001 
-2.396000e-001 
-2.447804e-001 
-2.506699e-001 
-2.567211e-001 
-2.635121e-001 
-2.715141e-001 
-2.792769e-001 
-2.865272e-001 
-2.945119e-001 
-3.038530e-001 
-3.132131e-001 
-3.219409e-001 
-3.305188e-001 
-3.388934e-001 
-3.482281e-001 
-3.584810e-001 
-3.674953e-001 
-3.752331e-001 
-3.834383e-001 
-3.916264e-001 
-4.010167e-001 
-4.103915e-001 
-4.178417e-001 
-4.242308e-001 
-4.300902e-001 
-4.344963e-001 
-4.409999e-001 
-4.486671e-001 
-4.550260e-001 
-4.596353e-001 
-4.623329e-001 
-4.652054e-001 
-4.705757e-001 
-4.762585e-001 
-4.808609e-001 
-4.861412e-001 
-4.891569e-001 
-4.912900e-001 
-4.932909e-001 
-4.967124e-001 
-5.005946e-001 
-5.022252e-001 
-5.024730e-001 
-5.042544e-001 
-5.067941e-001 
-5.079568e-001 
-5.088799e-001 
-5.093135e-001 
-5.101659e-001 
-5.097515e-001 
-5.089751e-001 
-5.104591e-001 
-5.122724e-001 
-5.109030e-001 
-5.082895e-001 
-5.073235e-001 
-5.078710e-001 
-5.093704e-001 
-5.096502e-001 
-5.094418e-001 
-5.093911e-001 
-5.082356e-001 
-5.066923e-001 
-5.068509e-001 
-5.066250e-001 
-5.057878e-001 
-5.044637e-001 
-5.026598e-001 
-5.024772e-001 
-5.023171e-001 
-5.012969e-001 
-4.998380e-001 
-4.978902e-001 
-4.959988e-001 
-4.951758e-001 
-4.945040e-001 
-4.935776e-001 
-4.906352e-001 
-4.858572e-001 
-4.833540e-001 
-4.812508e-001 
-4.788921e-001 
-4.748297e-001 
-4.690225e-001 
-4.612422e-001 
-4.471249e-001 
-4.185853e-001 
-3.617058e-001 
-2.672402e-001 
-1.524310e-001 
-5.209153e-002 
2.010584e-002 
7.212471e-002 
1.186561e-001 
1.682901e-001 
2.301790e-001 
3.082997e-001 
3.737097e-001 
3.814371e-001 
3.291005e-001 
2.520274e-001 
1.746012e-001 
8.998992e-002 
-1.866382e-002 
-1.576235e-001 
-3.374814e-001 
-5.711753e-001 
-8.489132e-001 
-1.140152e+000 
-1.427572e+000 
-1.714882e+000 
-2.012390e+000 
-2.314541e+000 
-2.612143e+000 
-2.905891e+000 
-3.198864e+000 
-3.493319e+000 
-3.783936e+000 
-4.063857e+000 
-4.326171e+000 
-4.564112e+000 
-4.774941e+000 
-4.965057e+000 
-5.140074e+000 
-5.301731e+000 
-5.445478e+000 
-5.564529e+000 
-5.660985e+000 
-5.734288e+000 
-5.783204e+000 
-5.809357e+000 
-5.812766e+000 
-5.792967e+000 
-5.750391e+000 
-5.680464e+000 
-5.583579e+000 
-5.459749e+000 
-5.302663e+000 
-5.110757e+000 
-4.886305e+000 
-4.630925e+000 
-4.349259e+000 
-4.041613e+000 
-3.705825e+000 
-3.346865e+000 
-2.965201e+000 
-2.563591e+000 
-2.151278e+000 
-1.734949e+000 
-1.320084e+000 
-9.152782e-001 
-5.219978e-001 
-1.438952e-001 
2.143432e-001 
5.523181e-001 
8.657272e-001 
1.148407e+000 
1.399011e+000 
1.618286e+000 
1.808888e+000 
1.977335e+000 
2.125097e+000 
2.253914e+000 
2.364724e+000 
2.458499e+000 
2.536068e+000 
2.601217e+000 
2.659003e+000 
2.713942e+000 
2.765233e+000 
2.813986e+000 
2.861832e+000 
2.908210e+000 
2.956109e+000 
3.003307e+000 
3.048967e+000 
3.096018e+000 
3.144333e+000 
3.192192e+000 
3.242508e+000 
3.292873e+000 
3.343361e+000 
3.394193e+000 
3.443414e+000 
3.493728e+000 
3.546922e+000 
3.600109e+000 
3.650476e+000 
3.697691e+000 
3.743132e+000 
3.787670e+000 
3.830123e+000 
3.869502e+000 
3.906085e+000 
3.937791e+000 
3.963428e+000 
3.982362e+000 
3.997631e+000 
4.008709e+000 
4.011273e+000 
4.005103e+000 
3.990253e+000 
3.968967e+000 
3.940031e+000 
3.901843e+000 
3.853601e+000 
3.797223e+000 
3.730303e+000 
3.654430e+000 
3.571414e+000 
3.480668e+000 
3.383038e+000 
3.276181e+000 
3.160325e+000 
3.039150e+000 
2.913778e+000 
2.784155e+000 
2.651564e+000 
2.513542e+000 
2.372858e+000 
2.233179e+000 
2.092695e+000 
1.952823e+000 
1.815198e+000 
1.678042e+000 
1.543391e+000 
1.412420e+000 
1.285521e+000 
1.165824e+000 
1.050621e+000 
9.384127e-001 
8.313451e-001 
7.302302e-001 
6.357209e-001 
5.496763e-001 
4.690439e-001 
3.924629e-001 
3.214792e-001 
2.555276e-001 
1.963962e-001 
1.423432e-001 
9.323217e-002 
4.847414e-002 
7.356951e-003 
-3.050387e-002 
-6.299480e-002 
-8.985698e-002 
-1.133760e-001 
-1.343220e-001 
-1.540786e-001 
-1.711489e-001 
-1.856407e-001 
-1.967121e-001 
-2.064017e-001 
-2.145352e-001 
-2.211892e-001 
-2.271515e-001 
-2.309922e-001 
-2.339285e-001 
-2.355896e-001 
-2.361911e-001 
-2.365275e-001 
-2.373085e-001 
-2.366114e-001 
-2.360599e-001 
-2.353353e-001 
-2.350037e-001 
-2.366508e-001 
-2.371458e-001 
-2.365953e-001 
-2.360050e-001 
-2.358232e-001 
-2.373919e-001 
-2.394622e-001 
-2.396897e-001 
-2.408677e-001 
-2.433602e-001 
-2.463208e-001 
-2.507597e-001 
-2.561479e-001 
-2.619871e-001 
-2.671418e-001 
-2.703532e-001 
-2.753030e-001 
-2.840698e-001 
-2.938714e-001 
-3.023960e-001 
-3.101538e-001 
-3.176915e-001 
-3.250923e-001 
-3.331253e-001 
-3.427446e-001 
-3.542279e-001 
-3.633824e-001 
-3.693156e-001 
-3.758683e-001 
-3.848649e-001 
-3.933543e-001 
-4.022581e-001 
-4.110020e-001 
-4.190231e-001 
-4.268583e-001 
-4.326929e-001 
-4.394221e-001 
-4.479944e-001 
-4.554626e-001 
-4.606971e-001 
-4.674035e-001 
-4.742502e-001 
-4.811941e-001 
-4.874223e-001 
-4.924805e-001 
-4.975475e-001 
-5.031595e-001 
-5.081244e-001 
-5.124306e-001 
-5.171328e-001 
-5.198868e-001 
-5.212138e-001 
-5.234698e-001 
-5.269576e-001 
-5.303452e-001 
-5.330604e-001 
-5.336910e-001 
-5.348256e-001 
-5.376235e-001 
-5.402871e-001 
-5.426054e-001 
-5.456353e-001 
-5.466552e-001 
-5.459794e-001 
-5.458898e-001 
-5.471586e-001 
-5.508588e-001 
-5.541637e-001 
-5.549849e-001 
-5.546318e-001 
-5.552026e-001 
-5.551373e-001 
-5.555972e-001 
-5.564399e-001 
-5.567192e-001 
-5.566640e-001 
-5.565157e-001 
-5.562291e-001 
-5.555650e-001 
-5.547465e-001 
-5.516784e-001 
-5.485672e-001 
-5.481552e-001 
-5.486601e-001 
-5.485009e-001 
-5.487037e-001 
-5.458952e-001 
-5.414889e-001 
-5.383987e-001 
-5.366579e-001 
-5.370170e-001 
-5.369270e-001 
-5.338412e-001 
-5.304696e-001 
-5.276619e-001 
-5.235876e-001 
-5.212634e-001 
-5.201575e-001 
-5.180262e-001 
-5.138737e-001 
-5.103141e-001 
-5.086960e-001 
-5.068365e-001 
-5.030243e-001 
-4.977184e-001 
-4.932612e-001 
-4.893904e-001 
-4.858107e-001 
-4.825591e-001 
-4.773591e-001 
-4.648304e-001 
-4.345241e-001 
-3.727693e-001 
-2.819500e-001 
-1.878016e-001 
-1.131373e-001 
-5.847845e-002 
-1.153728e-002 
3.315088e-002 
7.937001e-002 
1.392276e-001 
2.091243e-001 
2.518529e-001 
2.367450e-001 
1.789056e-001 
1.100017e-001 
3.567579e-002 
-5.586533e-002 
-1.702674e-001 
-3.226188e-001 
-5.242940e-001 
-7.772414e-001 
-1.063653e+000 
-1.355272e+000 
-1.647038e+000 
-1.944957e+000 
-2.246782e+000 
-2.555778e+000 
-2.870692e+000 
-3.173093e+000 
-3.467598e+000 
-3.759221e+000 
-4.044928e+000 
-4.318161e+000 
-4.566645e+000 
-4.788564e+000 
-4.988726e+000 
-5.165137e+000 
-5.318637e+000 
-5.455233e+000 
-5.572893e+000 
-5.668072e+000 
-5.738408e+000 
-5.787672e+000 
-5.820817e+000 
-5.836477e+000 
-5.834043e+000 
-5.807484e+000 
-5.756454e+000 
-5.684194e+000 
-5.586681e+000 
-5.464768e+000 
-5.317470e+000 
-5.139536e+000 
-4.930068e+000 
-4.690403e+000 
-4.421500e+000 
-4.129606e+000 
-3.813933e+000 
-3.473163e+000 
-3.113885e+000 
-2.739534e+000 
-2.352309e+000 
-1.956384e+000 
-1.555650e+000 
-1.158550e+000 
-7.729020e-001 
-4.006906e-001 
-4.613756e-002 
2.851631e-001 
5.936304e-001 
8.795882e-001 
1.140345e+000 
1.372993e+000 
1.575589e+000 
1.751315e+000 
1.905740e+000 
2.042313e+000 
2.160894e+000 
2.264480e+000 
2.354066e+000 
2.430374e+000 
2.495635e+000 
2.552869e+000 
2.603931e+000 
2.650694e+000 
2.694398e+000 
2.735475e+000 
2.776688e+000 
2.818927e+000 
2.861347e+000 
2.902325e+000 
2.941770e+000 
2.980254e+000 
3.019431e+000 
3.061874e+000 
3.104861e+000 
3.145150e+000 
3.184666e+000 
3.223304e+000 
3.261975e+000 
3.301927e+000 
3.341753e+000 
3.381780e+000 
3.422989e+000 
3.461609e+000 
3.499638e+000 
3.539119e+000 
3.578114e+000 
3.615246e+000 
3.647930e+000 
3.677915e+000 
3.707701e+000 
3.737321e+000 
3.764151e+000 
3.786008e+000 
3.803450e+000 
3.817274e+000 
3.826751e+000 
3.833598e+000 
3.838160e+000 
3.837184e+000 
3.829351e+000 
3.813792e+000 
3.791599e+000 
3.765960e+000 
3.734979e+000 
3.697206e+000 
3.651718e+000 
3.596797e+000 
3.534739e+000 
3.467548e+000 
3.395090e+000 
3.314934e+000 
3.228087e+000 
3.134628e+000 
3.035231e+000 
2.931366e+000 
2.823351e+000 
2.710733e+000 
2.594435e+000 
2.474488e+000 
2.351966e+000 
2.230626e+000 
2.107119e+000 
1.982809e+000 
1.858312e+000 
1.732179e+000 
1.607887e+000 
1.488546e+000 
1.371974e+000 
1.258367e+000 
1.145974e+000 
1.034880e+000 
9.293272e-001 
8.287519e-001 
7.332097e-001 
6.423683e-001 
5.553224e-001 
4.717133e-001 
3.927156e-001 
3.194748e-001 
2.523619e-001 
1.899401e-001 
1.314087e-001 
7.541432e-002 
2.348044e-002 
-2.138175e-002 
-6.181469e-002 
-9.889185e-002 
-1.324947e-001 
-1.645568e-001 
-1.933050e-001 
-2.186207e-001 
-2.410965e-001 
-2.596010e-001 
-2.754948e-001 
-2.906685e-001 
-3.027950e-001 
-3.124653e-001 
-3.205759e-001 
-3.266528e-001 
-3.322913e-001 
-3.372009e-001 
-3.400414e-001 
-3.401619e-001 
-3.396143e-001 
-3.384949e-001 
-3.385487e-001 
-3.391724e-001 
-3.390736e-001 
-3.373441e-001 
-3.357521e-001 
-3.334822e-001 
-3.314858e-001 
-3.306586e-001 
-3.291279e-001 
-3.279738e-001 
-3.266930e-001 
-3.253808e-001 
-3.247259e-001 
-3.264319e-001 
-3.257340e-001 
-3.234027e-001 
-3.221766e-001 
-3.231270e-001 
-3.259544e-001 
-3.291942e-001 
-3.312189e-001 
-3.325591e-001 
-3.343384e-001 
-3.352924e-001 
-3.387682e-001 
-3.448457e-001 
-3.510054e-001 
-3.558701e-001 
-3.591889e-001 
-3.631898e-001 
-3.702999e-001 
-3.780549e-001 
-3.858757e-001 
-3.932464e-001 
-3.990760e-001 
-4.055385e-001 
-4.126631e-001 
-4.200782e-001 
-4.292793e-001 
-4.376516e-001 
-4.430428e-001 
-4.490722e-001 
-4.557250e-001 
-4.640747e-001 
-4.724389e-001 
-4.779290e-001 
-4.836875e-001 
-4.906424e-001 
-4.967480e-001 
-5.024613e-001 
-5.089684e-001 
-5.147412e-001 
-5.197159e-001 
-5.224808e-001 
-5.270010e-001 
-5.333424e-001 
-5.370695e-001 
-5.395073e-001 
-5.425277e-001 
-5.461934e-001 
-5.499077e-001 
-5.533676e-001 
-5.562410e-001 
-5.589745e-001 
-5.598279e-001 
-5.607774e-001 
-5.634063e-001 
-5.672488e-001 
-5.700209e-001 
-5.702868e-001 
-5.709049e-001 
-5.718158e-001 
-5.725182e-001 
-5.747711e-001 
-5.765931e-001 
-5.766848e-001 
-5.765887e-001 
-5.755272e-001 
-5.754392e-001 
-5.783799e-001 
-5.786812e-001 
-5.770758e-001 
-5.755779e-001 
-5.740201e-001 
-5.739110e-001 
-5.746499e-001 
-5.752604e-001 
-5.752306e-001 
-5.734962e-001 
-5.698855e-001 
-5.685489e-001 
-5.690590e-001 
-5.700699e-001 
-5.691801e-001 
-5.679548e-001 
-5.676943e-001 
-5.663418e-001 
-5.646790e-001 
-5.631959e-001 
-5.613160e-001 
-5.597805e-001 
-5.579982e-001 
-5.564105e-001 
-5.559165e-001 
-5.540050e-001 
-5.502530e-001 
-5.461572e-001 
-5.428745e-001 
-5.409188e-001 
-5.394341e-001 
-5.362896e-001 
-5.328784e-001 
-5.286402e-001 
-5.251857e-001 
-5.213560e-001 
-5.185332e-001 
-5.175052e-001 
-5.140979e-001 
-5.092929e-001 
-5.056306e-001 
-5.036145e-001 
-5.020583e-001 
-4.992622e-001 
-4.943625e-001 
-4.911413e-001 
-4.869414e-001 
-4.793033e-001 
-4.694508e-001 
-4.489663e-001 
-4.041185e-001 
-3.236910e-001 
-2.148203e-001 
-1.068128e-001 
-2.050407e-002 
4.677641e-002 
1.052629e-001 
1.616193e-001 
2.269209e-001 
3.065860e-001 
3.901782e-001 
4.434550e-001 
4.436028e-001 
4.079285e-001 
3.642135e-001 
3.171756e-001 
2.562372e-001 
1.730567e-001 
5.357521e-002 
-1.134880e-001 
-3.314778e-001 
-5.795964e-001 
-8.277939e-001 
-1.066430e+000 
-1.306314e+000 
-1.557270e+000 
-1.823920e+000 
-2.104373e+000 
-2.388291e+000 
-2.672815e+000 
-2.954124e+000 
-3.230899e+000 
-3.504971e+000 
-3.776352e+000 
-4.040467e+000 
-4.291738e+000 
-4.520881e+000 
-4.724693e+000 
-4.911085e+000 
-5.082849e+000 
-5.241525e+000 
-5.384736e+000 
-5.508763e+000 
-5.610319e+000 
-5.689741e+000 
-5.746907e+000 
-5.785928e+000 
-5.808869e+000 
-5.812568e+000 
-5.797213e+000 
-5.763819e+000 
-5.711215e+000 
-5.637469e+000 
-5.544224e+000 
-5.428743e+000 
-5.290501e+000 
-5.127807e+000 
-4.939092e+000 
-4.726209e+000 
-4.488148e+000 
-4.222179e+000 
-3.933511e+000 
-3.627820e+000 
-3.302787e+000 
-2.961283e+000 
-2.605165e+000 
-2.235793e+000 
-1.858956e+000 
-1.479472e+000 
-1.102733e+000 
-7.362985e-001 
-3.797605e-001 
-3.276354e-002 
2.970201e-001 
6.080086e-001 
8.987049e-001 
1.166067e+000 
1.410994e+000 
1.633517e+000 
1.832733e+000 
2.010815e+000 
2.168762e+000 
2.308040e+000 
2.432617e+000 
2.542607e+000 
2.639073e+000 
2.721754e+000 
2.791794e+000 
2.850994e+000 
2.903472e+000 
2.952554e+000 
2.998368e+000 
3.039521e+000 
3.076720e+000 
3.111129e+000 
3.143578e+000 
3.176542e+000 
3.207492e+000 
3.238095e+000 
3.268273e+000 
3.298075e+000 
3.328795e+000 
3.363008e+000 
3.398942e+000 
3.435464e+000 
3.471301e+000 
3.506923e+000 
3.545186e+000 
3.585390e+000 
3.627102e+000 
3.668354e+000 
3.709340e+000 
3.748730e+000 
3.786515e+000 
3.824145e+000 
3.861627e+000 
3.894644e+000 
3.922495e+000 
3.945150e+000 
3.962368e+000 
3.976084e+000 
3.983635e+000 
3.983121e+000 
3.976866e+000 
3.963583e+000 
3.941707e+000 
3.914547e+000 
3.881053e+000 
3.839660e+000 
3.790216e+000 
3.731202e+000 
3.666098e+000 
3.595474e+000 
3.517026e+000 
3.429998e+000 
3.335737e+000 
3.235085e+000 
3.129592e+000 
3.020316e+000 
2.907696e+000 
2.790872e+000 
2.667535e+000 
2.539846e+000 
2.409875e+000 
2.280223e+000 
2.150805e+000 
2.021064e+000 
1.890404e+000 
1.759794e+000 
1.629665e+000 
1.502356e+000 
1.378774e+000 
1.258822e+000 
1.141448e+000 
1.026983e+000 
9.182922e-001 
8.152343e-001 
7.161016e-001 
6.218320e-001 
5.315755e-001 
4.462661e-001 
3.681499e-001 
2.955820e-001 
2.299795e-001 
1.689075e-001 
1.098198e-001 
5.478583e-002 
6.163418e-003 
-3.793254e-002 
-7.565165e-002 
-1.096730e-001 
-1.409842e-001 
-1.688631e-001 
-1.946712e-001 
-2.157627e-001 
-2.317772e-001 
-2.462400e-001 
-2.598333e-001 
-2.708915e-001 
-2.798001e-001 
-2.848289e-001 
-2.891372e-001 
-2.936417e-001 
-2.959326e-001 
-2.977200e-001 
-2.988984e-001 
-2.974482e-001 
-2.945765e-001 
-2.929408e-001 
-2.927642e-001 
-2.941291e-001 
-2.942614e-001 
-2.913190e-001 
-2.885249e-001 
-2.864611e-001 
-2.844879e-001 
-2.844916e-001 
-2.858004e-001 
-2.848611e-001 
-2.825466e-001 
-2.817422e-001 
-2.826975e-001 
-2.854725e-001 
-2.880593e-001 
-2.890866e-001 
-2.915232e-001 
-2.948191e-001 
-2.974948e-001 
-3.009175e-001 
-3.056092e-001 
-3.083654e-001 
-3.122209e-001 
-3.176914e-001 
-3.236680e-001 
-3.314994e-001 
-3.390019e-001 
-3.447268e-001 
-3.495078e-001 
-3.562939e-001 
-3.649953e-001 
-3.755041e-001 
-3.831730e-001 
-3.890819e-001 
-3.962169e-001 
-4.046078e-001 
-4.126184e-001 
-4.216722e-001 
-4.327005e-001 
-4.407122e-001 
-4.461235e-001 
-4.518782e-001 
-4.593369e-001 
-4.677859e-001 
-4.763730e-001 
-4.820265e-001 
-4.867064e-001 
-4.914725e-001 
-4.956636e-001 
-5.023966e-001 
-5.090345e-001 
-5.126112e-001 
-5.164198e-001 
-5.202707e-001 
-5.224650e-001 
-5.257383e-001 
-5.303422e-001 
-5.335806e-001 
-5.355325e-001 
-5.366254e-001 
-5.384587e-001 
-5.419831e-001 
-5.435470e-001 
-5.426063e-001 
-5.430090e-001 
-5.441740e-001 
-5.439954e-001 
-5.442789e-001 
-5.451795e-001 
-5.453102e-001 
-5.440536e-001 
-5.421062e-001 
-5.414096e-001 
-5.427653e-001 
-5.433169e-001 
-5.419424e-001 
-5.416074e-001 
-5.421611e-001 
-5.416542e-001 
-5.419227e-001 
-5.427442e-001 
-5.423064e-001 
-5.420282e-001 
-5.412328e-001 
-5.409246e-001 
-5.425410e-001 
-5.415783e-001 
-5.381667e-001 
-5.363965e-001 
-5.345515e-001 
-5.326852e-001 
-5.324857e-001 
-5.305766e-001 
-5.277925e-001 
-5.227686e-001 
-5.161028e-001 
-5.127799e-001 
-5.112283e-001 
-5.080896e-001 
-5.035108e-001 
-4.982938e-001 
-4.935142e-001 
-4.903222e-001 
-4.869652e-001 
-4.848920e-001 
-4.825547e-001 
-4.778920e-001 
-4.732001e-001 
-4.694188e-001 
-4.676662e-001 
-4.672481e-001 
-4.648084e-001 
-4.603028e-001 
-4.569059e-001 
-4.526884e-001 
-4.474932e-001 
-4.428507e-001 
-4.361861e-001 
-4.254887e-001 
-4.040496e-001 
-3.594189e-001 
-2.822055e-001 
-1.788377e-001 
-7.414682e-002 
6.889447e-003 
6.512313e-002 
1.151422e-001 
1.641276e-001 
2.212093e-001 
2.935251e-001 
3.677754e-001 
4.070077e-001 
3.887647e-001 
3.332420e-001 
2.714924e-001 
2.078478e-001 
1.269240e-001 
1.868449e-002 
-1.266445e-001 
-3.203509e-001 
-5.613685e-001 
-8.238811e-001 
-1.083347e+000 
-1.340026e+000 
-1.605149e+000 
-1.884670e+000 
-2.171937e+000 
-2.459941e+000 
-2.744657e+000 
-3.026842e+000 
-3.306343e+000 
-3.585166e+000 
-3.860877e+000 
-4.123297e+000 
-4.365747e+000 
-4.585207e+000 
-4.783493e+000 
-4.962695e+000 
-5.126537e+000 
-5.274691e+000 
-5.408288e+000 
-5.522605e+000 
-5.612958e+000 
-5.682100e+000 
-5.731651e+000 
-5.763542e+000 
-5.777986e+000 
-5.776715e+000 
-5.760062e+000 
-5.725543e+000 
-5.669099e+000 
-5.591477e+000 
-5.492931e+000 
-5.372110e+000 
-5.225773e+000 
-5.050212e+000 
-4.845827e+000 
-4.611509e+000 
-4.347986e+000 
-4.059659e+000 
-3.747213e+000 
-3.411419e+000 
-3.053237e+000 
-2.673095e+000 
-2.276865e+000 
-1.871160e+000 
-1.460955e+000 
-1.054643e+000 
-6.560193e-001 
-2.665167e-001 
1.068084e-001 
4.600874e-001 
7.904943e-001 
1.095483e+000 
1.374476e+000 
1.626495e+000 
1.850095e+000 
2.047243e+000 
2.219886e+000 
2.369659e+000 
2.500346e+000 
2.615164e+000 
2.715222e+000 
2.799526e+000 
2.870325e+000 
2.930573e+000 
2.984080e+000 
3.036229e+000 
3.087058e+000 
3.135790e+000 
3.184100e+000 
3.231283e+000 
3.276086e+000 
3.322690e+000 
3.370312e+000 
3.417438e+000 
3.464703e+000 
3.510901e+000 
3.558612e+000 
3.607353e+000 
3.654830e+000 
3.701709e+000 
3.750492e+000 
3.798347e+000 
3.844239e+000 
3.889496e+000 
3.935420e+000 
3.979904e+000 
4.020793e+000 
4.059609e+000 
4.097163e+000 
4.134093e+000 
4.166709e+000 
4.193821e+000 
4.216977e+000 
4.236790e+000 
4.252896e+000 
4.263811e+000 
4.267916e+000 
4.266088e+000 
4.257356e+000 
4.240363e+000 
4.215936e+000 
4.184616e+000 
4.147626e+000 
4.100679e+000 
4.042166e+000 
3.976056e+000 
3.902586e+000 
3.821974e+000 
3.733772e+000 
3.635056e+000 
3.527373e+000 
3.411398e+000 
3.286505e+000 
3.157486e+000 
3.023078e+000 
2.881788e+000 
2.736091e+000 
2.585666e+000 
2.432856e+000 
2.278911e+000 
2.124861e+000 
1.971542e+000 
1.818446e+000 
1.667729e+000 
1.522482e+000 
1.383000e+000 
1.249632e+000 
1.120954e+000 
9.957692e-001 
8.786961e-001 
7.693179e-001 
6.686722e-001 
5.779113e-001 
4.935056e-001 
4.135373e-001 
3.395013e-001 
2.723755e-001 
2.121408e-001 
1.600961e-001 
1.125086e-001 
6.909893e-002 
2.910865e-002 
-7.785975e-003 
-4.000650e-002 
-6.665848e-002 
-9.081661e-002 
-1.138576e-001 
-1.339678e-001 
-1.517891e-001 
-1.653094e-001 
-1.758927e-001 
-1.829420e-001 
-1.887678e-001 
-1.951592e-001 
-2.012452e-001 
-2.049718e-001 
-2.056933e-001 
-2.063260e-001 
-2.076138e-001 
-2.072960e-001 
-2.051403e-001 
-2.037448e-001 
-2.018728e-001 
-2.009936e-001 
-1.990259e-001 
-1.962076e-001 
-1.965612e-001 
-1.939851e-001 
-1.892460e-001 
-1.881197e-001 
-1.892815e-001 
-1.921584e-001 
-1.944934e-001 
-1.933588e-001 
-1.942728e-001 
-1.972556e-001 
-1.980203e-001 
-2.014903e-001 
-2.067604e-001 
-2.121560e-001 
-2.167895e-001 
-2.206550e-001 
-2.267160e-001 
-2.345283e-001 
-2.412878e-001 
-2.465190e-001 
-2.530228e-001 
-2.612176e-001 
-2.697088e-001 
-2.771751e-001 
-2.850369e-001 
-2.921658e-001 
-2.976997e-001 
-3.036742e-001 
-3.109335e-001 
-3.197395e-001 
-3.278495e-001 
-3.339375e-001 
-3.393403e-001 
-3.450124e-001 
-3.511677e-001 
-3.570912e-001 
-3.629991e-001 
-3.674568e-001 
-3.715626e-001 
-3.763942e-001 
-3.810974e-001 
-3.846465e-001 
-3.876181e-001 
-3.894001e-001 
-3.907811e-001 
-3.935301e-001 
-3.972866e-001 
-4.022394e-001 
-4.054444e-001 
-4.052947e-001 
-4.040486e-001 
-4.053693e-001 
-4.073880e-001 
-4.100730e-001 
-4.130086e-001 
-4.142204e-001 
-4.134377e-001 
-4.129014e-001 
-4.136149e-001 
-4.158213e-001 
-4.185880e-001 
-4.180033e-001 
-4.172639e-001 
-4.175067e-001 
-4.163436e-001 
-4.157367e-001 
-4.165262e-001 
-4.151304e-001 
-4.132756e-001 
-4.121559e-001 
-4.110489e-001 
-4.122502e-001 
-4.126664e-001 
-4.115688e-001 
-4.110102e-001 
-4.097263e-001 
-4.079745e-001 
-4.080372e-001 
-4.077165e-001 
-4.059413e-001 
-4.043631e-001 
-4.035960e-001 
-4.038509e-001 
-4.037320e-001 
-4.032487e-001 
-4.014477e-001 
-3.986800e-001 
-3.974886e-001 
-3.974480e-001 
-3.985854e-001 
-3.988455e-001 
-3.963744e-001 
-3.941874e-001 
-3.929417e-001 
-3.915774e-001 
-3.923250e-001 
-3.937586e-001 
-3.931493e-001 
-3.918993e-001 
-3.895393e-001 
-3.881565e-001 
-3.884994e-001 
-3.873488e-001 
-3.847087e-001 
-3.810034e-001 
-3.770585e-001 
-3.736493e-001 
-3.686285e-001 
-3.561805e-001 
-3.266719e-001 
-2.623441e-001 
-1.654402e-001 
-6.617460e-002 
1.169707e-002 
6.666427e-002 
1.126846e-001 
1.574140e-001 
2.057142e-001 
2.684856e-001 
3.417700e-001 
3.831733e-001 
3.634019e-001 
3.009411e-001 
2.268500e-001 
1.485151e-001 
5.250356e-002 
-6.895651e-002 
-2.203939e-001 
-4.185752e-001 
-6.725800e-001 
-9.580313e-001 
-1.245113e+000 
-1.526600e+000 
-1.814856e+000 
-2.116040e+000 
-2.422601e+000 
-2.726740e+000 
-3.026799e+000 
-3.321626e+000 
-3.607686e+000 
-3.884817e+000 
-4.153186e+000 
-4.407630e+000 
-4.637855e+000 
-4.839280e+000 
-5.015626e+000 
-5.173484e+000 
-5.315753e+000 
-5.441277e+000 
-5.550180e+000 
-5.638276e+000 
-5.701982e+000 
-5.742045e+000 
-5.762914e+000 
-5.765664e+000 
-5.749277e+000 
-5.710828e+000 
-5.648042e+000 
-5.560147e+000 
-5.444457e+000 
-5.300064e+000 
-5.124731e+000 
-4.917668e+000 
-4.676301e+000 
-4.403383e+000 
-4.102296e+000 
-3.774999e+000 
-3.422231e+000 
-3.045370e+000 
-2.646814e+000 
-2.233841e+000 
-1.813886e+000 
-1.389960e+000 
-9.714703e-001 
-5.635373e-001 
-1.688299e-001 
2.076362e-001 
5.610169e-001 
8.892455e-001 
1.187250e+000 
1.455480e+000 
1.696016e+000 
1.906385e+000 
2.089589e+000 
2.248404e+000 
2.386514e+000 
2.507246e+000 
2.611967e+000 
2.699883e+000 
2.775296e+000 
2.842622e+000 
2.902013e+000 
2.956486e+000 
3.010631e+000 
3.065582e+000 
3.117868e+000 
3.167437e+000 
3.215462e+000 
3.265612e+000 
3.317301e+000 
3.366101e+000 
3.414766e+000 
3.465002e+000 
3.514524e+000 
3.563438e+000 
3.613720e+000 
3.666150e+000 
3.718103e+000 
3.765899e+000 
3.811990e+000 
3.858355e+000 
3.903521e+000 
3.946579e+000 
3.984571e+000 
4.019910e+000 
4.052751e+000 
4.078768e+000 
4.101399e+000 
4.121413e+000 
4.133784e+000 
4.139228e+000 
4.137163e+000 
4.127586e+000 
4.114203e+000 
4.091915e+000 
4.058253e+000 
4.018670e+000 
3.971630e+000 
3.915634e+000 
3.853407e+000 
3.784546e+000 
3.707876e+000 
3.622135e+000 
3.526146e+000 
3.423169e+000 
3.317378e+000 
3.204366e+000 
3.082440e+000 
2.955371e+000 
2.823371e+000 
2.686772e+000 
2.547842e+000 
2.405670e+000 
2.262025e+000 
2.117968e+000 
1.970029e+000 
1.823230e+000 
1.681038e+000 
1.540656e+000 
1.402732e+000 
1.267110e+000 
1.135022e+000 
1.011116e+000 
8.940468e-001 
7.834445e-001 
6.809395e-001 
5.840549e-001 
4.930773e-001 
4.096121e-001 
3.323020e-001 
2.626090e-001 
1.991241e-001 
1.403125e-001 
8.810902e-002 
4.123456e-002 
-7.750128e-005 
-3.610774e-002 
-6.970101e-002 
-1.010000e-001 
-1.279471e-001 
-1.519373e-001 
-1.709339e-001 
-1.866678e-001 
-2.028986e-001 
-2.186705e-001 
-2.330171e-001 
-2.448555e-001 
-2.529442e-001 
-2.596832e-001 
-2.651517e-001 
-2.684834e-001 
-2.734284e-001 
-2.776255e-001 
-2.784086e-001 
-2.772889e-001 
-2.748806e-001 
-2.742616e-001 
-2.743572e-001 
-2.712614e-001 
-2.675135e-001 
-2.647592e-001 
-2.608960e-001 
-2.575319e-001 
-2.546294e-001 
-2.520286e-001 
-2.505298e-001 
-2.479255e-001 
-2.469932e-001 
-2.469266e-001 
-2.471503e-001 
-2.475429e-001 
-2.479001e-001 
-2.495337e-001 
-2.532200e-001 
-2.578093e-001 
-2.634603e-001 
-2.684988e-001 
-2.701916e-001 
-2.737505e-001 
-2.796303e-001 
-2.861038e-001 
-2.944550e-001 
-3.023074e-001 
-3.081055e-001 
-3.142474e-001 
-3.201567e-001 
-3.267849e-001 
-3.361121e-001 
-3.443063e-001 
-3.509755e-001 
-3.583802e-001 
-3.638240e-001 
-3.704774e-001 
-3.791768e-001 
-3.862191e-001 
-3.922022e-001 
-3.985509e-001 
-4.052074e-001 
-4.126240e-001 
-4.198149e-001 
-4.248926e-001 
-4.306141e-001 
-4.356275e-001 
-4.395364e-001 
-4.441583e-001 
-4.508153e-001 
-4.572270e-001 
-4.610346e-001 
-4.636103e-001 
-4.662211e-001 
-4.706625e-001 
-4.749333e-001 
-4.776085e-001 
-4.802190e-001 
-4.832123e-001 
-4.841739e-001 
-4.836427e-001 
-4.841144e-001 
-4.859550e-001 
-4.864479e-001 
-4.857681e-001 
-4.859449e-001 
-4.869856e-001 
-4.878063e-001 
-4.864957e-001 
-4.847484e-001 
-4.845324e-001 
-4.851656e-001 
-4.848162e-001 
-4.852208e-001 
-4.859276e-001 
-4.858237e-001 
-4.839653e-001 
-4.826810e-001 
-4.828904e-001 
-4.825720e-001 
-4.823795e-001 
-4.808414e-001 
-4.794101e-001 
-4.792427e-001 
-4.781962e-001 
-4.765755e-001 
-4.760525e-001 
-4.736446e-001 
-4.706584e-001 
-4.701871e-001 
-4.691219e-001 
-4.686246e-001 
-4.681377e-001 
-4.654373e-001 
-4.625542e-001 
-4.608652e-001 
-4.596960e-001 
-4.599083e-001 
-4.602190e-001 
-4.584074e-001 
-4.567297e-001 
-4.555822e-001 
-4.539867e-001 
-4.524564e-001 
-4.508651e-001 
-4.482440e-001 
-4.449986e-001 
-4.417004e-001 
-4.390075e-001 
-4.363049e-001 
-4.322554e-001 
-4.237324e-001 
-4.120695e-001 
-3.947437e-001 
-3.573644e-001 
-2.827286e-001 
-1.767436e-001 
-7.125119e-002 
9.274988e-003 
6.894003e-002 
1.197031e-001 
1.663615e-001 
2.200595e-001 
2.922653e-001 
3.719464e-001 
4.123613e-001 
3.847615e-001 
3.168338e-001 
2.442829e-001 
1.668737e-001 
7.145106e-002 
-5.144500e-002 
-2.104381e-001 
-4.197329e-001 
-6.840074e-001 
-9.752302e-001 
-1.262463e+000 
-1.547687e+000 
-1.844516e+000 
-2.151627e+000 
-2.460783e+000 
-2.765132e+000 
-3.065727e+000 
-3.363891e+000 
-3.657129e+000 
-3.943250e+000 
-4.219594e+000 
-4.474500e+000 
-4.699634e+000 
-4.898936e+000 
-5.078062e+000 
-5.241482e+000 
-5.388555e+000 
-5.513883e+000 
-5.616435e+000 
-5.696507e+000 
-5.750647e+000 
-5.780659e+000 
-5.787891e+000 
-5.770918e+000 
-5.728574e+000 
-5.658714e+000 
-5.559069e+000 
-5.430464e+000 
-5.271824e+000 
-5.078568e+000 
-4.850371e+000 
-4.591383e+000 
-4.304866e+000 
-3.991064e+000 
-3.651480e+000 
-3.287163e+000 
-2.901813e+000 
-2.497274e+000 
-2.077779e+000 
-1.654725e+000 
-1.237163e+000 
-8.267619e-001 
-4.270727e-001 
-4.544797e-002 
3.153172e-001 
6.540127e-001 
9.684113e-001 
1.252377e+000 
1.502885e+000 
1.722087e+000 
1.915711e+000 
2.085576e+000 
2.234171e+000 
2.366633e+000 
2.480881e+000 
2.575707e+000 
2.656178e+000 
2.724975e+000 
2.786404e+000 
2.846863e+000 
2.904389e+000 
2.960852e+000 
3.016020e+000 
3.066604e+000 
3.119131e+000 
3.174883e+000 
3.228584e+000 
3.282522e+000 
3.335556e+000 
3.386511e+000 
3.438881e+000 
3.491453e+000 
3.543825e+000 
3.596858e+000 
3.646423e+000 
3.694233e+000 
3.742273e+000 
3.787969e+000 
3.832276e+000 
3.873214e+000 
3.910746e+000 
3.943489e+000 
3.971608e+000 
3.996655e+000 
4.018045e+000 
4.032266e+000 
4.039013e+000 
4.039282e+000 
4.032667e+000 
4.020090e+000 
3.999712e+000 
3.971885e+000 
3.934306e+000 
3.887394e+000 
3.832492e+000 
3.769800e+000 
3.698517e+000 
3.617978e+000 
3.529592e+000 
3.434198e+000 
3.330595e+000 
3.220865e+000 
3.106637e+000 
2.984537e+000 
2.856740e+000 
2.724819e+000 
2.590016e+000 
2.455133e+000 
2.317459e+000 
2.176746e+000 
2.037518e+000 
1.896467e+000 
1.756696e+000 
1.623150e+000 
1.492182e+000 
1.363692e+000 
1.238681e+000 
1.116921e+000 
1.001012e+000 
8.916648e-001 
7.870229e-001 
6.891477e-001 
5.964040e-001 
5.073828e-001 
4.253439e-001 
3.515247e-001 
2.831809e-001 
2.186574e-001 
1.597469e-001 
1.060127e-001 
5.737545e-002 
1.390857e-002 
-2.436791e-002 
-5.771345e-002 
-8.814114e-002 
-1.176073e-001 
-1.421778e-001 
-1.610951e-001 
-1.775518e-001 
-1.922482e-001 
-2.059268e-001 
-2.165164e-001 
-2.251706e-001 
-2.328031e-001 
-2.380416e-001 
-2.410302e-001 
-2.446025e-001 
-2.479583e-001 
-2.503338e-001 
-2.497640e-001 
-2.473359e-001 
-2.468237e-001 
-2.461081e-001 
-2.444397e-001 
-2.425053e-001 
-2.388081e-001 
-2.328742e-001 
-2.272997e-001 
-2.216933e-001 
-2.168774e-001 
-2.121618e-001 
-2.049115e-001 
-1.982935e-001 
-1.930350e-001 
-1.865495e-001 
-1.810066e-001 
-1.779357e-001 
-1.738142e-001 
-1.702897e-001 
-1.693511e-001 
-1.702788e-001 
-1.744691e-001 
-1.785304e-001 
-1.821675e-001 
-1.897327e-001 
-2.009182e-001 
-2.129887e-001 
-2.281065e-001 
-2.450688e-001 
-2.614237e-001 
-2.776782e-001 
-2.961626e-001 
-3.177300e-001 
-3.401110e-001 
-3.615840e-001 
-3.804103e-001 
-3.985502e-001 
-4.164846e-001 
-4.320393e-001 
-4.478200e-001 
-4.643709e-001 
-4.766224e-001 
-4.856008e-001 
-4.939367e-001 
-5.019026e-001 
-5.097659e-001 
-5.155553e-001 
-5.176769e-001 
-5.205981e-001 
-5.241876e-001 
-5.259195e-001 
-5.278983e-001 
-5.294355e-001 
-5.305268e-001 
-5.311011e-001 
-5.314270e-001 
-5.326227e-001 
-5.371191e-001 
-5.408341e-001 
-5.421238e-001 
-5.434894e-001 
-5.449872e-001 
-5.475333e-001 
-5.489541e-001 
-5.492490e-001 
-5.501272e-001 
-5.523018e-001 
-5.536109e-001 
-5.551565e-001 
-5.567768e-001 
-5.575050e-001 
-5.572103e-001 
-5.547601e-001 
-5.541447e-001 
-5.558978e-001 
-5.562287e-001 
-5.546403e-001 
-5.513020e-001 
-5.480970e-001 
-5.464003e-001 
-5.447081e-001 
-5.430840e-001 
-5.428081e-001 
-5.396806e-001 
-5.348997e-001 
-5.328757e-001 
-5.311992e-001 
-5.303983e-001 
-5.286114e-001 
-5.238060e-001 
-5.193242e-001 
-5.159006e-001 
-5.131368e-001 
-5.136024e-001 
-5.132782e-001 
-5.090679e-001 
-5.056969e-001 
-5.017098e-001 
-4.972139e-001 
-4.948641e-001 
-4.928581e-001 
-4.901973e-001 
-4.865989e-001 
-4.822402e-001 
-4.796845e-001 
-4.779290e-001 
-4.740446e-001 
-4.696104e-001 
-4.666066e-001 
-4.637172e-001 
-4.597050e-001 
-4.549537e-001 
-4.487002e-001 
-4.380513e-001 
-4.217710e-001 
-3.963367e-001 
-3.499175e-001 
-2.748729e-001 
-1.837570e-001 
-1.036652e-001 
-4.467821e-002 
1.785683e-003 
4.326324e-002 
8.314802e-002 
1.308599e-001 
1.889607e-001 
2.350677e-001 
2.315364e-001 
1.733865e-001 
9.208829e-002 
3.897570e-003 
-9.856117e-002 
-2.246264e-001 
-3.802203e-001 
-5.756948e-001 
-8.196438e-001 
-1.103662e+000 
-1.398674e+000 
-1.689107e+000 
-1.980807e+000 
-2.278758e+000 
-2.579625e+000 
-2.875830e+000 
-3.164901e+000 
-3.448499e+000 
-3.725504e+000 
-3.991230e+000 
-4.242619e+000 
-4.473985e+000 
-4.680522e+000 
-4.861645e+000 
-5.020231e+000 
-5.163672e+000 
-5.294152e+000 
-5.405136e+000 
-5.492568e+000 
-5.560240e+000 
-5.609921e+000 
-5.640901e+000 
-5.652346e+000 
-5.644669e+000 
-5.619033e+000 
-5.572863e+000 
-5.503840e+000 
-5.415110e+000 
-5.308084e+000 
-5.175820e+000 
-5.012105e+000 
-4.818130e+000 
-4.598256e+000 
-4.354494e+000 
-4.085894e+000 
-3.794054e+000 
-3.479326e+000 
-3.141789e+000 
-2.783787e+000 
-2.411238e+000 
-2.031537e+000 
-1.647306e+000 
-1.261197e+000 
-8.780196e-001 
-5.031920e-001 
-1.380577e-001 
2.126482e-001 
5.445736e-001 
8.555045e-001 
1.144313e+000 
1.409315e+000 
1.648495e+000 
1.863012e+000 
2.055161e+000 
2.228474e+000 
2.382700e+000 
2.518708e+000 
2.639310e+000 
2.747163e+000 
2.843538e+000 
2.930851e+000 
3.011256e+000 
3.085478e+000 
3.156835e+000 
3.225831e+000 
3.292517e+000 
3.360502e+000 
3.428958e+000 
3.495059e+000 
3.558580e+000 
3.619981e+000 
3.680610e+000 
3.742625e+000 
3.803429e+000 
3.861140e+000 
3.917947e+000 
3.971191e+000 
4.021321e+000 
4.069810e+000 
4.115167e+000 
4.156849e+000 
4.195757e+000 
4.229277e+000 
4.258664e+000 
4.284934e+000 
4.303855e+000 
4.316082e+000 
4.321167e+000 
4.319187e+000 
4.312076e+000 
4.300232e+000 
4.279797e+000 
4.250374e+000 
4.211529e+000 
4.162995e+000 
4.107740e+000 
4.046321e+000 
3.977496e+000 
3.901316e+000 
3.817105e+000 
3.723343e+000 
3.622683e+000 
3.517660e+000 
3.406462e+000 
3.290454e+000 
3.169519e+000 
3.042978e+000 
2.915054e+000 
2.785080e+000 
2.651719e+000 
2.517313e+000 
2.381819e+000 
2.244382e+000 
2.108825e+000 
1.973586e+000 
1.840810e+000 
1.709996e+000 
1.578773e+000 
1.451332e+000 
1.329321e+000 
1.211898e+000 
1.098654e+000 
9.888771e-001 
8.823419e-001 
7.818838e-001 
6.852095e-001 
5.966304e-001 
5.159055e-001 
4.379440e-001 
3.633181e-001 
2.933435e-001 
2.278142e-001 
1.681398e-001 
1.138503e-001 
6.339725e-002 
1.852710e-002 
-2.428509e-002 
-6.582521e-002 
-1.017136e-001 
-1.333054e-001 
-1.643728e-001 
-1.924021e-001 
-2.175412e-001 
-2.394285e-001 
-2.586353e-001 
-2.777881e-001 
-2.947762e-001 
-3.077266e-001 
-3.207211e-001 
-3.313533e-001 
-3.388276e-001 
-3.451049e-001 
-3.504814e-001 
-3.570821e-001 
-3.617044e-001 
-3.628970e-001 
-3.634360e-001 
-3.627898e-001 
-3.620691e-001 
-3.632445e-001 
-3.629040e-001 
-3.621667e-001 
-3.596447e-001 
-3.543858e-001 
-3.514551e-001 
-3.489572e-001 
-3.455346e-001 
-3.438549e-001 
-3.396910e-001 
-3.350794e-001 
-3.326033e-001 
-3.293074e-001 
-3.269755e-001 
-3.253887e-001 
-3.215835e-001 
-3.187847e-001 
-3.177932e-001 
-3.165725e-001 
-3.176094e-001 
-3.182784e-001 
-3.180530e-001 
-3.178667e-001 
-3.187780e-001 
-3.210738e-001 
-3.247684e-001 
-3.289967e-001 
-3.319926e-001 
-3.357261e-001 
-3.410222e-001 
-3.468839e-001 
-3.522637e-001 
-3.585870e-001 
-3.637961e-001 
-3.692305e-001 
-3.756467e-001 
-3.816632e-001 
-3.891945e-001 
-3.967304e-001 
-4.020406e-001 
-4.072162e-001 
-4.137349e-001 
-4.205351e-001 
-4.272399e-001 
-4.325913e-001 
-4.366631e-001 
-4.414931e-001 
-4.464767e-001 
-4.513778e-001 
-4.560461e-001 
-4.599391e-001 
-4.615658e-001 
-4.626571e-001 
-4.647995e-001 
-4.662928e-001 
-4.681878e-001 
-4.690227e-001 
-4.670373e-001 
-4.635319e-001 
-4.605742e-001 
-4.583648e-001 
-4.570646e-001 
-4.535447e-001 
-4.482313e-001 
-4.442733e-001 
-4.407356e-001 
-4.376533e-001 
-4.365442e-001 
-4.360981e-001 
-4.356622e-001 
-4.356093e-001 
-4.368038e-001 
-4.410559e-001 
-4.478643e-001 
-4.557360e-001 
-4.644972e-001 
-4.741654e-001 
-4.851318e-001 
-4.976863e-001 
-5.113651e-001 
-5.254712e-001 
-5.389213e-001 
-5.528008e-001 
-5.671709e-001 
-5.800581e-001 
-5.903453e-001 
-5.981257e-001 
-6.036173e-001 
-6.087862e-001 
-6.136087e-001 
-6.170575e-001 
-6.198548e-001 
-6.201568e-001 
-6.148239e-001 
-6.086803e-001 
-6.042123e-001 
-6.000910e-001 
-5.965228e-001 
-5.915008e-001 
-5.834239e-001 
-5.754328e-001 
-5.677486e-001 
-5.596039e-001 
-5.547507e-001 
-5.498456e-001 
-5.430697e-001 
-5.368050e-001 
-5.295340e-001 
-5.208996e-001 
-5.125590e-001 
-4.988174e-001 
-4.744668e-001 
-4.343261e-001 
-3.658818e-001 
-2.687334e-001 
-1.672615e-001 
-8.567373e-002 
-2.481100e-002 
2.678248e-002 
7.835171e-002 
1.342587e-001 
2.015000e-001 
2.806158e-001 
3.424710e-001 
3.545068e-001 
3.272288e-001 
2.921816e-001 
2.547832e-001 
2.025928e-001 
1.236907e-001 
9.383073e-003 
-1.542657e-001 
-3.757891e-001 
-6.379102e-001 
-9.098430e-001 
-1.175949e+000 
-1.443192e+000 
-1.719187e+000 
-2.003217e+000 
-2.293891e+000 
-2.592384e+000 
-2.895497e+000 
-3.200503e+000 
-3.499214e+000 
-3.782701e+000 
-4.051756e+000 
-4.303014e+000 
-4.534171e+000 
-4.747148e+000 
-4.939612e+000 
-5.109098e+000 
-5.253747e+000 
-5.370334e+000 
-5.466052e+000 
-5.548753e+000 
-5.617680e+000 
-5.673401e+000 
-5.713299e+000 
-5.732464e+000 
-5.729310e+000 
-5.702880e+000 
-5.654477e+000 
-5.587233e+000 
-5.499250e+000 
-5.385014e+000 
-5.241056e+000 
-5.067859e+000 
-4.864728e+000 
-4.634056e+000 
-4.377631e+000 
-4.094250e+000 
-3.784987e+000 
-3.451799e+000 
-3.095996e+000 
-2.723134e+000 
-2.337397e+000 
-1.940899e+000 
-1.539923e+000 
-1.139249e+000 
-7.443178e-001 
-3.590987e-001 
1.194186e-002 
3.659881e-001 
7.007523e-001 
1.014335e+000 
1.303817e+000 
1.567455e+000 
1.803793e+000 
2.015253e+000 
2.205841e+000 
2.374852e+000 
2.525085e+000 
2.660495e+000 
2.781922e+000 
2.890313e+000 
2.987452e+000 
3.076096e+000 
3.159118e+000 
3.238039e+000 
3.313846e+000 
3.389023e+000 
3.464693e+000 
3.538410e+000 
3.609348e+000 
3.679765e+000 
3.749537e+000 
3.816937e+000 
3.884054e+000 
3.949231e+000 
4.012036e+000 
4.072113e+000 
4.127777e+000 
4.180745e+000 
4.231965e+000 
4.277618e+000 
4.317906e+000 
4.353289e+000 
4.382651e+000 
4.408135e+000 
4.428230e+000 
4.440372e+000 
4.444507e+000 
4.439614e+000 
4.426656e+000 
4.407413e+000 
4.380714e+000 
4.346107e+000 
4.302978e+000 
4.248719e+000 
4.183503e+000 
4.111400e+000 
4.033183e+000 
3.947856e+000 
3.853595e+000 
3.750723e+000 
3.640787e+000 
3.523994e+000 
3.399421e+000 
3.269797e+000 
3.136918e+000 
2.997890e+000 
2.854121e+000 
2.708132e+000 
2.561412e+000 
2.413605e+000 
2.263084e+000 
2.111604e+000 
1.961801e+000 
1.813931e+000 
1.668222e+000 
1.527003e+000 
1.388729e+000 
1.253398e+000 
1.121670e+000 
9.951150e-001 
8.755353e-001 
7.621486e-001 
6.541919e-001 
5.527352e-001 
4.575362e-001 
3.666371e-001 
2.832950e-001 
2.061093e-001 
1.332541e-001 
6.606856e-002 
4.159316e-003 
-5.200732e-002 
-1.005729e-001 
-1.455373e-001 
-1.873414e-001 
-2.250836e-001 
-2.600575e-001 
-2.902940e-001 
-3.143869e-001 
-3.360003e-001 
-3.558556e-001 
-3.740700e-001 
-3.917109e-001 
-4.066226e-001 
-4.190740e-001 
-4.277799e-001 
-4.345701e-001 
-4.412977e-001 
-4.485003e-001 
-4.538862e-001 
-4.567138e-001 
-4.577464e-001 
-4.598711e-001 
-4.618428e-001 
-4.618385e-001 
-4.617563e-001 
-4.594471e-001 
-4.560710e-001 
-4.525197e-001 
-4.496574e-001 
-4.473013e-001 
-4.439337e-001 
-4.382297e-001 
-4.313267e-001 
-4.249336e-001 
-4.183674e-001 
-4.131528e-001 
-4.092709e-001 
-4.039239e-001 
-3.959289e-001 
-3.889283e-001 
-3.834754e-001 
-3.779641e-001 
-3.733681e-001 
-3.683057e-001 
-3.646759e-001 
-3.627437e-001 
-3.599101e-001 
-3.574523e-001 
-3.569729e-001 
-3.556773e-001 
-3.544517e-001 
-3.557165e-001 
-3.581822e-001 
-3.621499e-001 
-3.655057e-001 
-3.684994e-001 
-3.723944e-001 
-3.780595e-001 
-3.852177e-001 
-3.930289e-001 
-4.006998e-001 
-4.068792e-001 
-4.117930e-001 
-4.176236e-001 
-4.256103e-001 
-4.331632e-001 
-4.402302e-001 
-4.468127e-001 
-4.525556e-001 
-4.594516e-001 
-4.669837e-001 
-4.738770e-001 
-4.809600e-001 
-4.877327e-001 
-4.933856e-001 
-4.997843e-001 
-5.058817e-001 
-5.119356e-001 
-5.183640e-001 
-5.235198e-001 
-5.286210e-001 
-5.348331e-001 
-5.426224e-001 
-5.499103e-001 
-5.553660e-001 
-5.587510e-001 
-5.621211e-001 
-5.669778e-001 
-5.725633e-001 
-5.765571e-001 
-5.790166e-001 
-5.806612e-001 
-5.814232e-001 
-5.820980e-001 
-5.835367e-001 
-5.865219e-001 
-5.891729e-001 
-5.885064e-001 
-5.849256e-001 
-5.838684e-001 
-5.850144e-001 
-5.856971e-001 
-5.843803e-001 
-5.830591e-001 
-5.819830e-001 
-5.807661e-001 
-5.788261e-001 
-5.783616e-001 
-5.798087e-001 
-5.790568e-001 
-5.756784e-001 
-5.727527e-001 
-5.715115e-001 
-5.690024e-001 
-5.652205e-001 
-5.597415e-001 
-5.541108e-001 
-5.484610e-001 
-5.417552e-001 
-5.339592e-001 
-5.264618e-001 
-5.175353e-001 
-5.081250e-001 
-4.995395e-001 
-4.906829e-001 
-4.826226e-001 
-4.743617e-001 
-4.643044e-001 
-4.555093e-001 
-4.499521e-001 
-4.468520e-001 
-4.452247e-001 
-4.424493e-001 
-4.382945e-001 
-4.338279e-001 
-4.264600e-001 
-4.109056e-001 
-3.763149e-001 
-3.070405e-001 
-2.103104e-001 
-1.174365e-001 
-5.035918e-002 
-4.332426e-003 
3.281213e-002 
6.998687e-002 
1.144242e-001 
1.733154e-001 
2.364291e-001 
2.606916e-001 
2.234238e-001 
1.522370e-001 
7.883383e-002 
7.002618e-004 
-9.794050e-002 
-2.259687e-001 
-3.879137e-001 
-5.939445e-001 
-8.479352e-001 
-1.124834e+000 
-1.398280e+000 
-1.666803e+000 
-1.944469e+000 
-2.233688e+000 
-2.524043e+000 
-2.809504e+000 
-3.092870e+000 
-3.376134e+000 
-3.657945e+000 
-3.933604e+000 
-4.196453e+000 
-4.443574e+000 
-4.669339e+000 
-4.870142e+000 
-5.050909e+000 
-5.216951e+000 
-5.367513e+000 
-5.502141e+000 
-5.616972e+000 
-5.710158e+000 
-5.781902e+000 
-5.829999e+000 
-5.853858e+000 
-5.855526e+000 
-5.835198e+000 
-5.789662e+000 
-5.720787e+000 
-5.625536e+000 
-5.501920e+000 
-5.350421e+000 
-5.170788e+000 
-4.962079e+000 
-4.724574e+000 
-4.459132e+000 
-4.169037e+000 
-3.857536e+000 
-3.521668e+000 
-3.166228e+000 
-2.796293e+000 
-2.413586e+000 
-2.021023e+000 
-1.626518e+000 
-1.236872e+000 
-8.575846e-001 
-4.892577e-001 
-1.341145e-001 
2.021218e-001 
5.165469e-001 
8.083659e-001 
1.076923e+000 
1.319983e+000 
1.538984e+000 
1.735569e+000 
1.911872e+000 
2.067365e+000 
2.203976e+000 
2.323703e+000 
2.431691e+000 
2.528766e+000 
2.613414e+000 
2.687747e+000 
2.756361e+000 
2.820775e+000 
2.882122e+000 
2.944216e+000 
3.005846e+000 
3.066092e+000 
3.124168e+000 
3.181288e+000 
3.239672e+000 
3.299293e+000 
3.356929e+000 
3.413487e+000 
3.469835e+000 
3.523623e+000 
3.576323e+000 
3.630368e+000 
3.682832e+000 
3.730122e+000 
3.773294e+000 
3.814011e+000 
3.853390e+000 
3.890141e+000 
3.921933e+000 
3.950682e+000 
3.974631e+000 
3.991239e+000 
4.001756e+000 
4.009458e+000 
4.012401e+000 
4.007962e+000 
3.995121e+000 
3.975006e+000 
3.949075e+000 
3.915871e+000 
3.875201e+000 
3.826468e+000 
3.770409e+000 
3.705767e+000 
3.634237e+000 
3.555550e+000 
3.469944e+000 
3.376185e+000 
3.274805e+000 
3.167086e+000 
3.054380e+000 
2.937211e+000 
2.814947e+000 
2.688079e+000 
2.556206e+000 
2.422959e+000 
2.288724e+000 
2.154149e+000 
2.020339e+000 
1.885499e+000 
1.749079e+000 
1.613886e+000 
1.480632e+000 
1.352650e+000 
1.230479e+000 
1.109649e+000 
9.931555e-001 
8.821329e-001 
7.751363e-001 
6.748564e-001 
5.807954e-001 
4.922862e-001 
4.114180e-001 
3.347033e-001 
2.618035e-001 
1.954977e-001 
1.342680e-001 
7.815132e-002 
2.662361e-002 
-2.093614e-002 
-6.221859e-002 
-9.734087e-002 
-1.308827e-001 
-1.634314e-001 
-1.937317e-001 
-2.183090e-001 
-2.400850e-001 
-2.603174e-001 
-2.770704e-001 
-2.913197e-001 
-3.049333e-001 
-3.182296e-001 
-3.289929e-001 
-3.351531e-001 
-3.377441e-001 
-3.434814e-001 
-3.479475e-001 
-3.501103e-001 
-3.516927e-001 
-3.512191e-001 
-3.491507e-001 
-3.470474e-001 
-3.440600e-001 
-3.417111e-001 
-3.402957e-001 
-3.342879e-001 
-3.292718e-001 
-3.256919e-001 
-3.213437e-001 
-3.171456e-001 
-3.122992e-001 
-3.073161e-001 
-3.031364e-001 
-2.991688e-001 
-2.958220e-001 
-2.949931e-001 
-2.918029e-001 
-2.868714e-001 
-2.820159e-001 
-2.797959e-001 
-2.797622e-001 
-2.794903e-001 
-2.791745e-001 
-2.779098e-001 
-2.754870e-001 
-2.742176e-001 
-2.750863e-001 
-2.767844e-001 
-2.794291e-001 
-2.811322e-001 
-2.829679e-001 
-2.856086e-001 
-2.883823e-001 
-2.919561e-001 
-2.964508e-001 
-2.996122e-001 
-3.026626e-001 
-3.072611e-001 
-3.136249e-001 
-3.205975e-001 
-3.265306e-001 
-3.317372e-001 
-3.372433e-001 
-3.437954e-001 
-3.506445e-001 
-3.575747e-001 
-3.650713e-001 
-3.717942e-001 
-3.769256e-001 
-3.831439e-001 
-3.901786e-001 
-3.978288e-001 
-4.048105e-001 
-4.093935e-001 
-4.143311e-001 
-4.204477e-001 
-4.256139e-001 
-4.317321e-001 
-4.377005e-001 
-4.408918e-001 
-4.446170e-001 
-4.484837e-001 
-4.519018e-001 
-4.563354e-001 
-4.595557e-001 
-4.621124e-001 
-4.664007e-001 
-4.692741e-001 
-4.708499e-001 
-4.739942e-001 
-4.762354e-001 
-4.767624e-001 
-4.787661e-001 
-4.823284e-001 
-4.866559e-001 
-4.894885e-001 
-4.890499e-001 
-4.877080e-001 
-4.892537e-001 
-4.917353e-001 
-4.932818e-001 
-4.960718e-001 
-4.977280e-001 
-4.956430e-001 
-4.923413e-001 
-4.919225e-001 
-4.933956e-001 
-4.959507e-001 
-4.961178e-001 
-4.930764e-001 
-4.913582e-001 
-4.904065e-001 
-4.884232e-001 
-4.884658e-001 
-4.893126e-001 
-4.867726e-001 
-4.842923e-001 
-4.823825e-001 
-4.813195e-001 
-4.814521e-001 
-4.804113e-001 
-4.768650e-001 
-4.742580e-001 
-4.719815e-001 
-4.695224e-001 
-4.691948e-001 
-4.680058e-001 
-4.646379e-001 
-4.600986e-001 
-4.562078e-001 
-4.520421e-001 
-4.482110e-001 
-4.430311e-001 
-4.369559e-001 
-4.294603e-001 
-4.209266e-001 
-4.119923e-001 
-4.026334e-001 
-3.931665e-001 
-3.819902e-001 
-3.705733e-001 
-3.594142e-001 
-3.450590e-001 
-3.181639e-001 
-2.645490e-001 
-1.760888e-001 
-7.582759e-002 
6.503169e-003 
6.519789e-002 
1.107084e-001 
1.530922e-001 
1.969277e-001 
2.504069e-001 
3.178977e-001 
3.707188e-001 
3.692209e-001 
3.190697e-001 
2.531011e-001 
1.857523e-001 
1.060679e-001 
1.042839e-003 
-1.311313e-001 
-2.988566e-001 
-5.176323e-001 
-7.764906e-001 
-1.046310e+000 
-1.313052e+000 
-1.582616e+000 
-1.866112e+000 
-2.162136e+000 
-2.458096e+000 
-2.752043e+000 
-3.048036e+000 
-3.342675e+000 
-3.631774e+000 
-3.910897e+000 
-4.178002e+000 
-4.431411e+000 
-4.662782e+000 
-4.865831e+000 
-5.048453e+000 
-5.216463e+000 
-5.367860e+000 
-5.500730e+000 
-5.612925e+000 
-5.704370e+000 
-5.772884e+000 
-5.816028e+000 
-5.836877e+000 
-5.841152e+000 
-5.827062e+000 
-5.791153e+000 
-5.733812e+000 
-5.653807e+000 
-5.552996e+000 
-5.430435e+000 
-5.284809e+000 
-5.115074e+000 
-4.918954e+000 
-4.693350e+000 
-4.443410e+000 
-4.171788e+000 
-3.876269e+000 
-3.560735e+000 
-3.225855e+000 
-2.873688e+000 
-2.508492e+000 
-2.132387e+000 
-1.750263e+000 
-1.371289e+000 
-9.960535e-001 
-6.275400e-001 
-2.719055e-001 
6.767895e-002 
3.882932e-001 
6.894077e-001 
9.712217e-001 
1.231477e+000 
1.466606e+000 
1.677044e+000 
1.866205e+000 
2.035576e+000 
2.184870e+000 
2.318002e+000 
2.436798e+000 
2.540561e+000 
2.631466e+000 
2.709902e+000 
2.781141e+000 
2.848711e+000 
2.909721e+000 
2.965134e+000 
3.019950e+000 
3.073777e+000 
3.125519e+000 
3.177678e+000 
3.227884e+000 
3.276020e+000 
3.322308e+000 
3.367070e+000 
3.412798e+000 
3.461034e+000 
3.508320e+000 
3.552464e+000 
3.596150e+000 
3.637791e+000 
3.679660e+000 
3.722968e+000 
3.764421e+000 
3.804349e+000 
3.842479e+000 
3.876891e+000 
3.909386e+000 
3.942460e+000 
3.972716e+000 
4.000031e+000 
4.023495e+000 
4.042565e+000 
4.060083e+000 
4.074246e+000 
4.083377e+000 
4.087197e+000 
4.085154e+000 
4.076875e+000 
4.063777e+000 
4.045831e+000 
4.021843e+000 
3.991045e+000 
3.952286e+000 
3.906061e+000 
3.853682e+000 
3.796312e+000 
3.732326e+000 
3.660375e+000 
3.581927e+000 
3.495785e+000 
3.403859e+000 
3.307162e+000 
3.204556e+000 
3.096962e+000 
2.984890e+000 
2.868232e+000 
2.750574e+000 
2.632432e+000 
2.510236e+000 
2.386519e+000 
2.260336e+000 
2.132763e+000 
2.006858e+000 
1.882904e+000 
1.759622e+000 
1.638018e+000 
1.517112e+000 
1.397734e+000 
1.282885e+000 
1.171591e+000 
1.064610e+000 
9.606261e-001 
8.588539e-001 
7.601380e-001 
6.665850e-001 
5.779837e-001 
4.931827e-001 
4.117949e-001 
3.341842e-001 
2.615265e-001 
1.934960e-001 
1.319682e-001 
7.548354e-002 
2.211141e-002 
-2.894682e-002 
-7.706269e-002 
-1.203023e-001 
-1.582474e-001 
-1.928841e-001 
-2.258751e-001 
-2.558027e-001 
-2.831085e-001 
-3.078025e-001 
-3.291908e-001 
-3.462897e-001 
-3.618422e-001 
-3.763133e-001 
-3.891081e-001 
-4.001128e-001 
-4.069266e-001 
-4.118519e-001 
-4.170963e-001 
-4.202317e-001 
-4.225303e-001 
-4.247941e-001 
-4.229628e-001 
-4.200858e-001 
-4.184219e-001 
-4.156348e-001 
-4.116379e-001 
-4.063083e-001 
-4.002392e-001 
-3.945321e-001 
-3.890359e-001 
-3.827195e-001 
-3.775356e-001 
-3.730275e-001 
-3.653272e-001 
-3.560240e-001 
-3.505564e-001 
-3.456698e-001 
-3.396134e-001 
-3.346953e-001 
-3.283971e-001 
-3.225320e-001 
-3.176628e-001 
-3.115833e-001 
-3.074338e-001 
-3.058345e-001 
-3.019249e-001 
-2.987346e-001 
-2.983555e-001 
-2.975200e-001 
-2.963447e-001 
-2.956562e-001 
-2.947726e-001 
-2.959648e-001 
-2.998020e-001 
-3.044304e-001 
-3.089984e-001 
-3.130745e-001 
-3.158094e-001 
-3.196559e-001 
-3.258737e-001 
-3.332854e-001 
-3.422389e-001 
-3.502766e-001 
-3.564672e-001 
-3.607180e-001 
-3.677015e-001 
-3.760573e-001 
-3.845104e-001 
-3.930768e-001 
-4.007265e-001 
-4.077120e-001 
-4.157236e-001 
-4.240469e-001 
-4.312597e-001 
-4.394957e-001 
-4.446120e-001 
-4.502826e-001 
-4.566607e-001 
-4.619662e-001 
-4.687955e-001 
-4.756741e-001 
-4.793277e-001 
-4.827099e-001 
-4.872357e-001 
-4.914721e-001 
-4.970160e-001 
-5.011189e-001 
-5.041425e-001 
-5.077055e-001 
-5.103112e-001 
-5.116072e-001 
-5.140480e-001 
-5.165118e-001 
-5.173715e-001 
-5.185617e-001 
-5.212071e-001 
-5.240957e-001 
-5.261823e-001 
-5.270562e-001 
-5.269880e-001 
-5.283821e-001 
-5.295330e-001 
-5.299029e-001 
-5.317330e-001 
-5.339045e-001 
-5.326940e-001 
-5.312466e-001 
-5.320232e-001 
-5.338861e-001 
-5.349029e-001 
-5.333288e-001 
-5.315540e-001 
-5.322678e-001 
-5.327843e-001 
-5.317392e-001 
-5.326187e-001 
-5.332608e-001 
-5.317655e-001 
-5.286187e-001 
-5.267505e-001 
-5.270970e-001 
-5.269555e-001 
-5.242147e-001 
-5.219155e-001 
-5.198163e-001 
-5.175195e-001 
-5.154156e-001 
-5.142294e-001 
-5.126368e-001 
-5.084272e-001 
-5.043776e-001 
-5.029937e-001 
-5.021968e-001 
-5.003751e-001 
-4.978269e-001 
-4.947202e-001 
-4.918194e-001 
-4.883227e-001 
-4.860524e-001 
-4.854697e-001 
-4.844533e-001 
-4.813925e-001 
-4.783539e-001 
-4.760020e-001 
-4.743230e-001 
-4.726697e-001 
-4.696830e-001 
-4.639820e-001 
-4.583543e-001 
-4.531527e-001 
-4.439338e-001 
-4.254652e-001 
-3.827457e-001 
-3.032336e-001 
-1.986251e-001 
-9.846341e-002 
-2.316127e-002 
3.096027e-002 
7.973964e-002 
1.291937e-001 
1.860622e-001 
2.594672e-001 
3.329747e-001 
3.678203e-001 
3.462271e-001 
2.932337e-001 
2.383120e-001 
1.790404e-001 
1.001664e-001 
-5.296812e-003 
-1.469892e-001 
-3.368022e-001 
-5.738226e-001 
-8.347514e-001 
-1.092713e+000 
-1.344740e+000 
-1.604988e+000 
-1.880998e+000 
-2.168285e+000 
-2.458523e+000 
-2.747265e+000 
-3.035200e+000 
-3.320317e+000 
-3.600685e+000 
-3.876208e+000 
-4.146295e+000 
-4.403340e+000 
-4.635600e+000 
-4.841761e+000 
-5.027938e+000 
-5.197758e+000 
-5.352824e+000 
-5.494640e+000 
-5.618575e+000 
-5.719219e+000 
-5.793716e+000 
-5.844833e+000 
-5.879993e+000 
-5.899543e+000 
-5.900873e+000 
-5.883379e+000 
-5.844804e+000 
-5.780518e+000 
-5.691220e+000 
-5.578028e+000 
-5.439406e+000 
-5.271969e+000 
-5.072271e+000 
-4.842304e+000 
-4.584682e+000 
-4.299906e+000 
-3.989338e+000 
-3.655164e+000 
-3.297409e+000 
-2.919394e+000 
-2.525523e+000 
-2.119437e+000 
-1.707762e+000 
-1.297302e+000 
-8.942830e-001 
-5.031896e-001 
-1.268524e-001 
2.303472e-001 
5.627735e-001 
8.712010e-001 
1.155410e+000 
1.409521e+000 
1.633102e+000 
1.831075e+000 
2.007450e+000 
2.163731e+000 
2.300006e+000 
2.417339e+000 
2.518822e+000 
2.604446e+000 
2.675851e+000 
2.738829e+000 
2.797016e+000 
2.850185e+000 
2.898723e+000 
2.944955e+000 
2.989719e+000 
3.034872e+000 
3.081088e+000 
3.127074e+000 
3.171819e+000 
3.215042e+000 
3.257686e+000 
3.301783e+000 
3.347748e+000 
3.394101e+000 
3.441090e+000 
3.488230e+000 
3.534548e+000 
3.580823e+000 
3.628438e+000 
3.676348e+000 
3.723182e+000 
3.769405e+000 
3.814612e+000 
3.858848e+000 
3.902386e+000 
3.943624e+000 
3.980492e+000 
4.013370e+000 
4.042712e+000 
4.069127e+000 
4.093017e+000 
4.110572e+000 
4.120891e+000 
4.125262e+000 
4.122638e+000 
4.111718e+000 
4.095886e+000 
4.073927e+000 
4.042833e+000 
4.002573e+000 
3.952442e+000 
3.895133e+000 
3.832038e+000 
3.759431e+000 
3.676106e+000 
3.586419e+000 
3.488589e+000 
3.383144e+000 
3.271829e+000 
3.154165e+000 
3.030874e+000 
2.902203e+000 
2.766351e+000 
2.627326e+000 
2.489379e+000 
2.348619e+000 
2.205793e+000 
2.062617e+000 
1.919676e+000 
1.780312e+000 
1.644303e+000 
1.509570e+000 
1.380240e+000 
1.255634e+000 
1.132492e+000 
1.015322e+000 
9.068805e-001 
8.049846e-001 
7.074601e-001 
6.140849e-001 
5.273975e-001 
4.494419e-001 
3.762311e-001 
3.074195e-001 
2.460586e-001 
1.901594e-001 
1.368987e-001 
8.687390e-002 
4.425469e-002 
7.979356e-003 
-2.625625e-002 
-5.872532e-002 
-8.612311e-002 
-1.099744e-001 
-1.308732e-001 
-1.497258e-001 
-1.668012e-001 
-1.790839e-001 
-1.891797e-001 
-1.990358e-001 
-2.064987e-001 
-2.119913e-001 
-2.185206e-001 
-2.231859e-001 
-2.266120e-001 
-2.276327e-001 
-2.251844e-001 
-2.233639e-001 
-2.242316e-001 
-2.247112e-001 
-2.244870e-001 
-2.225296e-001 
-2.178471e-001 
-2.138316e-001 
-2.100220e-001 
-2.076299e-001 
-2.083703e-001 
-2.083211e-001 
-2.060207e-001 
-2.038083e-001 
-2.015233e-001 
-2.012965e-001 
-2.027675e-001 
-2.042509e-001 
-2.066408e-001 
-2.084958e-001 
-2.102158e-001 
-2.143614e-001 
-2.182562e-001 
-2.223056e-001 
-2.269934e-001 
-2.323353e-001 
-2.387561e-001 
-2.447314e-001 
-2.505561e-001 
-2.574990e-001 
-2.634922e-001 
-2.693442e-001 
-2.769335e-001 
-2.852290e-001 
-2.950178e-001 
-3.038511e-001 
-3.107723e-001 
-3.189195e-001 
-3.278612e-001 
-3.370143e-001 
-3.460906e-001 
-3.543928e-001 
-3.626278e-001 
-3.707990e-001 
-3.781164e-001 
-3.853588e-001 
-3.938209e-001 
-4.010141e-001 
-4.062989e-001 
-4.107605e-001 
-4.161451e-001 
-4.216298e-001 
-4.263888e-001 
-4.295002e-001 
-4.317157e-001 
-4.364734e-001 
-4.405858e-001 
-4.430136e-001 
-4.463735e-001 
-4.496634e-001 
-4.521328e-001 
-4.547576e-001 
-4.572269e-001 
-4.617421e-001 
-4.673857e-001 
-4.685417e-001 
-4.682500e-001 
-4.706076e-001 
-4.742286e-001 
-4.782996e-001 
-4.815488e-001 
-4.823828e-001 
-4.832479e-001 
-4.840012e-001 
-4.832532e-001 
-4.838630e-001 
-4.863600e-001 
-4.881958e-001 
-4.877689e-001 
-4.854057e-001 
-4.843866e-001 
-4.858387e-001 
-4.857557e-001 
-4.839206e-001 
-4.828623e-001 
-4.825170e-001 
-4.821242e-001 
-4.803968e-001 
-4.791366e-001 
-4.785328e-001 
-4.767028e-001 
-4.741382e-001 
-4.736639e-001 
-4.733135e-001 
-4.723957e-001 
-4.705524e-001 
-4.669543e-001 
-4.649003e-001 
-4.643784e-001 
-4.643885e-001 
-4.637045e-001 
-4.619374e-001 
-4.595504e-001 
-4.581380e-001 
-4.564517e-001 
-4.556760e-001 
-4.563672e-001 
-4.552749e-001 
-4.520323e-001 
-4.496459e-001 
-4.498023e-001 
-4.502399e-001 
-4.485722e-001 
-4.464321e-001 
-4.436716e-001 
-4.405518e-001 
-4.379073e-001 
-4.360796e-001 
-4.347458e-001 
-4.316943e-001 
-4.249245e-001 
-4.173538e-001 
-4.100300e-001 
-3.973645e-001 
-3.743814e-001 
-3.236511e-001 
-2.342859e-001 
-1.230019e-001 
-2.041774e-002 
5.795667e-002 
1.165063e-001 
1.676953e-001 
2.199865e-001 
2.812575e-001 
3.590273e-001 
4.311222e-001 
4.580625e-001 
4.281588e-001 
3.693257e-001 
3.046425e-001 
2.303241e-001 
1.329076e-001 
4.511952e-003 
-1.645025e-001 
-3.848500e-001 
-6.537647e-001 
-9.449011e-001 
-1.233566e+000 
-1.522081e+000 
-1.821765e+000 
-2.132090e+000 
-2.445272e+000 
-2.755428e+000 
-3.060618e+000 
-3.363918e+000 
-3.661878e+000 
-3.953288e+000 
-4.234918e+000 
-4.499007e+000 
-4.736841e+000 
-4.945154e+000 
-5.127787e+000 
-5.291204e+000 
-5.439128e+000 
-5.570068e+000 
-5.681558e+000 
-5.768923e+000 
-5.831527e+000 
-5.870363e+000 
-5.888008e+000 
-5.887622e+000 
-5.867581e+000 
-5.823988e+000 
-5.753758e+000 
-5.654936e+000 
-5.528223e+000 
-5.374414e+000 
-5.191326e+000 
-4.977091e+000 
-4.731248e+000 
-4.454381e+000 
-4.150720e+000 
-3.821861e+000 
-3.469143e+000 
-3.096514e+000 
-2.705923e+000 
-2.300206e+000 
-1.884683e+000 
-1.466257e+000 
-1.053508e+000 
-6.523073e-001 
-2.633197e-001 
1.073381e-001 
4.535906e-001 
7.742370e-001 
1.068029e+000 
1.333962e+000 
1.572072e+000 
1.781888e+000 
1.965621e+000 
2.125617e+000 
2.262861e+000 
2.380305e+000 
2.482334e+000 
2.570794e+000 
2.646695e+000 
2.710720e+000 
2.763405e+000 
2.810611e+000 
2.856542e+000 
2.901826e+000 
2.945011e+000 
2.988709e+000 
3.033594e+000 
3.077790e+000 
3.121009e+000 
3.165521e+000 
3.212970e+000 
3.259887e+000 
3.304227e+000 
3.348573e+000 
3.396186e+000 
3.443583e+000 
3.489372e+000 
3.535152e+000 
3.580520e+000 
3.625679e+000 
3.668872e+000 
3.711532e+000 
3.754210e+000 
3.795224e+000 
3.833488e+000 
3.868213e+000 
3.899279e+000 
3.927887e+000 
3.952916e+000 
3.971643e+000 
3.985408e+000 
3.994189e+000 
3.999095e+000 
3.996966e+000 
3.984949e+000 
3.965333e+000 
3.938396e+000 
3.901878e+000 
3.857509e+000 
3.805155e+000 
3.743754e+000 
3.672432e+000 
3.589747e+000 
3.498411e+000 
3.400459e+000 
3.294578e+000 
3.180888e+000 
3.059998e+000 
2.931019e+000 
2.797344e+000 
2.660401e+000 
2.521297e+000 
2.379957e+000 
2.234622e+000 
2.087906e+000 
1.943069e+000 
1.800435e+000 
1.661527e+000 
1.526810e+000 
1.395143e+000 
1.267069e+000 
1.143293e+000 
1.024199e+000 
9.132670e-001 
8.097996e-001 
7.121554e-001 
6.206269e-001 
5.352550e-001 
4.563451e-001 
3.844857e-001 
3.184541e-001 
2.574398e-001 
2.030655e-001 
1.543354e-001 
1.108921e-001 
7.214692e-002 
3.712768e-002 
5.156605e-003 
-2.334314e-002 
-4.786069e-002 
-6.725825e-002 
-8.425861e-002 
-9.996834e-002 
-1.141459e-001 
-1.270029e-001 
-1.377031e-001 
-1.457467e-001 
-1.512508e-001 
-1.545224e-001 
-1.587145e-001 
-1.641518e-001 
-1.678319e-001 
-1.690413e-001 
-1.673957e-001 
-1.669317e-001 
-1.677509e-001 
-1.680106e-001 
-1.690936e-001 
-1.700602e-001 
-1.689063e-001 
-1.674454e-001 
-1.661836e-001 
-1.661817e-001 
-1.677120e-001 
-1.669046e-001 
-1.657017e-001 
-1.665033e-001 
-1.677234e-001 
-1.694379e-001 
-1.729709e-001 
-1.761005e-001 
-1.779351e-001 
-1.802664e-001 
-1.844508e-001 
-1.901224e-001 
-1.956543e-001 
-2.006323e-001 
-2.054379e-001 
-2.113555e-001 
-2.169240e-001 
-2.234424e-001 
-2.324814e-001 
-2.407783e-001 
-2.471492e-001 
-2.552580e-001 
-2.640841e-001 
-2.727593e-001 
-2.815376e-001 
-2.886451e-001 
-2.960564e-001 
-3.047569e-001 
-3.130824e-001 
-3.223394e-001 
-3.323876e-001 
-3.392110e-001 
-3.456895e-001 
-3.532403e-001 
-3.607964e-001 
-3.697050e-001 
-3.779458e-001 
-3.839202e-001 
-3.885715e-001 
-3.923680e-001 
-3.969330e-001 
-4.042005e-001 
-4.105785e-001 
-4.154428e-001 
-4.188517e-001 
-4.211387e-001 
-4.244839e-001 
-4.275161e-001 
-4.310487e-001 
-4.343162e-001 
-4.360126e-001 
-4.366126e-001 
-4.389113e-001 
-4.407467e-001 
-4.430077e-001 
-4.450767e-001 
-4.454102e-001 
-4.467745e-001 
-4.479699e-001 
-4.489491e-001 
-4.510024e-001 
-4.522775e-001 
-4.503501e-001 
-4.501383e-001 
-4.512115e-001 
-4.523011e-001 
-4.531317e-001 
-4.522091e-001 
-4.513655e-001 
-4.516511e-001 
-4.514451e-001 
-4.512680e-001 
-4.525961e-001 
-4.524759e-001 
-4.508042e-001 
-4.491692e-001 
-4.483793e-001 
-4.487553e-001 
-4.490403e-001 
-4.474540e-001 
-4.446669e-001 
-4.423473e-001 
-4.411615e-001 
-4.405210e-001 
-4.393788e-001 
-4.377907e-001 
-4.360845e-001 
-4.343581e-001 
-4.332917e-001 
-4.329072e-001 
-4.326116e-001 
-4.322540e-001 
-4.300938e-001 
-4.279246e-001 
-4.277405e-001 
-4.284094e-001 
-4.287390e-001 
-4.285198e-001 
-4.264956e-001 
-4.245164e-001 
-4.231822e-001 
-4.214881e-001 
-4.200610e-001 
-4.169074e-001 
-4.100550e-001 
-3.981687e-001 
-3.760893e-001 
-3.266021e-001 
-2.386841e-001 
-1.305100e-001 
-3.516097e-002 
3.467693e-002 
8.741451e-002 
1.346661e-001 
1.834166e-001 
2.431327e-001 
3.229058e-001 
3.951454e-001 
4.110152e-001 
3.661243e-001 
2.962772e-001 
2.227010e-001 
1.387192e-001 
3.134194e-002 
-1.075742e-001 
-2.872976e-001 
-5.246871e-001 
-8.127676e-001 
-1.116954e+000 
-1.419017e+000 
-1.725708e+000 
-2.041558e+000 
-2.361583e+000 
-2.680370e+000 
-2.996014e+000 
-3.310778e+000 
-3.622112e+000 
-3.925985e+000 
-4.218198e+000 
-4.490567e+000 
-4.733163e+000 
-4.946473e+000 
-5.136910e+000 
-5.308641e+000 
-5.461384e+000 
-5.592001e+000 
-5.697481e+000 
-5.778597e+000 
-5.834865e+000 
-5.864181e+000 
-5.868832e+000 
-5.848549e+000 
-5.801390e+000 
-5.725271e+000 
-5.619102e+000 
-5.483232e+000 
-5.317652e+000 
-5.117509e+000 
-4.882120e+000 
-4.617116e+000 
-4.324404e+000 
-4.005865e+000 
-3.662933e+000 
-3.295429e+000 
-2.906758e+000 
-2.500413e+000 
-2.080803e+000 
-1.658160e+000 
-1.240991e+000 
-8.304323e-001 
-4.321635e-001 
-5.152737e-002 
3.088590e-001 
6.455952e-001 
9.587607e-001 
1.243701e+000 
1.496426e+000 
1.720544e+000 
1.919017e+000 
2.090903e+000 
2.241657e+000 
2.375287e+000 
2.492936e+000 
2.592356e+000 
2.673495e+000 
2.742822e+000 
2.804831e+000 
2.860676e+000 
2.915075e+000 
2.968754e+000 
3.019057e+000 
3.066418e+000 
3.112056e+000 
3.160023e+000 
3.209535e+000 
3.258846e+000 
3.308648e+000 
3.359124e+000 
3.407430e+000 
3.456483e+000 
3.507990e+000 
3.560037e+000 
3.611204e+000 
3.661007e+000 
3.709622e+000 
3.757577e+000 
3.804636e+000 
3.849280e+000 
3.892148e+000 
3.932865e+000 
3.970240e+000 
4.005253e+000 
4.037277e+000 
4.063442e+000 
4.084381e+000 
4.099787e+000 
4.108238e+000 
4.111669e+000 
4.110932e+000 
4.102139e+000 
4.084342e+000 
4.056959e+000 
4.019752e+000 
3.975198e+000 
3.921678e+000 
3.857975e+000 
3.785446e+000 
3.702663e+000 
3.608739e+000 
3.506306e+000 
3.394879e+000 
3.275181e+000 
3.148149e+000 
3.014074e+000 
2.875513e+000 
2.732846e+000 
2.586635e+000 
2.438526e+000 
2.287492e+000 
2.136108e+000 
1.987788e+000 
1.843017e+000 
1.703259e+000 
1.565880e+000 
1.430567e+000 
1.300479e+000 
1.176268e+000 
1.058450e+000 
9.488145e-001 
8.452599e-001 
7.468652e-001 
6.527851e-001 
5.631619e-001 
4.811832e-001 
4.066770e-001 
3.385764e-001 
2.742775e-001 
2.136762e-001 
1.573180e-001 
1.068844e-001 
6.145125e-002 
2.016718e-002 
-1.774024e-002 
-5.152370e-002 
-8.127516e-002 
-1.096329e-001 
-1.336118e-001 
-1.535262e-001 
-1.710230e-001 
-1.880364e-001 
-2.027950e-001 
-2.134917e-001 
-2.206833e-001 
-2.286741e-001 
-2.380479e-001 
-2.441287e-001 
-2.479921e-001 
-2.504449e-001 
-2.508870e-001 
-2.498643e-001 
-2.500767e-001 
-2.515364e-001 
-2.533756e-001 
-2.527726e-001 
-2.478807e-001 
-2.435954e-001 
-2.419160e-001 
-2.409716e-001 
-2.404727e-001 
-2.401634e-001 
-2.377267e-001 
-2.348217e-001 
-2.324055e-001 
-2.304358e-001 
-2.318840e-001 
-2.341191e-001 
-2.346529e-001 
-2.362794e-001 
-2.393802e-001 
-2.426077e-001 
-2.465940e-001 
-2.501301e-001 
-2.538330e-001 
-2.587138e-001 
-2.635226e-001 
-2.690562e-001 
-2.748701e-001 
-2.795143e-001 
-2.843665e-001 
-2.896189e-001 
-2.957488e-001 
-3.038530e-001 
-3.118486e-001 
-3.189501e-001 
-3.246300e-001 
-3.291501e-001 
-3.362199e-001 
-3.450976e-001 
-3.522272e-001 
-3.592115e-001 
-3.659040e-001 
-3.724599e-001 
-3.797980e-001 
-3.871777e-001 
-3.949626e-001 
-4.025566e-001 
-4.081697e-001 
-4.132953e-001 
-4.191984e-001 
-4.259179e-001 
-4.325633e-001 
-4.360710e-001 
-4.394708e-001 
-4.427770e-001 
-4.456911e-001 
-4.497799e-001 
-4.531717e-001 
-4.557052e-001 
-4.594584e-001 
-4.605327e-001 
-4.613869e-001 
-4.646319e-001 
-4.657113e-001 
-4.661371e-001 
-4.659978e-001 
-4.655936e-001 
-4.678070e-001 
-4.707494e-001 
-4.703338e-001 
-4.698985e-001 
-4.698012e-001 
-4.694472e-001 
-4.691279e-001 
-4.693899e-001 
-4.703261e-001 
-4.708748e-001 
-4.693434e-001 
-4.664536e-001 
-4.665633e-001 
-4.684662e-001 
-4.685431e-001 
-4.675141e-001 
-4.666470e-001 
-4.655770e-001 
-4.662398e-001 
-4.669788e-001 
-4.667068e-001 
-4.660467e-001 
-4.639133e-001 
-4.620445e-001 
-4.625910e-001 
-4.634923e-001 
-4.644067e-001 
-4.647832e-001 
-4.628444e-001 
-4.606148e-001 
-4.601446e-001 
-4.608888e-001 
-4.618827e-001 
-4.623104e-001 
-4.600686e-001 
-4.577096e-001 
-4.568351e-001 
-4.565658e-001 
-4.568516e-001 
-4.566169e-001 
-4.551532e-001 
-4.533602e-001 
-4.518663e-001 
-4.493351e-001 
-4.471912e-001 
-4.442011e-001 
-4.391069e-001 
-4.331305e-001 
-4.239473e-001 
-4.040155e-001 
-3.607718e-001 
-2.784368e-001 
-1.655748e-001 
-6.130718e-002 
1.345093e-002 
6.607759e-002 
1.111373e-001 
1.586914e-001 
2.131017e-001 
2.808240e-001 
3.492869e-001 
3.688370e-001 
3.162536e-001 
2.257428e-001 
1.281343e-001 
2.180651e-002 
-1.080204e-001 
-2.681658e-001 
-4.642219e-001 
-7.134314e-001 
-1.021082e+000 
-1.359963e+000 
-1.703861e+000 
-2.044373e+000 
-2.382045e+000 
-2.716244e+000 
-3.044843e+000 
-3.370332e+000 
-3.691743e+000 
-4.006942e+000 
-4.312958e+000 
-4.598101e+000 
-4.848154e+000 
-5.063942e+000 
-5.255068e+000 
-5.427364e+000 
-5.578479e+000 
-5.705197e+000 
-5.807835e+000 
-5.884031e+000 
-5.928952e+000 
-5.942735e+000 
-5.929038e+000 
-5.888454e+000 
-5.815144e+000 
-5.707523e+000 
-5.567248e+000 
-5.393490e+000 
-5.186004e+000 
-4.941793e+000 
-4.662945e+000 
-4.354645e+000 
-4.017866e+000 
-3.653283e+000 
-3.267111e+000 
-2.860239e+000 
-2.434924e+000 
-1.998974e+000 
-1.562030e+000 
-1.133947e+000 
-7.164151e-001 
-3.114213e-001 
7.494658e-002 
4.364535e-001 
7.720076e-001 
1.079420e+000 
1.351614e+000 
1.590159e+000 
1.801400e+000 
1.987164e+000 
2.148807e+000 
2.289083e+000 
2.409879e+000 
2.514738e+000 
2.604734e+000 
2.679867e+000 
2.746314e+000 
2.807083e+000 
2.863166e+000 
2.918049e+000 
2.972445e+000 
3.023998e+000 
3.073586e+000 
3.122899e+000 
3.171084e+000 
3.221823e+000 
3.274464e+000 
3.325663e+000 
3.376313e+000 
3.426195e+000 
3.475738e+000 
3.527284e+000 
3.579432e+000 
3.630614e+000 
3.681660e+000 
3.728880e+000 
3.773050e+000 
3.816760e+000 
3.859346e+000 
3.899053e+000 
3.934073e+000 
3.963485e+000 
3.988276e+000 
4.008303e+000 
4.022606e+000 
4.031748e+000 
4.034775e+000 
4.029243e+000 
4.015412e+000 
3.995225e+000 
3.967363e+000 
3.930780e+000 
3.885173e+000 
3.830445e+000 
3.767955e+000 
3.697201e+000 
3.617427e+000 
3.530106e+000 
3.434646e+000 
3.330314e+000 
3.219025e+000 
3.103002e+000 
2.981576e+000 
2.854466e+000 
2.721996e+000 
2.584177e+000 
2.443668e+000 
2.303122e+000 
2.162165e+000 
2.021137e+000 
1.880489e+000 
1.739418e+000 
1.601604e+000 
1.468182e+000 
1.337832e+000 
1.211884e+000 
1.089685e+000 
9.716649e-001 
8.592580e-001 
7.525524e-001 
6.525232e-001 
5.594375e-001 
4.702102e-001 
3.856760e-001 
3.076561e-001 
2.366040e-001 
1.725958e-001 
1.134972e-001 
5.776759e-002 
6.530077e-003 
-4.022746e-002 
-8.216283e-002 
-1.173564e-001 
-1.485671e-001 
-1.776285e-001 
-2.033230e-001 
-2.252670e-001 
-2.437485e-001 
-2.575693e-001 
-2.685955e-001 
-2.783362e-001 
-2.863907e-001 
-2.943631e-001 
-3.007380e-001 
-3.034665e-001 
-3.045264e-001 
-3.065093e-001 
-3.077768e-001 
-3.089661e-001 
-3.094665e-001 
-3.084948e-001 
-3.081294e-001 
-3.075553e-001 
-3.062375e-001 
-3.058374e-001 
-3.054812e-001 
-3.036564e-001 
-3.033091e-001 
-3.041040e-001 
-3.058034e-001 
-3.070804e-001 
-3.057458e-001 
-3.040218e-001 
-3.034551e-001 
-3.032568e-001 
-3.046226e-001 
-3.061748e-001 
-3.071116e-001 
-3.072497e-001 
-3.065509e-001 
-3.078259e-001 
-3.106429e-001 
-3.123702e-001 
-3.120791e-001 
-3.112815e-001 
-3.104867e-001 
-3.105106e-001 
-3.106833e-001 
-3.116904e-001 
-3.118684e-001 
-3.091084e-001 
-3.062718e-001 
-3.059009e-001 
-3.076917e-001 
-3.093096e-001 
-3.098237e-001 
-3.092897e-001 
-3.088613e-001 
-3.088173e-001 
-3.107214e-001 
-3.152074e-001 
-3.206601e-001 
-3.262817e-001 
-3.335275e-001 
-3.436921e-001 
-3.550172e-001 
-3.672293e-001 
-3.800589e-001 
-3.928664e-001 
-4.057045e-001 
-4.203065e-001 
-4.365150e-001 
-4.547677e-001 
-4.716092e-001 
-4.853618e-001 
-4.991390e-001 
-5.148026e-001 
-5.311636e-001 
-5.447922e-001 
-5.557060e-001 
-5.652328e-001 
-5.732590e-001 
-5.770886e-001 
-5.803535e-001 
-5.838093e-001 
-5.873946e-001 
-5.872871e-001 
-5.839394e-001 
-5.828636e-001 
-5.823906e-001 
-5.800671e-001 
-5.765315e-001 
-5.729187e-001 
-5.693756e-001 
-5.664007e-001 
-5.621246e-001 
-5.600106e-001 
-5.576551e-001 
-5.536933e-001 
-5.521690e-001 
-5.519149e-001 
-5.522030e-001 
-5.523568e-001 
-5.511659e-001 
-5.495581e-001 
-5.483549e-001 
-5.460489e-001 
-5.456125e-001 
-5.463749e-001 
-5.450729e-001 
-5.421857e-001 
-5.386541e-001 
-5.371707e-001 
-5.364054e-001 
-5.347682e-001 
-5.319838e-001 
-5.297461e-001 
-5.274412e-001 
-5.251093e-001 
-5.231260e-001 
-5.215068e-001 
-5.194989e-001 
-5.158989e-001 
-5.123382e-001 
-5.105145e-001 
-5.100045e-001 
-5.078949e-001 
-5.055522e-001 
-5.013502e-001 
-4.961068e-001 
-4.923540e-001 
-4.895879e-001 
-4.872026e-001 
-4.828111e-001 
-4.747540e-001 
-4.641522e-001 
-4.477241e-001 
-4.118259e-001 
-3.439407e-001 
-2.486822e-001 
-1.539202e-001 
-7.976444e-002 
-2.470736e-002 
2.042884e-002 
6.496595e-002 
1.171949e-001 
1.854075e-001 
2.590047e-001 
2.978764e-001 
2.778970e-001 
2.212576e-001 
1.544671e-001 
8.136946e-002 
-8.874745e-003 
-1.291099e-001 
-2.866631e-001 
-4.930726e-001 
-7.513100e-001 
-1.037117e+000 
-1.325845e+000 
-1.614925e+000 
-1.910071e+000 
-2.213835e+000 
-2.522155e+000 
-2.826016e+000 
-3.126813e+000 
-3.425830e+000 
-3.720609e+000 
-4.006768e+000 
-4.277242e+000 
-4.525551e+000 
-4.749112e+000 
-4.947912e+000 
-5.124298e+000 
-5.283830e+000 
-5.425903e+000 
-5.547342e+000 
-5.644875e+000 
-5.721407e+000 
-5.777539e+000 
-5.811518e+000 
-5.823388e+000 
-5.811557e+000 
-5.779074e+000 
-5.725336e+000 
-5.647036e+000 
-5.544774e+000 
-5.417452e+000 
-5.259963e+000 
-5.072023e+000 
-4.854129e+000 
-4.608851e+000 
-4.340053e+000 
-4.046701e+000 
-3.730948e+000 
-3.393526e+000 
-3.034967e+000 
-2.661462e+000 
-2.278929e+000 
-1.890200e+000 
-1.498074e+000 
-1.108959e+000 
-7.294700e-001 
-3.600849e-001 
-2.034294e-003 
3.390933e-001 
6.584012e-001 
9.546814e-001 
1.228332e+000 
1.478902e+000 
1.701997e+000 
1.901525e+000 
2.083535e+000 
2.246697e+000 
2.390416e+000 
2.517537e+000 
2.632620e+000 
2.736637e+000 
2.829383e+000 
2.911013e+000 
2.986919e+000 
3.059267e+000 
3.127829e+000 
3.193176e+000 
3.258939e+000 
3.325876e+000 
3.390506e+000 
3.453430e+000 
3.516935e+000 
3.581684e+000 
3.645810e+000 
3.708952e+000 
3.770372e+000 
3.831932e+000 
3.893371e+000 
3.952359e+000 
4.010415e+000 
4.067107e+000 
4.118070e+000 
4.165305e+000 
4.211277e+000 
4.253489e+000 
4.292105e+000 
4.325373e+000 
4.350767e+000 
4.371191e+000 
4.385850e+000 
4.393628e+000 
4.397271e+000 
4.394394e+000 
4.380970e+000 
4.359754e+000 
4.329837e+000 
4.292296e+000 
4.250022e+000 
4.199595e+000 
4.138841e+000 
4.069648e+000 
3.992549e+000 
3.908132e+000 
3.818013e+000 
3.720546e+000 
3.616218e+000 
3.505995e+000 
3.389047e+000 
3.265186e+000 
3.138161e+000 
3.007848e+000 
2.873745e+000 
2.738200e+000 
2.600302e+000 
2.460178e+000 
2.322303e+000 
2.182929e+000 
2.042320e+000 
1.904343e+000 
1.767763e+000 
1.635534e+000 
1.507475e+000 
1.379495e+000 
1.255129e+000 
1.135844e+000 
1.018780e+000 
9.084719e-001 
8.039096e-001 
7.043611e-001 
6.101809e-001 
5.190804e-001 
4.332653e-001 
3.540141e-001 
2.802761e-001 
2.119188e-001 
1.484723e-001 
8.920311e-002 
3.475121e-002 
-1.536224e-002 
-6.019895e-002 
-1.009342e-001 
-1.394672e-001 
-1.742550e-001 
-2.051351e-001 
-2.324991e-001 
-2.562435e-001 
-2.782997e-001 
-2.995488e-001 
-3.191735e-001 
-3.369672e-001 
-3.525108e-001 
-3.650005e-001 
-3.749991e-001 
-3.849041e-001 
-3.943293e-001 
-4.027846e-001 
-4.096486e-001 
-4.144581e-001 
-4.180354e-001 
-4.213237e-001 
-4.232668e-001 
-4.254083e-001 
-4.277835e-001 
-4.274777e-001 
-4.263606e-001 
-4.267354e-001 
-4.267501e-001 
-4.241326e-001 
-4.206867e-001 
-4.168518e-001 
-4.135347e-001 
-4.101640e-001 
-4.058966e-001 
-4.028174e-001 
-3.990935e-001 
-3.925018e-001 
-3.859847e-001 
-3.819349e-001 
-3.775942e-001 
-3.727970e-001 
-3.675990e-001 
-3.622887e-001 
-3.586445e-001 
-3.558574e-001 
-3.536099e-001 
-3.524235e-001 
-3.515072e-001 
-3.487924e-001 
-3.477243e-001 
-3.489916e-001 
-3.512521e-001 
-3.533136e-001 
-3.546720e-001 
-3.556524e-001 
-3.577007e-001 
-3.610051e-001 
-3.647654e-001 
-3.704844e-001 
-3.747341e-001 
-3.773802e-001 
-3.804571e-001 
-3.853726e-001 
-3.908260e-001 
-3.972548e-001 
-4.026691e-001 
-4.067810e-001 
-4.111988e-001 
-4.170643e-001 
-4.252220e-001 
-4.330388e-001 
-4.397343e-001 
-4.456526e-001 
-4.524290e-001 
-4.578991e-001 
-4.643006e-001 
-4.714629e-001 
-4.782596e-001 
-4.834441e-001 
-4.871283e-001 
-4.922298e-001 
-4.985051e-001 
-5.041545e-001 
-5.084437e-001 
-5.128789e-001 
-5.171699e-001 
-5.220337e-001 
-5.269066e-001 
-5.312341e-001 
-5.351085e-001 
-5.381486e-001 
-5.400083e-001 
-5.424265e-001 
-5.461256e-001 
-5.494038e-001 
-5.515580e-001 
-5.524545e-001 
-5.522386e-001 
-5.541704e-001 
-5.556147e-001 
-5.560212e-001 
-5.566816e-001 
-5.560156e-001 
-5.542737e-001 
-5.531094e-001 
-5.523420e-001 
-5.510847e-001 
-5.486360e-001 
-5.432695e-001 
-5.382672e-001 
-5.325565e-001 
-5.269238e-001 
-5.211383e-001 
-5.151582e-001 
-5.081017e-001 
-4.992176e-001 
-4.918349e-001 
-4.865440e-001 
-4.800198e-001 
-4.721831e-001 
-4.655197e-001 
-4.587945e-001 
-4.540860e-001 
-4.496999e-001 
-4.458162e-001 
-4.452699e-001 
-4.455306e-001 
-4.458153e-001 
-4.499741e-001 
-4.559289e-001 
-4.621585e-001 
-4.696910e-001 
-4.754099e-001 
-4.811184e-001 
-4.898584e-001 
-4.981349e-001 
-5.048831e-001 
-5.098292e-001 
-5.083455e-001 
-4.951130e-001 
-4.537459e-001 
-3.728623e-001 
-2.719597e-001 
-1.824941e-001 
-1.148656e-001 
-6.221531e-002 
-1.416588e-002 
3.681308e-002 
1.007522e-001 
1.851806e-001 
2.643386e-001 
2.936362e-001 
2.659795e-001 
2.151894e-001 
1.640515e-001 
1.056070e-001 
2.579424e-002 
-8.438635e-002 
-2.369592e-001 
-4.444369e-001 
-6.979340e-001 
-9.662543e-001 
-1.228703e+000 
-1.492685e+000 
-1.771166e+000 
-2.061598e+000 
-2.355143e+000 
-2.646359e+000 
-2.932158e+000 
-3.215802e+000 
-3.499232e+000 
-3.779346e+000 
-4.050618e+000 
-4.304420e+000 
-4.533548e+000 
-4.739994e+000 
-4.925502e+000 
-5.093986e+000 
-5.251566e+000 
-5.393332e+000 
-5.514331e+000 
-5.614491e+000 
-5.692756e+000 
-5.749621e+000 
-5.784660e+000 
-5.794221e+000 
-5.781547e+000 
-5.746882e+000 
-5.685823e+000 
-5.598600e+000 
-5.483290e+000 
-5.335949e+000 
-5.157315e+000 
-4.945823e+000 
-4.702301e+000 
-4.432434e+000 
-4.138842e+000 
-3.820548e+000 
-3.478237e+000 
-3.115355e+000 
-2.737735e+000 
-2.349904e+000 
-1.953560e+000 
-1.555562e+000 
-1.164498e+000 
-7.859932e-001 
-4.214233e-001 
-7.381934e-002 
2.537319e-001 
5.604432e-001 
8.455173e-001 
1.105916e+000 
1.338818e+000 
1.545703e+000 
1.728676e+000 
1.892636e+000 
2.039516e+000 
2.170366e+000 
2.285383e+000 
2.386340e+000 
2.474333e+000 
2.552698e+000 
2.625846e+000 
2.694336e+000 
2.759048e+000 
2.821684e+000 
2.883571e+000 
2.945334e+000 
3.007130e+000 
3.066370e+000 
3.125455e+000 
3.185345e+000 
3.243295e+000 
3.301138e+000 
3.360831e+000 
3.419934e+000 
3.477303e+000 
3.531948e+000 
3.585955e+000 
3.641011e+000 
3.693617e+000 
3.742458e+000 
3.788810e+000 
3.830979e+000 
3.869569e+000 
3.904619e+000 
3.935659e+000 
3.963606e+000 
3.984283e+000 
3.997523e+000 
4.006528e+000 
4.009269e+000 
4.005406e+000 
3.994800e+000 
3.973300e+000 
3.943716e+000 
3.906540e+000 
3.859377e+000 
3.807178e+000 
3.747951e+000 
3.677280e+000 
3.599159e+000 
3.514071e+000 
3.420955e+000 
3.322815e+000 
3.217205e+000 
3.104737e+000 
2.988989e+000 
2.868162e+000 
2.743017e+000 
2.617653e+000 
2.490398e+000 
2.359311e+000 
2.226402e+000 
2.093957e+000 
1.964037e+000 
1.837169e+000 
1.712206e+000 
1.585855e+000 
1.461610e+000 
1.341841e+000 
1.224585e+000 
1.110968e+000 
1.003989e+000 
9.009684e-001 
8.024545e-001 
7.075438e-001 
6.144278e-001 
5.295440e-001 
4.499189e-001 
3.717164e-001 
2.991857e-001 
2.335937e-001 
1.724958e-001 
1.159551e-001 
6.103439e-002 
9.779438e-003 
-3.648123e-002 
-8.012237e-002 
-1.186266e-001 
-1.516236e-001 
-1.822016e-001 
-2.118855e-001 
-2.406907e-001 
-2.667951e-001 
-2.883570e-001 
-3.072979e-001 
-3.238778e-001 
-3.381235e-001 
-3.511793e-001 
-3.644603e-001 
-3.762596e-001 
-3.849383e-001 
-3.916816e-001 
-3.973293e-001 
-4.024203e-001 
-4.054301e-001 
-4.062875e-001 
-4.075016e-001 
-4.105734e-001 
-4.117619e-001 
-4.112127e-001 
-4.097959e-001 
-4.068288e-001 
-4.028021e-001 
-3.978277e-001 
-3.943812e-001 
-3.919034e-001 
-3.883131e-001 
-3.820711e-001 
-3.763417e-001 
-3.712229e-001 
-3.662159e-001 
-3.620070e-001 
-3.571048e-001 
-3.514386e-001 
-3.451225e-001 
-3.396590e-001 
-3.360260e-001 
-3.332279e-001 
-3.283744e-001 
-3.234128e-001 
-3.188583e-001 
-3.143083e-001 
-3.135426e-001 
-3.145007e-001 
-3.146625e-001 
-3.134702e-001 
-3.109106e-001 
-3.083416e-001 
-3.083516e-001 
-3.096976e-001 
-3.122182e-001 
-3.163585e-001 
-3.175405e-001 
-3.177104e-001 
-3.205151e-001 
-3.246222e-001 
-3.288271e-001 
-3.341908e-001 
-3.389172e-001 
-3.437889e-001 
-3.504080e-001 
-3.549795e-001 
-3.600630e-001 
-3.665305e-001 
-3.723557e-001 
-3.793363e-001 
-3.871663e-001 
-3.942222e-001 
-4.021582e-001 
-4.088215e-001 
-4.138350e-001 
-4.207570e-001 
-4.284589e-001 
-4.370225e-001 
-4.442587e-001 
-4.492126e-001 
-4.538183e-001 
-4.584142e-001 
-4.634541e-001 
-4.701802e-001 
-4.762067e-001 
-4.801892e-001 
-4.837436e-001 
-4.868579e-001 
-4.902107e-001 
-4.935249e-001 
-4.964749e-001 
-4.995410e-001 
-5.020328e-001 
-5.030062e-001 
-5.040916e-001 
-5.074911e-001 
-5.101856e-001 
-5.101416e-001 
-5.098035e-001 
-5.108035e-001 
-5.126996e-001 
-5.139890e-001 
-5.142035e-001 
-5.149384e-001 
-5.162887e-001 
-5.157954e-001 
-5.155628e-001 
-5.174733e-001 
-5.194027e-001 
-5.201178e-001 
-5.193847e-001 
-5.193204e-001 
-5.211543e-001 
-5.224711e-001 
-5.211240e-001 
-5.199893e-001 
-5.193412e-001 
-5.192135e-001 
-5.201475e-001 
-5.205690e-001 
-5.207058e-001 
-5.200805e-001 
-5.170314e-001 
-5.139156e-001 
-5.139584e-001 
-5.145943e-001 
-5.138399e-001 
-5.111005e-001 
-5.077017e-001 
-5.041430e-001 
-5.014838e-001 
-4.990537e-001 
-4.965191e-001 
-4.930149e-001 
-4.857536e-001 
-4.767421e-001 
-4.700173e-001 
-4.627652e-001 
-4.518591e-001 
-4.403554e-001 
-4.278419e-001 
-4.120530e-001 
-3.897291e-001 
-3.490941e-001 
-2.768223e-001 
-1.755315e-001 
-6.880625e-002 
1.673334e-002 
7.835601e-002 
1.302187e-001 
1.812390e-001 
2.371878e-001 
3.083505e-001 
3.847918e-001 
4.280272e-001 
4.104864e-001 
3.500571e-001 
2.782324e-001 
1.981058e-001 
9.718127e-002 
-3.206678e-002 
-1.957240e-001 
-4.063730e-001 
-6.680876e-001 
-9.595104e-001 
-1.252359e+000 
-1.544381e+000 
-1.846465e+000 
-2.158166e+000 
-2.471997e+000 
-2.781736e+000 
-3.086652e+000 
-3.389179e+000 
-3.688177e+000 
-3.978019e+000 
-4.253668e+000 
-4.509711e+000 
-4.740186e+000 
-4.943676e+000 
-5.123598e+000 
-5.285819e+000 
-5.433797e+000 
-5.564911e+000 
-5.673561e+000 
-5.761092e+000 
-5.827307e+000 
-5.869763e+000 
-5.888586e+000 
-5.883645e+000 
-5.856440e+000 
-5.807700e+000 
-5.735312e+000 
-5.636588e+000 
-5.511630e+000 
-5.359447e+000 
-5.179805e+000 
-4.971528e+000 
-4.733805e+000 
-4.471079e+000 
-4.187592e+000 
-3.881754e+000 
-3.553234e+000 
-3.206463e+000 
-2.844964e+000 
-2.470979e+000 
-2.087806e+000 
-1.700640e+000 
-1.319443e+000 
-9.480940e-001 
-5.846890e-001 
-2.347650e-001 
9.808505e-002 
4.116198e-001 
7.030354e-001 
9.710288e-001 
1.213865e+000 
1.431208e+000 
1.629482e+000 
1.808571e+000 
1.967298e+000 
2.108084e+000 
2.231761e+000 
2.342943e+000 
2.442470e+000 
2.530558e+000 
2.609730e+000 
2.680417e+000 
2.744736e+000 
2.806329e+000 
2.866139e+000 
2.927142e+000 
2.988341e+000 
3.046736e+000 
3.103021e+000 
3.158729e+000 
3.214532e+000 
3.270195e+000 
3.324386e+000 
3.378166e+000 
3.431503e+000 
3.482829e+000 
3.533901e+000 
3.585718e+000 
3.636705e+000 
3.683495e+000 
3.727227e+000 
3.771357e+000 
3.814542e+000 
3.854703e+000 
3.891571e+000 
3.924635e+000 
3.953347e+000 
3.977060e+000 
3.996937e+000 
4.014321e+000 
4.027252e+000 
4.032473e+000 
4.030639e+000 
4.023521e+000 
4.009602e+000 
3.988412e+000 
3.959415e+000 
3.921652e+000 
3.875975e+000 
3.823448e+000 
3.763398e+000 
3.697262e+000 
3.623213e+000 
3.539167e+000 
3.447811e+000 
3.351392e+000 
3.249829e+000 
3.143473e+000 
3.032274e+000 
2.913916e+000 
2.790951e+000 
2.665921e+000 
2.539200e+000 
2.412990e+000 
2.285907e+000 
2.155292e+000 
2.024918e+000 
1.895691e+000 
1.766764e+000 
1.643478e+000 
1.522746e+000 
1.400768e+000 
1.281371e+000 
1.166106e+000 
1.055282e+000 
9.506480e-001 
8.499283e-001 
7.525596e-001 
6.614733e-001 
5.726486e-001 
4.873558e-001 
4.095951e-001 
3.376519e-001 
2.668704e-001 
1.997642e-001 
1.384204e-001 
8.260897e-002 
3.232710e-002 
-1.660162e-002 
-6.303338e-002 
-1.036787e-001 
-1.408394e-001 
-1.763599e-001 
-2.053896e-001 
-2.296486e-001 
-2.539692e-001 
-2.778574e-001 
-2.990277e-001 
-3.153918e-001 
-3.268101e-001 
-3.376411e-001 
-3.473487e-001 
-3.531262e-001 
-3.587610e-001 
-3.640652e-001 
-3.654413e-001 
-3.645651e-001 
-3.642665e-001 
-3.635557e-001 
-3.618491e-001 
-3.579928e-001 
-3.525413e-001 
-3.483451e-001 
-3.442290e-001 
-3.392319e-001 
-3.343043e-001 
-3.284956e-001 
-3.209876e-001 
-3.153185e-001 
-3.117234e-001 
-3.079186e-001 
-3.045641e-001 
-3.002196e-001 
-2.946808e-001 
-2.895760e-001 
-2.876249e-001 
-2.879172e-001 
-2.886399e-001 
-2.879744e-001 
-2.853187e-001 
-2.841299e-001 
-2.853504e-001 
-2.875351e-001 
-2.908997e-001 
-2.946696e-001 
-2.958364e-001 
-2.973449e-001 
-3.009176e-001 
-3.039445e-001 
-3.083340e-001 
-3.136565e-001 
-3.181887e-001 
-3.230256e-001 
-3.296431e-001 
-3.372531e-001 
-3.452389e-001 
-3.511850e-001 
-3.556120e-001 
-3.620162e-001 
-3.704804e-001 
-3.791811e-001 
-3.884740e-001 
-3.977159e-001 
-4.040147e-001 
-4.094056e-001 
-4.162915e-001 
-4.241864e-001 
-4.318650e-001 
-4.393577e-001 
-4.450493e-001 
-4.500723e-001 
-4.555313e-001 
-4.615134e-001 
-4.677550e-001 
-4.740149e-001 
-4.782697e-001 
-4.821314e-001 
-4.877218e-001 
-4.926263e-001 
-4.968656e-001 
-5.019909e-001 
-5.053020e-001 
-5.083490e-001 
-5.131319e-001 
-5.161563e-001 
-5.199407e-001 
-5.248133e-001 
-5.265583e-001 
-5.285445e-001 
-5.325551e-001 
-5.355593e-001 
-5.388701e-001 
-5.397293e-001 
-5.385597e-001 
-5.412377e-001 
-5.435936e-001 
-5.436234e-001 
-5.456213e-001 
-5.472679e-001 
-5.476148e-001 
-5.470690e-001 
-5.456183e-001 
-5.464444e-001 
-5.477811e-001 
-5.460327e-001 
-5.444999e-001 
-5.437435e-001 
-5.441279e-001 
-5.452185e-001 
-5.438337e-001 
-5.415615e-001 
-5.396537e-001 
-5.373756e-001 
-5.370387e-001 
-5.366278e-001 
-5.357070e-001 
-5.362915e-001 
-5.336125e-001 
-5.290309e-001 
-5.279652e-001 
-5.281961e-001 
-5.280435e-001 
-5.276064e-001 
-5.249235e-001 
-5.238065e-001 
-5.232215e-001 
-5.209887e-001 
-5.197355e-001 
-5.197320e-001 
-5.181042e-001 
-5.155290e-001 
-5.141278e-001 
-5.124781e-001 
-5.110968e-001 
-5.083902e-001 
-5.034723e-001 
-4.985090e-001 
-4.953350e-001 
-4.877660e-001 
-4.737482e-001 
-4.459424e-001 
-3.866141e-001 
-2.952323e-001 
-1.956052e-001 
-1.137807e-001 
-5.359240e-002 
-1.799600e-003 
5.040670e-002 
1.040954e-001 
1.698938e-001 
2.493089e-001 
3.079892e-001 
3.103553e-001 
2.680511e-001 
2.146186e-001 
1.566965e-001 
8.185541e-002 
-1.830284e-002 
-1.505968e-001 
-3.252738e-001 
-5.540636e-001 
-8.228034e-001 
-1.097504e+000 
-1.368380e+000 
-1.650744e+000 
-1.950079e+000 
-2.260740e+000 
-2.574732e+000 
-2.884570e+000 
-3.192395e+000 
-3.496573e+000 
-3.792539e+000 
-4.080971e+000 
-4.359870e+000 
-4.615846e+000 
-4.842120e+000 
-5.041460e+000 
-5.218425e+000 
-5.379422e+000 
-5.524285e+000 
-5.648091e+000 
-5.748910e+000 
-5.825305e+000 
-5.874807e+000 
-5.903159e+000 
-5.913115e+000 
-5.903272e+000 
-5.872846e+000 
-5.818274e+000 
-5.739691e+000 
-5.639096e+000 
-5.516724e+000 
-5.371041e+000 
-5.199528e+000 
-4.998336e+000 
-4.770101e+000 
-4.516972e+000 
-4.241580e+000 
-3.946317e+000 
-3.630420e+000 
-3.295246e+000 
-2.942503e+000 
-2.574794e+000 
-2.198361e+000 
-1.818981e+000 
-1.439197e+000 
-1.064836e+000 
-6.996422e-001 
-3.477477e-001 
-1.247512e-002 
3.036709e-001 
5.984300e-001 
8.712987e-001 
1.123505e+000 
1.351664e+000 
1.555211e+000 
1.737920e+000 
1.901732e+000 
2.048724e+000 
2.178187e+000 
2.290953e+000 
2.389814e+000 
2.475416e+000 
2.548022e+000 
2.612342e+000 
2.671389e+000 
2.726893e+000 
2.777617e+000 
2.824208e+000 
2.871632e+000 
2.920261e+000 
2.968934e+000 
3.016538e+000 
3.062824e+000 
3.109234e+000 
3.155931e+000 
3.201736e+000 
3.249486e+000 
3.298781e+000 
3.347280e+000 
3.395138e+000 
3.442597e+000 
3.490696e+000 
3.539344e+000 
3.587430e+000 
3.633249e+000 
3.677278e+000 
3.720375e+000 
3.762311e+000 
3.802531e+000 
3.840436e+000 
3.874557e+000 
3.905367e+000 
3.933469e+000 
3.957727e+000 
3.979337e+000 
3.996957e+000 
4.008031e+000 
4.014783e+000 
4.017066e+000 
4.014015e+000 
4.006412e+000 
3.993123e+000 
3.972586e+000 
3.945850e+000 
3.912362e+000 
3.872497e+000 
3.828612e+000 
3.777467e+000 
3.717520e+000 
3.651241e+000 
3.579389e+000 
3.500885e+000 
3.416974e+000 
3.326970e+000 
3.230562e+000 
3.128995e+000 
3.022347e+000 
2.911410e+000 
2.797337e+000 
2.679491e+000 
2.556359e+000 
2.430813e+000 
2.304904e+000 
2.178047e+000 
2.051417e+000 
1.925889e+000 
1.798561e+000 
1.671053e+000 
1.546275e+000 
1.424219e+000 
1.306297e+000 
1.191830e+000 
1.078201e+000 
9.687889e-001 
8.651390e-001 
7.642745e-001 
6.690562e-001 
5.799991e-001 
4.945164e-001 
4.133913e-001 
3.375714e-001 
2.663223e-001 
2.015588e-001 
1.408092e-001 
8.230138e-002 
2.874359e-002 
-1.967090e-002 
-6.347943e-002 
-1.014042e-001 
-1.367426e-001 
-1.716145e-001 
-2.031664e-001 
-2.313730e-001 
-2.556757e-001 
-2.751081e-001 
-2.922443e-001 
-3.082258e-001 
-3.221936e-001 
-3.358056e-001 
-3.472407e-001 
-3.547373e-001 
-3.612367e-001 
-3.662444e-001 
-3.695748e-001 
-3.740823e-001 
-3.763004e-001 
-3.752546e-001 
-3.743753e-001 
-3.742385e-001 
-3.732673e-001 
-3.710264e-001 
-3.667318e-001 
-3.629392e-001 
-3.605837e-001 
-3.569773e-001 
-3.531496e-001 
-3.507171e-001 
-3.479004e-001 
-3.429783e-001 
-3.386259e-001 
-3.363168e-001 
-3.348145e-001 
-3.324309e-001 
-3.289016e-001 
-3.255264e-001 
-3.234198e-001 
-3.225758e-001 
-3.233314e-001 
-3.242698e-001 
-3.236494e-001 
-3.219891e-001 
-3.211394e-001 
-3.231703e-001 
-3.263977e-001 
-3.286888e-001 
-3.317495e-001 
-3.337386e-001 
-3.347189e-001 
-3.387278e-001 
-3.445634e-001 
-3.506430e-001 
-3.572870e-001 
-3.622583e-001 
-3.669383e-001 
-3.730338e-001 
-3.788495e-001 
-3.856409e-001 
-3.928053e-001 
-3.984354e-001 
-4.039899e-001 
-4.110786e-001 
-4.175772e-001 
-4.233452e-001 
-4.295912e-001 
-4.351937e-001 
-4.405039e-001 
-4.474683e-001 
-4.541806e-001 
-4.600202e-001 
-4.646256e-001 
-4.678427e-001 
-4.726090e-001 
-4.784167e-001 
-4.840661e-001 
-4.902256e-001 
-4.952526e-001 
-4.976786e-001 
-5.007355e-001 
-5.047305e-001 
-5.098670e-001 
-5.143511e-001 
-5.169493e-001 
-5.190369e-001 
-5.204053e-001 
-5.224821e-001 
-5.258525e-001 
-5.297746e-001 
-5.314130e-001 
-5.319167e-001 
-5.323459e-001 
-5.339379e-001 
-5.357043e-001 
-5.360376e-001 
-5.368115e-001 
-5.369717e-001 
-5.355894e-001 
-5.340767e-001 
-5.350662e-001 
-5.359065e-001 
-5.363024e-001 
-5.344330e-001 
-5.321266e-001 
-5.325316e-001 
-5.316662e-001 
-5.291755e-001 
-5.278619e-001 
-5.266942e-001 
-5.245373e-001 
-5.237141e-001 
-5.224259e-001 
-5.220088e-001 
-5.207598e-001 
-5.174895e-001 
-5.153723e-001 
-5.144561e-001 
-5.127549e-001 
-5.105467e-001 
-5.080204e-001 
-5.041901e-001 
-5.013583e-001 
-5.003638e-001 
-5.003720e-001 
-4.993618e-001 
-4.965122e-001 
-4.938600e-001 
-4.927953e-001 
-4.924707e-001 
-4.926859e-001 
-4.932193e-001 
-4.929755e-001 
-4.905524e-001 
-4.872159e-001 
-4.863193e-001 
-4.873956e-001 
-4.882149e-001 
-4.875691e-001 
-4.855705e-001 
-4.834016e-001 
-4.822228e-001 
-4.793079e-001 
-4.754017e-001 
-4.719384e-001 
-4.657795e-001 
-4.572069e-001 
-4.438195e-001 
-4.156046e-001 
-3.561180e-001 
-2.587410e-001 
-1.465834e-001 
-5.577237e-002 
7.886444e-003 
5.861499e-002 
1.049043e-001 
1.542324e-001 
2.180906e-001 
2.962707e-001 
3.537143e-001 
3.497669e-001 
2.922051e-001 
2.188953e-001 
1.429933e-001 
5.151493e-002 
-6.652708e-002 
-2.141351e-001 
-4.055546e-001 
-6.526104e-001 
-9.365772e-001 
-1.226820e+000 
-1.515014e+000 
-1.807668e+000 
-2.109214e+000 
-2.413054e+000 
-2.711158e+000 
-3.006951e+000 
-3.298990e+000 
-3.585390e+000 
-3.868950e+000 
-4.144737e+000 
-4.400178e+000 
-4.630401e+000 
-4.834697e+000 
-5.016313e+000 
-5.181222e+000 
-5.329287e+000 
-5.462101e+000 
-5.577290e+000 
-5.670282e+000 
-5.740188e+000 
-5.789903e+000 
-5.819718e+000 
-5.831393e+000 
-5.824625e+000 
-5.797042e+000 
-5.746579e+000 
-5.670091e+000 
-5.567264e+000 
-5.436510e+000 
-5.277429e+000 
-5.089139e+000 
-4.870308e+000 
-4.620843e+000 
-4.343851e+000 
-4.042473e+000 
-3.718934e+000 
-3.373858e+000 
-3.010171e+000 
-2.631328e+000 
-2.236503e+000 
-1.833045e+000 
-1.432029e+000 
-1.039347e+000 
-6.582584e-001 
-2.908391e-001 
5.976285e-002 
3.876800e-001 
6.927539e-001 
9.742019e-001 
1.224673e+000 
1.446725e+000 
1.645982e+000 
1.823693e+000 
1.980365e+000 
2.117397e+000 
2.236150e+000 
2.341349e+000 
2.433707e+000 
2.511220e+000 
2.579262e+000 
2.639305e+000 
2.692611e+000 
2.742542e+000 
2.791994e+000 
2.840835e+000 
2.890839e+000 
2.938233e+000 
2.982290e+000 
3.027708e+000 
3.073269e+000 
3.119391e+000 
3.165752e+000 
3.212580e+000 
3.259451e+000 
3.306469e+000 
3.351595e+000 
3.398836e+000 
3.446327e+000 
3.490904e+000 
3.535507e+000 
3.580232e+000 
3.625161e+000 
3.667694e+000 
3.706737e+000 
3.743732e+000 
3.778997e+000 
3.810116e+000 
3.840536e+000 
3.869441e+000 
3.893128e+000 
3.910615e+000 
3.921429e+000 
3.928505e+000 
3.932070e+000 
3.930498e+000 
3.922170e+000 
3.906651e+000 
3.884654e+000 
3.855546e+000 
3.818879e+000 
3.776100e+000 
3.726059e+000 
3.667543e+000 
3.599509e+000 
3.521955e+000 
3.439444e+000 
3.351420e+000 
3.251966e+000 
3.144890e+000 
3.031400e+000 
2.911364e+000 
2.787325e+000 
2.658368e+000 
2.526362e+000 
2.392484e+000 
2.254129e+000 
2.113996e+000 
1.976202e+000 
1.837960e+000 
1.701552e+000 
1.566769e+000 
1.434777e+000 
1.307796e+000 
1.186214e+000 
1.069979e+000 
9.584191e-001 
8.503982e-001 
7.472643e-001 
6.518003e-001 
5.632631e-001 
4.824377e-001 
4.071042e-001 
3.361562e-001 
2.683736e-001 
2.054891e-001 
1.496579e-001 
9.944566e-002 
5.453392e-002 
1.395721e-002 
-2.307068e-002 
-5.624739e-002 
-8.517000e-002 
-1.104296e-001 
-1.311518e-001 
-1.503988e-001 
-1.680934e-001 
-1.810004e-001 
-1.917009e-001 
-2.008031e-001 
-2.078375e-001 
-2.144420e-001 
-2.207520e-001 
-2.250181e-001 
-2.271219e-001 
-2.269002e-001 
-2.261308e-001 
-2.273484e-001 
-2.277973e-001 
-2.275960e-001 
-2.273872e-001 
-2.259921e-001 
-2.242571e-001 
-2.244836e-001 
-2.256288e-001 
-2.267303e-001 
-2.262329e-001 
-2.246418e-001 
-2.243647e-001 
-2.252167e-001 
-2.274172e-001 
-2.299862e-001 
-2.313668e-001 
-2.321829e-001 
-2.337429e-001 
-2.364366e-001 
-2.412774e-001 
-2.458307e-001 
-2.498799e-001 
-2.534348e-001 
-2.561982e-001 
-2.605621e-001 
-2.668650e-001 
-2.723833e-001 
-2.790724e-001 
-2.859005e-001 
-2.914913e-001 
-2.979028e-001 
-3.056707e-001 
-3.136041e-001 
-3.205685e-001 
-3.264724e-001 
-3.329826e-001 
-3.425070e-001 
-3.504101e-001 
-3.568369e-001 
-3.638880e-001 
-3.717439e-001 
-3.785199e-001 
-3.849978e-001 
-3.924232e-001 
-4.004218e-001 
-4.074691e-001 
-4.116845e-001 
-4.170268e-001 
-4.238322e-001 
-4.303600e-001 
-4.349909e-001 
-4.383382e-001 
-4.424107e-001 
-4.480198e-001 
-4.530247e-001 
-4.574783e-001 
-4.622308e-001 
-4.642276e-001 
-4.651092e-001 
-4.665401e-001 
-4.689249e-001 
-4.733239e-001 
-4.763449e-001 
-4.766685e-001 
-4.772789e-001 
-4.776675e-001 
-4.782360e-001 
-4.806276e-001 
-4.825384e-001 
-4.834702e-001 
-4.844583e-001 
-4.852852e-001 
-4.871105e-001 
-4.884204e-001 
-4.887056e-001 
-4.891537e-001 
-4.889772e-001 
-4.882933e-001 
-4.891741e-001 
-4.913182e-001 
-4.932678e-001 
-4.924319e-001 
-4.893357e-001 
-4.889603e-001 
-4.894079e-001 
-4.888129e-001 
-4.881699e-001 
-4.871403e-001 
-4.849321e-001 
-4.831823e-001 
-4.812525e-001 
-4.803587e-001 
-4.805673e-001 
-4.780786e-001 
-4.746549e-001 
-4.723808e-001 
-4.710405e-001 
-4.706893e-001 
-4.697745e-001 
-4.661070e-001 
-4.627783e-001 
-4.599233e-001 
-4.572609e-001 
-4.562097e-001 
-4.559470e-001 
-4.549493e-001 
-4.512725e-001 
-4.463066e-001 
-4.431965e-001 
-4.419902e-001 
-4.397525e-001 
-4.373753e-001 
-4.348335e-001 
-4.314170e-001 
-4.267295e-001 
-4.206943e-001 
-4.128124e-001 
-3.974833e-001 
-3.625889e-001 
-2.920970e-001 
-1.885831e-001 
-8.117816e-002 
1.694966e-003 
6.071746e-002 
1.099693e-001 
1.585638e-001 
2.122220e-001 
2.813857e-001 
3.623228e-001 
4.143885e-001 
4.025125e-001 
3.414203e-001 
2.688331e-001 
1.928874e-001 
1.001650e-001 
-2.032997e-002 
-1.745655e-001 
-3.770617e-001 
-6.351998e-001 
-9.302871e-001 
-1.230437e+000 
-1.524736e+000 
-1.822513e+000 
-2.127614e+000 
-2.436561e+000 
-2.741516e+000 
-3.042206e+000 
-3.340922e+000 
-3.636686e+000 
-3.923433e+000 
-4.196066e+000 
-4.445649e+000 
-4.667489e+000 
-4.862686e+000 
-5.034066e+000 
-5.190678e+000 
-5.333656e+000 
-5.456588e+000 
-5.556378e+000 
-5.633661e+000 
-5.687942e+000 
-5.721571e+000 
-5.735705e+000 
-5.730507e+000 
-5.705458e+000 
-5.654103e+000 
-5.574589e+000 
-5.468086e+000 
-5.333647e+000 
-5.169727e+000 
-4.974169e+000 
-4.746060e+000 
-4.488316e+000 
-4.204064e+000 
-3.894450e+000 
-3.562609e+000 
-3.208077e+000 
-2.833831e+000 
-2.445397e+000 
-2.046397e+000 
-1.643179e+000 
-1.244177e+000 
-8.533929e-001 
-4.738208e-001 
-1.107059e-001 
2.319919e-001 
5.497745e-001 
8.427585e-001 
1.109668e+000 
1.349089e+000 
1.560814e+000 
1.747057e+000 
1.910268e+000 
2.052367e+000 
2.175396e+000 
2.284519e+000 
2.381295e+000 
2.463074e+000 
2.532624e+000 
2.592241e+000 
2.646526e+000 
2.699537e+000 
2.750033e+000 
2.798094e+000 
2.847459e+000 
2.895978e+000 
2.943621e+000 
2.991744e+000 
3.040384e+000 
3.090361e+000 
3.139701e+000 
3.188257e+000 
3.239362e+000 
3.293157e+000 
3.346969e+000 
3.399671e+000 
3.450525e+000 
3.500972e+000 
3.550290e+000 
3.600223e+000 
3.651577e+000 
3.699648e+000 
3.743591e+000 
3.784141e+000 
3.820892e+000 
3.854798e+000 
3.886129e+000 
3.912256e+000 
3.933780e+000 
3.947911e+000 
3.954060e+000 
3.955091e+000 
3.949092e+000 
3.933787e+000 
3.910503e+000 
3.878744e+000 
3.837098e+000 
3.788109e+000 
3.729931e+000 
3.661732e+000 
3.583330e+000 
3.495029e+000 
3.399147e+000 
3.296958e+000 
3.185593e+000 
3.067066e+000 
2.941619e+000 
2.808746e+000 
2.672239e+000 
2.533167e+000 
2.393581e+000 
2.252916e+000 
2.108284e+000 
1.963374e+000 
1.822225e+000 
1.682009e+000 
1.546717e+000 
1.415486e+000 
1.286488e+000 
1.163658e+000 
1.045457e+000 
9.335368e-001 
8.311231e-001 
7.329642e-001 
6.384268e-001 
5.515435e-001 
4.696090e-001 
3.960985e-001 
3.308014e-001 
2.697868e-001 
2.135536e-001 
1.619740e-001 
1.140478e-001 
7.282674e-002 
3.851602e-002 
7.968975e-003 
-1.795765e-002 
-4.183046e-002 
-6.429931e-002 
-8.391846e-002 
-9.861842e-002 
-1.108539e-001 
-1.203301e-001 
-1.277841e-001 
-1.342162e-001 
-1.386089e-001 
-1.425395e-001 
-1.466860e-001 
-1.495909e-001 
-1.498903e-001 
-1.500151e-001 
-1.481597e-001 
-1.457934e-001 
-1.440733e-001 
-1.431936e-001 
-1.435224e-001 
-1.439242e-001 
-1.419295e-001 
-1.377612e-001 
-1.359786e-001 
-1.362049e-001 
-1.377842e-001 
-1.396903e-001 
-1.415758e-001 
-1.438663e-001 
-1.465064e-001 
-1.479574e-001 
-1.514451e-001 
-1.582172e-001 
-1.639881e-001 
-1.696494e-001 
-1.761667e-001 
-1.848343e-001 
-1.941393e-001 
-2.016696e-001 
-2.075042e-001 
-2.159954e-001 
-2.251558e-001 
-2.340856e-001 
-2.437685e-001 
-2.539289e-001 
-2.641031e-001 
-2.720026e-001 
-2.794202e-001 
-2.892709e-001 
-3.009070e-001 
-3.106793e-001 
-3.194662e-001 
-3.275080e-001 
-3.364856e-001 
-3.446350e-001 
-3.517132e-001 
-3.602668e-001 
-3.682532e-001 
-3.751435e-001 
-3.823266e-001 
-3.893623e-001 
-3.961688e-001 
-4.028296e-001 
-4.067568e-001 
-4.104917e-001 
-4.150506e-001 
-4.199365e-001 
-4.256514e-001 
-4.295347e-001 
-4.315420e-001 
-4.334695e-001 
-4.362555e-001 
-4.395591e-001 
-4.431676e-001 
-4.458633e-001 
-4.483771e-001 
-4.489616e-001 
-4.494076e-001 
-4.515355e-001 
-4.538921e-001 
-4.562439e-001 
-4.562482e-001 
-4.544894e-001 
-4.548186e-001 
-4.574767e-001 
-4.595025e-001 
-4.615358e-001 
-4.615424e-001 
-4.606551e-001 
-4.604556e-001 
-4.601434e-001 
-4.612060e-001 
-4.630709e-001 
-4.637573e-001 
-4.623695e-001 
-4.606670e-001 
-4.592974e-001 
-4.599823e-001 
-4.609696e-001 
-4.595230e-001 
-4.574855e-001 
-4.566547e-001 
-4.558033e-001 
-4.540011e-001 
-4.517968e-001 
-4.492521e-001 
-4.473416e-001 
-4.451117e-001 
-4.426572e-001 
-4.427327e-001 
-4.419603e-001 
-4.386577e-001 
-4.354681e-001 
-4.335821e-001 
-4.332260e-001 
-4.336194e-001 
-4.329251e-001 
-4.308324e-001 
-4.274599e-001 
-4.226195e-001 
-4.198327e-001 
-4.181945e-001 
-4.160003e-001 
-4.117296e-001 
-4.045234e-001 
-3.929010e-001 
-3.676234e-001 
-3.116428e-001 
-2.198140e-001 
-1.159918e-001 
-3.066289e-002 
2.948479e-002 
7.564974e-002 
1.173782e-001 
1.614780e-001 
2.199687e-001 
2.933273e-001 
3.448849e-001 
3.330013e-001 
2.643916e-001 
1.777544e-001 
8.724593e-002 
-1.737524e-002 
-1.447325e-001 
-3.012766e-001 
-5.032657e-001 
-7.621366e-001 
-1.063888e+000 
-1.378863e+000 
-1.690583e+000 
-2.005345e+000 
-2.322494e+000 
-2.636507e+000 
-2.947626e+000 
-3.256353e+000 
-3.560603e+000 
-3.860849e+000 
-4.149040e+000 
-4.415366e+000 
-4.655404e+000 
-4.863884e+000 
-5.047707e+000 
-5.214942e+000 
-5.365231e+000 
-5.494063e+000 
-5.599070e+000 
-5.676153e+000 
-5.728306e+000 
-5.756188e+000 
-5.756303e+000 
-5.732243e+000 
-5.684235e+000 
-5.606298e+000 
-5.497205e+000 
-5.359154e+000 
-5.189062e+000 
-4.986212e+000 
-4.746484e+000 
-4.472457e+000 
-4.172871e+000 
-3.847782e+000 
-3.496511e+000 
-3.123586e+000 
-2.729373e+000 
-2.317116e+000 
-1.895497e+000 
-1.471930e+000 
-1.056505e+000 
-6.527094e-001 
-2.607756e-001 
1.122876e-001 
4.613485e-001 
7.853720e-001 
1.080278e+000 
1.342720e+000 
1.573162e+000 
1.774302e+000 
1.946955e+000 
2.093475e+000 
2.217676e+000 
2.323179e+000 
2.413477e+000 
2.488798e+000 
2.549992e+000 
2.602933e+000 
2.649554e+000 
2.691055e+000 
2.734207e+000 
2.778880e+000 
2.822189e+000 
2.866127e+000 
2.910791e+000 
2.957919e+000 
3.007555e+000 
3.057951e+000 
3.109370e+000 
3.161325e+000 
3.212730e+000 
3.264804e+000 
3.319264e+000 
3.374808e+000 
3.430220e+000 
3.482410e+000 
3.532760e+000 
3.581251e+000 
3.628395e+000 
3.674225e+000 
3.716405e+000 
3.755063e+000 
3.790980e+000 
3.822760e+000 
3.850058e+000 
3.875059e+000 
3.894194e+000 
3.906468e+000 
3.911906e+000 
3.910775e+000 
3.904461e+000 
3.891293e+000 
3.868999e+000 
3.839670e+000 
3.802881e+000 
3.756229e+000 
3.703272e+000 
3.642973e+000 
3.573430e+000 
3.495327e+000 
3.409155e+000 
3.316536e+000 
3.218780e+000 
3.113483e+000 
3.001038e+000 
2.883779e+000 
2.760094e+000 
2.633801e+000 
2.505722e+000 
2.375096e+000 
2.241500e+000 
2.106668e+000 
1.970896e+000 
1.835956e+000 
1.703904e+000 
1.574817e+000 
1.449180e+000 
1.324231e+000 
1.201124e+000 
1.083312e+000 
9.727155e-001 
8.655873e-001 
7.628009e-001 
6.649348e-001 
5.722973e-001 
4.853128e-001 
4.039072e-001 
3.280411e-001 
2.587912e-001 
1.938326e-001 
1.325866e-001 
7.818473e-002 
2.988518e-002 
-1.378689e-002 
-5.459362e-002 
-9.280718e-002 
-1.277922e-001 
-1.567728e-001 
-1.809286e-001 
-2.007561e-001 
-2.172904e-001 
-2.327866e-001 
-2.483979e-001 
-2.608353e-001 
-2.691642e-001 
-2.744961e-001 
-2.778728e-001 
-2.816925e-001 
-2.859393e-001 
-2.886020e-001 
-2.901255e-001 
-2.907596e-001 
-2.899275e-001 
-2.891390e-001 
-2.886157e-001 
-2.885785e-001 
-2.875297e-001 
-2.859546e-001 
-2.844451e-001 
-2.840028e-001 
-2.844821e-001 
-2.839974e-001 
-2.826894e-001 
-2.821164e-001 
-2.827696e-001 
-2.837306e-001 
-2.857643e-001 
-2.870768e-001 
-2.869892e-001 
-2.872930e-001 
-2.885186e-001 
-2.913957e-001 
-2.947420e-001 
-2.982273e-001 
-2.999009e-001 
-3.015102e-001 
-3.047177e-001 
-3.100341e-001 
-3.167558e-001 
-3.231733e-001 
-3.286492e-001 
-3.339134e-001 
-3.396010e-001 
-3.456880e-001 
-3.547245e-001 
-3.638602e-001 
-3.707917e-001 
-3.771171e-001 
-3.837221e-001 
-3.914628e-001 
-4.005153e-001 
-4.088741e-001 
-4.163066e-001 
-4.229925e-001 
-4.288897e-001 
-4.364337e-001 
-4.440716e-001 
-4.500338e-001 
-4.559831e-001 
-4.619418e-001 
-4.672667e-001 
-4.730659e-001 
-4.795087e-001 
-4.865770e-001 
-4.924017e-001 
-4.952011e-001 
-4.982612e-001 
-5.034964e-001 
-5.094943e-001 
-5.140161e-001 
-5.174983e-001 
-5.197775e-001 
-5.220616e-001 
-5.246223e-001 
-5.268472e-001 
-5.287699e-001 
-5.312359e-001 
-5.320939e-001 
-5.327868e-001 
-5.348280e-001 
-5.357443e-001 
-5.374506e-001 
-5.392593e-001 
-5.388505e-001 
-5.387298e-001 
-5.405589e-001 
-5.424789e-001 
-5.447179e-001 
-5.448431e-001 
-5.435972e-001 
-5.443299e-001 
-5.448504e-001 
-5.440587e-001 
-5.437587e-001 
-5.432114e-001 
-5.410954e-001 
-5.391459e-001 
-5.382424e-001 
-5.377434e-001 
-5.363818e-001 
-5.328136e-001 
-5.293742e-001 
-5.267994e-001 
-5.245778e-001 
-5.241412e-001 
-5.237608e-001 
-5.224323e-001 
-5.200634e-001 
-5.161630e-001 
-5.145352e-001 
-5.146887e-001 
-5.139409e-001 
-5.137287e-001 
-5.135896e-001 
-5.118068e-001 
-5.110313e-001 
-5.093267e-001 
-5.070078e-001 
-5.058970e-001 
-5.035853e-001 
-5.013737e-001 
-4.998112e-001 
-4.976336e-001 
-4.925790e-001 
-4.846438e-001 
-4.727318e-001 
-4.518142e-001 
-4.034952e-001 
-3.181319e-001 
-2.190465e-001 
-1.376631e-001 
-8.145651e-002 
-3.750324e-002 
9.675143e-004 
3.729988e-002 
8.397608e-002 
1.483906e-001 
1.959945e-001 
1.793633e-001 
1.048025e-001 
1.070706e-002 
-8.684468e-002 
-1.984881e-001 
-3.319153e-001 
-4.908734e-001 
-6.904794e-001 
-9.481378e-001 
-1.251106e+000 
-1.565370e+000 
-1.876727e+000 
-2.186265e+000 
-2.495814e+000 
-2.802723e+000 
-3.107066e+000 
-3.408580e+000 
-3.704978e+000 
-3.993847e+000 
-4.270686e+000 
-4.525562e+000 
-4.750000e+000 
-4.946480e+000 
-5.120254e+000 
-5.278100e+000 
-5.418644e+000 
-5.536964e+000 
-5.630674e+000 
-5.695547e+000 
-5.730357e+000 
-5.737862e+000 
-5.718753e+000 
-5.673379e+000 
-5.601055e+000 
-5.494072e+000 
-5.353166e+000 
-5.181602e+000 
-4.977762e+000 
-4.740706e+000 
-4.472996e+000 
-4.178229e+000 
-3.858422e+000 
-3.514505e+000 
-3.147809e+000 
-2.763178e+000 
-2.363226e+000 
-1.952283e+000 
-1.540300e+000 
-1.138666e+000 
-7.485551e-001 
-3.703298e-001 
-9.165084e-003 
3.326260e-001 
6.514524e-001 
9.421802e-001 
1.201571e+000 
1.429444e+000 
1.630233e+000 
1.810277e+000 
1.969596e+000 
2.108274e+000 
2.228542e+000 
2.331109e+000 
2.418671e+000 
2.495458e+000 
2.563759e+000 
2.625893e+000 
2.683493e+000 
2.738275e+000 
2.792243e+000 
2.846371e+000 
2.900547e+000 
2.954403e+000 
3.005964e+000 
3.054196e+000 
3.103033e+000 
3.152751e+000 
3.202035e+000 
3.249545e+000 
3.295755e+000 
3.339608e+000 
3.380991e+000 
3.419493e+000 
3.456887e+000 
3.493600e+000 
3.527096e+000 
3.558061e+000 
3.587487e+000 
3.615511e+000 
3.640253e+000 
3.661755e+000 
3.680139e+000 
3.696154e+000 
3.709651e+000 
3.721103e+000 
3.728255e+000 
3.728709e+000 
3.722997e+000 
3.712087e+000 
3.695773e+000 
3.674418e+000 
3.647810e+000 
3.613341e+000 
3.568897e+000 
3.515198e+000 
3.454812e+000 
3.387893e+000 
3.313224e+000 
3.230028e+000 
3.138675e+000 
3.039854e+000 
2.933259e+000 
2.822026e+000 
2.707650e+000 
2.587682e+000 
2.462278e+000 
2.334438e+000 
2.204635e+000 
2.074539e+000 
1.944786e+000 
1.813558e+000 
1.682369e+000 
1.551553e+000 
1.424123e+000 
1.301679e+000 
1.183448e+000 
1.067927e+000 
9.555348e-001 
8.459474e-001 
7.402772e-001 
6.415761e-001 
5.504776e-001 
4.649779e-001 
3.825996e-001 
3.040678e-001 
2.307466e-001 
1.640939e-001 
1.023812e-001 
4.550819e-002 
-5.720899e-003 
-5.271075e-002 
-9.641547e-002 
-1.358081e-001 
-1.700276e-001 
-1.997698e-001 
-2.275320e-001 
-2.528529e-001 
-2.731286e-001 
-2.898003e-001 
-3.033621e-001 
-3.159404e-001 
-3.278267e-001 
-3.366235e-001 
-3.436549e-001 
-3.492484e-001 
-3.516712e-001 
-3.540930e-001 
-3.569191e-001 
-3.582848e-001 
-3.599744e-001 
-3.592117e-001 
-3.562242e-001 
-3.549448e-001 
-3.535993e-001 
-3.522561e-001 
-3.520298e-001 
-3.497876e-001 
-3.457431e-001 
-3.435031e-001 
-3.410851e-001 
-3.392909e-001 
-3.380600e-001 
-3.352051e-001 
-3.335633e-001 
-3.320878e-001 
-3.304541e-001 
-3.298516e-001 
-3.304909e-001 
-3.284923e-001 
-3.270914e-001 
-3.286051e-001 
-3.315179e-001 
-3.342432e-001 
-3.365166e-001 
-3.376867e-001 
-3.387307e-001 
-3.419631e-001 
-3.455634e-001 
-3.524797e-001 
-3.594054e-001 
-3.627483e-001 
-3.650885e-001 
-3.692877e-001 
-3.742993e-001 
-3.818278e-001 
-3.888106e-001 
-3.942567e-001 
-4.007550e-001 
-4.060630e-001 
-4.116676e-001 
-4.191861e-001 
-4.267792e-001 
-4.332905e-001 
-4.392341e-001 
-4.452597e-001 
-4.530223e-001 
-4.605183e-001 
-4.666250e-001 
-4.723572e-001 
-4.776371e-001 
-4.831253e-001 
-4.888884e-001 
-4.953504e-001 
-5.023504e-001 
-5.066142e-001 
-5.094223e-001 
-5.129731e-001 
-5.171712e-001 
-5.218520e-001 
-5.257939e-001 
-5.273630e-001 
-5.289267e-001 
-5.307754e-001 
-5.314268e-001 
-5.336897e-001 
-5.358318e-001 
-5.365492e-001 
-5.363566e-001 
-5.360388e-001 
-5.365620e-001 
-5.374250e-001 
-5.379834e-001 
-5.373335e-001 
-5.359619e-001 
-5.360385e-001 
-5.374640e-001 
-5.383049e-001 
-5.399687e-001 
-5.392549e-001 
-5.372726e-001 
-5.388579e-001 
-5.396203e-001 
-5.403538e-001 
-5.428054e-001 
-5.426162e-001 
-5.406350e-001 
-5.396168e-001 
