64
0.5729
1.6619e+003
15.1265
-7.228528e-003 
-1.918762e-002 
-3.035719e-002 
-4.172751e-002 
-5.297111e-002 
-6.408861e-002 
-7.540713e-002 
-8.593933e-002 
-1.008709e-001 
-1.221193e-001 
-1.356497e-001 
-1.440834e-001 
-1.520336e-001 
-1.600500e-001 
-1.684831e-001 
-1.772494e-001 
-1.866932e-001 
-1.964190e-001 
-2.015951e-001 
-2.007094e-001 
-1.987772e-001 
-1.957142e-001 
-1.945654e-001 
-1.929604e-001 
-1.905902e-001 
-1.882822e-001 
-1.863248e-001 
-1.863846e-001 
-1.870958e-001 
-1.872265e-001 
-1.890030e-001 
-1.923225e-001 
-1.927805e-001 
-1.915473e-001 
-1.913269e-001 
-1.914060e-001 
-1.898628e-001 
-1.883381e-001 
-1.876242e-001 
-1.866150e-001 
-1.852542e-001 
-1.837114e-001 
-1.842438e-001 
-1.862201e-001 
-1.868246e-001 
-1.864836e-001 
-1.859071e-001 
-1.829654e-001 
-1.786207e-001 
-1.758962e-001 
-1.742822e-001 
-1.730038e-001 
-1.733138e-001 
-1.743218e-001 
-1.744878e-001 
-1.741996e-001 
-1.745793e-001 
-1.752379e-001 
-1.751021e-001 
-1.732274e-001 
-1.710163e-001 
-1.690586e-001 
-1.667944e-001 
-1.650681e-001 
-1.647450e-001 
-1.660978e-001 
-1.672524e-001 
-1.676438e-001 
-1.675232e-001 
-1.671342e-001 
-1.658276e-001 
-1.640581e-001 
-1.600428e-001 
-1.563083e-001 
-1.546246e-001 
-1.520420e-001 
-1.490609e-001 
-1.465551e-001 
-1.452060e-001 
-1.432419e-001 
-1.387877e-001 
-1.325385e-001 
-1.275286e-001 
-1.199078e-001 
-1.088486e-001 
-9.819220e-002 
-8.939426e-002 
-8.219931e-002 
-7.557345e-002 
-7.097538e-002 
-6.939068e-002 
-6.928218e-002 
-6.804629e-002 
-6.886611e-002 
-7.206871e-002 
-7.384852e-002 
-7.378556e-002 
-7.602531e-002 
-7.950469e-002 
-8.407115e-002 
-8.961838e-002 
-9.648335e-002 
-1.055584e-001 
-1.123609e-001 
-1.159847e-001 
-1.203572e-001 
-1.245337e-001 
-1.261095e-001 
-1.270877e-001 
-1.264343e-001 
-1.271796e-001 
-1.277864e-001 
-1.270940e-001 
-1.291669e-001 
-1.334120e-001 
-1.375392e-001 
-1.421780e-001 
-1.452173e-001 
-1.475938e-001 
-1.508535e-001 
-1.517237e-001 
-1.530272e-001 
-1.559512e-001 
-1.584307e-001 
-1.611179e-001 
-1.631404e-001 
-1.647091e-001 
-1.676944e-001 
-1.698707e-001 
-1.697491e-001 
-1.692759e-001 
-1.682203e-001 
-1.654734e-001 
-1.622972e-001 
-1.601016e-001 
-1.595170e-001 
-1.600093e-001 
-1.587634e-001 
-1.575937e-001 
-1.582166e-001 
-1.577570e-001 
-1.561066e-001 
-1.551307e-001 
-1.536424e-001 
-1.495808e-001 
-1.435081e-001 
-1.368659e-001 
-1.318331e-001 
-1.260152e-001 
-1.207253e-001 
-1.194684e-001 
-1.221746e-001 
-1.274632e-001 
-1.376011e-001 
-1.560183e-001 
-1.829312e-001 
-2.173021e-001 
-2.580949e-001 
-3.067809e-001 
-3.582362e-001 
-4.074415e-001 
-4.521193e-001 
-4.915643e-001 
-5.253928e-001 
-5.525340e-001 
-5.732089e-001 
-5.883257e-001 
-5.984317e-001 
-6.000347e-001 
-5.948710e-001 
-5.821891e-001 
-5.614119e-001 
-5.322272e-001 
-4.936132e-001 
-4.474313e-001 
-3.965866e-001 
-3.425175e-001 
-2.883393e-001 
-2.373133e-001 
-1.899457e-001 
-1.479484e-001 
-1.115810e-001 
-8.367511e-002 
-6.303210e-002 
-4.732307e-002 
-3.573309e-002 
-2.594126e-002 
-1.411015e-002 
-6.102750e-004 
1.407138e-002 
2.616297e-002 
3.522407e-002 
4.391264e-002 
4.815557e-002 
4.842931e-002 
4.759968e-002 
4.663191e-002 
4.512777e-002 
4.275720e-002 
4.029458e-002 
3.969386e-002 
3.974427e-002 
3.955093e-002 
3.973138e-002 
4.011572e-002 
4.137674e-002 
4.120521e-002 
4.033525e-002 
3.971143e-002 
3.766274e-002 
3.597702e-002 
3.350297e-002 
2.966144e-002 
2.756750e-002 
2.664004e-002 
2.570798e-002 
2.644438e-002 
2.731266e-002 
2.765829e-002 
2.797905e-002 
2.642384e-002 
2.422464e-002 
2.189185e-002 
1.929591e-002 
1.671933e-002 
1.428950e-002 
1.284872e-002 
1.231690e-002 
1.261147e-002 
1.306078e-002 
1.391249e-002 
1.352806e-002 
1.117129e-002 
8.417383e-003 
5.621680e-003 
2.883597e-003 
8.914731e-004 
-8.379718e-004 
-1.545453e-003 
-1.096229e-003 
-2.080574e-003 
-1.812315e-003 
-5.079919e-004 
-8.956265e-004 
-1.404266e-003 
-2.151359e-003 
-4.083246e-003 
-6.258939e-003 
-8.878018e-003 
-1.156495e-002 
-1.235725e-002 
-1.250878e-002 
-1.237606e-002 
-1.215947e-002 
-1.210855e-002 
-1.204945e-002 
-1.418042e-002 
-1.749242e-002 
-2.047558e-002 
-2.287435e-002 
-2.488955e-002 
-2.648425e-002 
-2.689208e-002 
-2.496042e-002 
-2.324858e-002 
-2.278795e-002 
-2.039635e-002 
-1.831053e-002 
-1.909918e-002 
-2.028932e-002 
-2.188438e-002 
-2.337955e-002 
-2.430230e-002 
-2.584283e-002 
-2.611871e-002 
-2.506063e-002 
-2.561249e-002 
-2.633879e-002 
-2.584176e-002 
-2.671499e-002 
-2.756950e-002 
-2.992162e-002 
-3.324862e-002 
-3.617460e-002 
-3.947842e-002 
-4.256257e-002 
-4.369240e-002 
-4.267688e-002 
-4.039223e-002 
-3.812597e-002 
-3.836946e-002 
-3.812350e-002 
-3.831657e-002 
-4.064803e-002 
-4.306674e-002 
-4.376811e-002 
-4.384109e-002 
-4.408697e-002 
-4.499108e-002 
-4.444068e-002 
-4.126960e-002 
-4.006580e-002 
-3.809719e-002 
-3.459513e-002 
-3.179602e-002 
-3.049101e-002 
-3.001790e-002 
-2.945944e-002 
-2.770940e-002 
-2.631214e-002 
-2.401649e-002 
-1.854534e-002 
-1.387645e-002 
-8.941734e-003 
-4.944158e-003 
-1.976844e-003 
-1.962860e-004 
7.472390e-004 
1.175224e-003 
2.182814e-003 
3.895989e-003 
5.015263e-003 
7.039413e-003 
9.022570e-003 
1.231481e-002 
1.556551e-002 
1.873382e-002 
2.143466e-002 
2.426430e-002 
2.606038e-002 
2.568614e-002 
2.600818e-002 
2.677734e-002 
2.812346e-002 
2.959496e-002 
3.170299e-002 
3.473405e-002 
3.828442e-002 
4.093784e-002 
4.289983e-002 
4.392863e-002 
4.357078e-002 
4.251572e-002 
4.090888e-002 
4.006014e-002 
4.080164e-002 
4.270282e-002 
4.448905e-002 
4.570730e-002 
4.731223e-002 
4.907069e-002 
4.971331e-002 
4.954998e-002 
4.904872e-002 
4.796756e-002 
4.601167e-002 
4.455398e-002 
4.407390e-002 
4.485607e-002 
4.549643e-002 
4.728426e-002 
4.957482e-002 
5.070540e-002 
5.081427e-002 
5.058962e-002 
4.964984e-002 
4.747496e-002 
4.517140e-002 
4.304814e-002 
4.231948e-002 
4.064180e-002 
3.922572e-002 
4.054795e-002 
4.186915e-002 
4.113267e-002 
4.026915e-002 
3.844451e-002 
3.489424e-002 
3.011667e-002 
2.418788e-002 
2.139103e-002 
2.126278e-002 
1.909472e-002 
1.715361e-002 
1.795548e-002 
1.847089e-002 
1.764088e-002 
1.703522e-002 
1.691478e-002 
1.670841e-002 
1.477943e-002 
1.085242e-002 
8.879151e-003 
9.445678e-003 
8.669971e-003 
9.222930e-003 
1.242385e-002 
1.463280e-002 
1.539759e-002 
1.595282e-002 
1.516313e-002 
1.440383e-002 
1.346732e-002 
1.121220e-002 
1.028642e-002 
8.794036e-003 
7.395951e-003 
7.378123e-003 
9.357542e-003 
1.142666e-002 
1.320828e-002 
1.379327e-002 
1.306315e-002 
1.174686e-002 
1.012853e-002 
9.413796e-003 
8.755554e-003 
8.885941e-003 
8.801661e-003 
9.584187e-003 
1.115028e-002 
1.355837e-002 
1.518908e-002 
1.677688e-002 
1.768646e-002 
1.616242e-002 
1.375407e-002 
1.226261e-002 
1.107122e-002 
1.048115e-002 
1.028141e-002 
1.049190e-002 
1.284852e-002 
1.478941e-002 
1.563517e-002 
1.749051e-002 
1.914326e-002 
2.025128e-002 
2.225845e-002 
2.400841e-002 
2.718931e-002 
3.254414e-002 
3.837104e-002 
4.451395e-002 
5.347452e-002 
6.366955e-002 
7.302736e-002 
8.015359e-002 
8.575218e-002 
8.984945e-002 
9.230050e-002 
9.132922e-002 
8.902300e-002 
8.904681e-002 
8.810592e-002 
8.556709e-002 
8.400658e-002 
8.234086e-002 
7.777061e-002 
7.188425e-002 
6.481271e-002 
5.829802e-002 
5.212408e-002 
4.520900e-002 
3.917488e-002 
3.393631e-002 
2.844722e-002 
2.398639e-002 
2.336481e-002 
2.468923e-002 
2.447506e-002 
2.385683e-002 
2.304757e-002 
2.052649e-002 
1.630162e-002 
1.210465e-002 
8.985470e-003 
7.496403e-003 
4.719519e-003 
7.151736e-004 
2.562361e-004 
9.980971e-004 
-1.306340e-004 
-1.912375e-003 
-2.995282e-003 
-3.883946e-003 
-5.148267e-003 
-8.285319e-003 
-1.062803e-002 
-9.778782e-003 
-1.058480e-002 
-1.133158e-002 
-8.941553e-003 
-5.219289e-003 
-3.581273e-003 
-3.536533e-003 
-4.240197e-003 
-4.226478e-003 
-4.839659e-003 
-6.646484e-003 
-4.378837e-003 
-6.033457e-005 
3.497473e-003 
7.692604e-003 
1.443299e-002 
2.117170e-002 
2.590016e-002 
2.636073e-002 
2.320439e-002 
1.482143e-002 
-3.320453e-003 
-2.968315e-002 
-6.230880e-002 
-1.013064e-001 
-1.455526e-001 
-1.908712e-001 
-2.334985e-001 
-2.710201e-001 
-3.038412e-001 
-3.308095e-001 
-3.508913e-001 
-3.654441e-001 
-3.765569e-001 
-3.837300e-001 
-3.843197e-001 
-3.784881e-001 
-3.666926e-001 
-3.457856e-001 
-3.148675e-001 
-2.754685e-001 
-2.304484e-001 
-1.828081e-001 
-1.345033e-001 
-8.748129e-002 
-4.548578e-002 
-9.039600e-003 
2.353273e-002 
4.887761e-002 
6.715417e-002 
7.933835e-002 
8.696285e-002 
9.198824e-002 
9.750406e-002 
1.036769e-001 
1.120974e-001 
1.206424e-001 
1.258447e-001 
1.291434e-001 
1.295408e-001 
1.279621e-001 
1.251819e-001 
1.219470e-001 
1.209053e-001 
1.215669e-001 
1.213586e-001 
1.211351e-001 
1.207407e-001 
1.196998e-001 
1.178545e-001 
1.133986e-001 
1.102542e-001 
1.101586e-001 
1.089411e-001 
1.083704e-001 
1.082930e-001 
1.078750e-001 
1.075303e-001 
1.056510e-001 
1.034900e-001 
1.027392e-001 
1.002214e-001 
9.609766e-002 
9.343223e-002 
9.017155e-002 
8.800184e-002 
8.724612e-002 
8.761563e-002 
8.911974e-002 
8.900841e-002 
8.854581e-002 
8.898867e-002 
8.761989e-002 
8.452937e-002 
8.253131e-002 
8.041356e-002 
7.943085e-002 
7.806058e-002 
7.756000e-002 
7.936183e-002 
7.993813e-002 
7.891001e-002 
7.817367e-002 
7.664564e-002 
7.374271e-002 
7.119889e-002 
6.816698e-002 
6.640475e-002 
6.400974e-002 
6.201881e-002 
6.120867e-002 
6.053410e-002 
6.029901e-002 
6.002275e-002 
5.904214e-002 
5.774264e-002 
5.629487e-002 
5.351834e-002 
5.035224e-002 
4.638562e-002 
4.353394e-002 
4.197697e-002 
4.029591e-002 
4.014066e-002 
4.145447e-002 
4.108241e-002 
3.879441e-002 
3.627380e-002 
3.343613e-002 
3.128341e-002 
2.862091e-002 
2.595775e-002 
2.477973e-002 
2.306985e-002 
2.093036e-002 
2.083414e-002 
2.158473e-002 
2.125152e-002 
2.162531e-002 
2.010681e-002 
1.694982e-002 
1.334053e-002 
9.309789e-003 
5.858851e-003 
3.412998e-003 
5.121924e-004 
-1.572812e-003 
-1.303003e-003 
-2.365216e-003 
-3.720473e-003 
-4.434090e-003 
-5.566034e-003 
-6.970772e-003 
-9.227041e-003 
-1.229846e-002 
-1.381353e-002 
-1.373354e-002 
-1.443120e-002 
-1.387192e-002 
-1.156480e-002 
-8.161640e-003 
-5.375046e-003 
-4.642336e-003 
-3.757079e-003 
-1.951810e-003 
-1.097263e-003 
-1.064245e-003 
8.351407e-004 
3.704531e-003 
7.131295e-003 
9.489305e-003 
1.272959e-002 
1.839891e-002 
2.446013e-002 
2.910237e-002 
3.484379e-002 
3.898962e-002 
4.121851e-002 
4.338673e-002 
4.526402e-002 
4.920707e-002 
5.499665e-002 
5.973937e-002 
6.406556e-002 
6.960209e-002 
7.186022e-002 
7.385368e-002 
7.638077e-002 
7.813448e-002 
7.952894e-002 
7.954322e-002 
7.756121e-002 
7.774269e-002 
7.915437e-002 
7.881900e-002 
8.077897e-002 
8.404734e-002 
8.508386e-002 
8.480827e-002 
8.366737e-002 
8.271996e-002 
8.251090e-002 
8.021196e-002 
7.785170e-002 
7.836498e-002 
7.766483e-002 
7.602548e-002 
7.563623e-002 
7.645959e-002 
7.699255e-002 
7.570405e-002 
7.408393e-002 
7.226224e-002 
6.923564e-002 
6.462597e-002 
6.086105e-002 
5.932592e-002 
5.871184e-002 
5.767758e-002 
5.843193e-002 
5.935858e-002 
5.855939e-002 
5.720560e-002 
5.527134e-002 
5.382810e-002 
5.276873e-002 
4.967696e-002 
4.686738e-002 
4.587085e-002 
4.411117e-002 
4.239276e-002 
4.167406e-002 
4.223387e-002 
4.356290e-002 
4.288533e-002 
4.031550e-002 
3.833721e-002 
3.644323e-002 
3.254745e-002 
2.897583e-002 
2.736896e-002 
2.763501e-002 
2.776890e-002 
2.738971e-002 
2.755859e-002 
2.904225e-002 
3.008048e-002 
2.909541e-002 
2.873672e-002 
2.801293e-002 
2.654718e-002 
2.367245e-002 
2.124716e-002 
2.021130e-002 
2.131224e-002 
2.233395e-002 
2.295231e-002 
2.426129e-002 
2.457799e-002 
2.414851e-002 
2.251136e-002 
2.074185e-002 
1.943240e-002 
1.861260e-002 
1.671988e-002 
1.495294e-002 
1.511618e-002 
1.606639e-002 
1.668201e-002 
1.604589e-002 
1.564586e-002 
1.603132e-002 
1.498268e-002 
1.255380e-002 
1.226525e-002 
1.414991e-002 
1.509317e-002 
1.656674e-002 
1.945044e-002 
2.545493e-002 
3.334277e-002 
4.050698e-002 
4.789566e-002 
5.568187e-002 
6.056311e-002 
6.217860e-002 
6.401329e-002 
6.533218e-002 
6.666402e-002 
6.779519e-002 
6.830055e-002 
6.768334e-002 
6.738876e-002 
6.594888e-002 
6.314098e-002 
6.063769e-002 
5.527261e-002 
4.801679e-002 
4.188624e-002 
3.556015e-002 
2.999237e-002 
2.765209e-002 
2.537203e-002 
2.365130e-002 
2.280811e-002 
2.006993e-002 
1.837746e-002 
1.762777e-002 
1.476332e-002 
1.126656e-002 
7.390826e-003 
1.779308e-003 
-4.237169e-003 
-9.457829e-003 
-1.482371e-002 
-1.855497e-002 
-2.233587e-002 
-2.616344e-002 
-2.959666e-002 
-3.358354e-002 
-3.916859e-002 
-4.483285e-002 
-4.990823e-002 
-5.565874e-002 
-5.895332e-002 
-6.058204e-002 
-6.042696e-002 
-5.946612e-002 
-5.765109e-002 
-5.656897e-002 
-5.612862e-002 
-5.647999e-002 
-5.705485e-002 
-5.719102e-002 
-5.797245e-002 
-5.898219e-002 
-5.924533e-002 
-5.738596e-002 
-5.661539e-002 
-5.517895e-002 
-5.260450e-002 
-5.039016e-002 
-4.862963e-002 
-4.770194e-002 
-4.726941e-002 
-4.520264e-002 
-4.277089e-002 
-4.117076e-002 
-3.863577e-002 
-3.801088e-002 
-3.986745e-002 
-4.569470e-002 
-5.826563e-002 
-7.757081e-002 
-1.054612e-001 
-1.421873e-001 
-1.850816e-001 
-2.330161e-001 
-2.826276e-001 
-3.281683e-001 
-3.694295e-001 
-4.045068e-001 
-4.329245e-001 
-4.554410e-001 
-4.694873e-001 
-4.768554e-001 
-4.803642e-001 
-4.774261e-001 
-4.678658e-001 
-4.546168e-001 
-4.350288e-001 
-4.090030e-001 
-3.738215e-001 
-3.291227e-001 
-2.803367e-001 
-2.287320e-001 
-1.759675e-001 
-1.299241e-001 
-9.233989e-002 
-6.115370e-002 
-3.698833e-002 
-1.710808e-002 
-3.006680e-003 
7.156134e-003 
1.677023e-002 
2.378553e-002 
2.942610e-002 
3.790306e-002 
5.048607e-002 
6.360855e-002 
7.407998e-002 
8.104779e-002 
8.440808e-002 
8.250450e-002 
7.789452e-002 
7.339771e-002 
7.135332e-002 
7.274997e-002 
7.204637e-002 
7.179631e-002 
7.314132e-002 
7.252165e-002 
7.145595e-002 
7.100849e-002 
6.889899e-002 
6.738661e-002 
6.493073e-002 
6.027959e-002 
5.846996e-002 
5.643367e-002 
5.370033e-002 
5.304405e-002 
5.302277e-002 
5.266583e-002 
5.194814e-002 
4.907439e-002 
4.672946e-002 
4.424185e-002 
3.879037e-002 
3.480355e-002 
3.296943e-002 
3.221531e-002 
3.154445e-002 
3.083980e-002 
3.100959e-002 
3.123948e-002 
2.861635e-002 
2.647247e-002 
2.653273e-002 
2.569348e-002 
2.312621e-002 
1.906684e-002 
1.652522e-002 
1.542444e-002 
1.358043e-002 
1.263767e-002 
1.546690e-002 
1.864019e-002 
1.939741e-002 
1.753703e-002 
1.587857e-002 
1.546756e-002 
1.397331e-002 
1.168913e-002 
1.134540e-002 
1.360044e-002 
1.484800e-002 
1.423262e-002 
1.504539e-002 
1.783825e-002 
1.899120e-002 
1.814861e-002 
1.665747e-002 
1.587169e-002 
1.429627e-002 
1.047177e-002 
7.701009e-003 
7.150284e-003 
6.881914e-003 
5.697131e-003 
5.428894e-003 
6.806787e-003 
7.189412e-003 
5.049225e-003 
3.330513e-003 
2.231117e-003 
2.242508e-004 
-2.171983e-003 
-5.586709e-003 
-6.834137e-003 
-7.088645e-003 
-8.463476e-003 
-7.996669e-003 
-6.203469e-003 
-5.598636e-003 
-6.529696e-003 
-1.022817e-002 
-1.426820e-002 
-1.701801e-002 
-2.048698e-002 
-2.201961e-002 
-2.281654e-002 
-2.392520e-002 
-2.460737e-002 
-2.604743e-002 
-2.691819e-002 
-2.637462e-002 
-2.756589e-002 
-2.865644e-002 
-3.021949e-002 
-3.386884e-002 
-3.649965e-002 
-3.876144e-002 
-4.051003e-002 
-3.966423e-002 
-3.859489e-002 
-3.764187e-002 
-3.579091e-002 
-3.470034e-002 
-3.357197e-002 
-3.249100e-002 
-3.201542e-002 
-3.161056e-002 
-3.006168e-002 
-2.782324e-002 
-2.447715e-002 
-2.084902e-002 
-1.534832e-002 
-9.043100e-003 
-2.915042e-003 
1.925019e-003 
5.262327e-003 
8.445043e-003 
1.126875e-002 
1.278782e-002 
1.359605e-002 
1.712927e-002 
2.044786e-002 
2.287849e-002 
2.491876e-002 
2.715796e-002 
2.980002e-002 
3.162444e-002 
3.173240e-002 
3.081783e-002 
3.001955e-002 
2.681100e-002 
2.368143e-002 
2.180866e-002 
2.119722e-002 
2.205927e-002 
2.340169e-002 
2.463805e-002 
2.488658e-002 
2.404354e-002 
2.284332e-002 
2.270751e-002 
2.070844e-002 
1.894230e-002 
1.826390e-002 
1.769458e-002 
1.739727e-002 
1.699832e-002 
1.860475e-002 
2.149162e-002 
2.184387e-002 
2.072901e-002 
2.115504e-002 
1.917071e-002 
1.545267e-002 
1.151321e-002 
8.657338e-003 
8.151607e-003 
5.697283e-003 
3.385704e-003 
4.515559e-003 
4.889340e-003 
2.863347e-003 
1.010527e-003 
-1.517020e-003 
-2.910931e-003 
-5.912187e-003 
-1.129684e-002 
-1.308390e-002 
-1.401304e-002 
-1.547160e-002 
-1.604193e-002 
-1.567648e-002 
-1.454433e-002 
-1.414543e-002 
-1.672787e-002 
-1.853754e-002 
-1.962491e-002 
-2.294798e-002 
-2.522835e-002 
-2.668765e-002 
-2.703630e-002 
-2.756097e-002 
-2.846666e-002 
-2.696961e-002 
-2.490748e-002 
-2.525551e-002 
-2.543886e-002 
-2.523900e-002 
-2.697944e-002 
-2.867372e-002 
-3.163613e-002 
-3.281556e-002 
-3.273018e-002 
-3.510484e-002 
-3.559759e-002 
-3.303761e-002 
-3.118045e-002 
-3.034355e-002 
-3.017996e-002 
-3.209151e-002 
-3.393684e-002 
-3.815563e-002 
-4.160535e-002 
-4.135308e-002 
-4.018467e-002 
-4.043642e-002 
-4.047758e-002 
-3.869594e-002 
-3.756326e-002 
-3.718507e-002 
-3.663949e-002 
-3.552916e-002 
-3.633216e-002 
-3.809120e-002 
-4.095720e-002 
-4.174354e-002 
-4.104460e-002 
-4.193568e-002 
-4.061119e-002 
-3.838380e-002 
-3.833697e-002 
-3.862633e-002 
-3.774661e-002 
-3.843184e-002 
-3.921889e-002 
-4.134120e-002 
-4.366741e-002 
-4.463855e-002 
-4.736259e-002 
-4.902782e-002 
-4.785999e-002 
-4.511869e-002 
-4.402183e-002 
-4.332172e-002 
-4.300546e-002 
-4.342764e-002 
-4.548566e-002 
-4.788192e-002 
-4.744775e-002 
-4.510702e-002 
-4.149366e-002 
-3.823078e-002 
-3.325882e-002 
-2.647896e-002 
-1.936757e-002 
-1.255093e-002 
-5.183884e-003 
2.795751e-003 
9.720326e-003 
1.383152e-002 
1.573648e-002 
1.913271e-002 
2.274064e-002 
2.563856e-002 
2.729994e-002 
2.837785e-002 
2.940913e-002 
2.761810e-002 
2.335048e-002 
1.962370e-002 
1.576878e-002 
9.092027e-003 
1.718088e-003 
-5.698881e-003 
-1.156340e-002 
-1.589801e-002 
-1.880236e-002 
-1.969762e-002 
-1.971210e-002 
-2.124885e-002 
-2.370755e-002 
-2.520706e-002 
-2.705948e-002 
-2.987915e-002 
-3.251978e-002 
-3.370690e-002 
-3.532191e-002 
-3.763428e-002 
-3.971030e-002 
-4.073868e-002 
-4.215638e-002 
-4.440989e-002 
-4.773696e-002 
-5.106192e-002 
-5.388811e-002 
-5.862051e-002 
-6.453938e-002 
-6.836556e-002 
-7.105421e-002 
-7.261534e-002 
-7.215322e-002 
-7.157220e-002 
-6.972377e-002 
-6.859400e-002 
-7.007637e-002 
-7.072244e-002 
-7.011122e-002 
-7.065204e-002 
-7.139693e-002 
-7.196334e-002 
-7.140612e-002 
-7.013537e-002 
-6.882260e-002 
-6.505804e-002 
-6.012861e-002 
-5.671644e-002 
-5.539605e-002 
-5.541274e-002 
-5.520929e-002 
-5.373948e-002 
-5.189757e-002 
-4.751543e-002 
-4.074539e-002 
-3.417962e-002 
-2.778009e-002 
-2.283296e-002 
-2.302837e-002 
-2.789014e-002 
-3.944186e-002 
-6.214809e-002 
-9.442593e-002 
-1.344717e-001 
-1.809581e-001 
-2.296360e-001 
-2.790106e-001 
-3.268302e-001 
-3.667031e-001 
-4.012703e-001 
-4.322569e-001 
-4.571950e-001 
-4.755708e-001 
-4.898016e-001 
-4.981053e-001 
-5.009854e-001 
-4.973352e-001 
-4.849551e-001 
-4.654688e-001 
-4.372412e-001 
-3.985482e-001 
-3.504986e-001 
-2.977735e-001 
-2.421300e-001 
-1.887772e-001 
-1.417325e-001 
-1.023799e-001 
-6.999203e-002 
-4.314616e-002 
-2.054460e-002 
-8.294034e-004 
1.623225e-002 
3.193049e-002 
4.557109e-002 
5.756208e-002 
7.099213e-002 
8.576844e-002 
9.891247e-002 
1.085290e-001 
1.150072e-001 
1.178284e-001 
1.173343e-001 
1.144785e-001 
1.124222e-001 
1.128771e-001 
1.142364e-001 
1.149058e-001 
1.145604e-001 
1.144219e-001 
1.132809e-001 
1.108063e-001 
1.077689e-001 
1.047530e-001 
1.025012e-001 
1.007515e-001 
9.993100e-002 
1.005714e-001 
1.021740e-001 
1.030513e-001 
1.025577e-001 
1.011045e-001 
9.889976e-002 
9.720910e-002 
9.464046e-002 
9.274597e-002 
9.119411e-002 
9.040183e-002 
8.922368e-002 
8.885327e-002 
9.002402e-002 
9.163196e-002 
9.246537e-002 
9.137695e-002 
9.079508e-002 
8.869552e-002 
8.530087e-002 
8.195526e-002 
8.057367e-002 
7.920332e-002 
7.765029e-002 
7.674893e-002 
7.773670e-002 
7.993081e-002 
7.883570e-002 
7.799872e-002 
7.710699e-002 
7.387761e-002 
6.902473e-002 
6.560534e-002 
6.430809e-002 
6.450301e-002 
6.378438e-002 
6.294985e-002 
6.502258e-002 
6.524395e-002 
6.397908e-002 
6.299699e-002 
6.293348e-002 
6.285711e-002 
6.077974e-002 
5.677484e-002 
5.370967e-002 
5.270227e-002 
5.164968e-002 
5.251333e-002 
5.426861e-002 
5.646675e-002 
5.817030e-002 
5.745251e-002 
5.560635e-002 
5.361151e-002 
5.221223e-002 
5.057980e-002 
4.978755e-002 
4.880275e-002 
4.949983e-002 
5.093363e-002 
5.225407e-002 
5.384956e-002 
5.524770e-002 
5.600477e-002 
5.454365e-002 
5.224186e-002 
4.962020e-002 
4.718003e-002 
4.456483e-002 
4.334046e-002 
4.206560e-002 
4.126978e-002 
4.092583e-002 
4.100095e-002 
4.093270e-002 
3.962944e-002 
3.789862e-002 
3.573865e-002 
3.142829e-002 
2.546965e-002 
2.199961e-002 
1.954148e-002 
1.787295e-002 
1.720753e-002 
1.906194e-002 
2.003895e-002 
1.875097e-002 
1.705468e-002 
1.683643e-002 
1.619420e-002 
1.409198e-002 
1.386850e-002 
1.574849e-002 
1.722241e-002 
1.692179e-002 
1.924232e-002 
2.446052e-002 
2.932076e-002 
3.321470e-002 
3.859706e-002 
4.352687e-002 
4.572903e-002 
4.543036e-002 
4.610964e-002 
4.951875e-002 
5.321574e-002 
5.640473e-002 
6.085781e-002 
6.600121e-002 
6.973025e-002 
7.144938e-002 
7.243448e-002 
7.471675e-002 
7.690610e-002 
7.734068e-002 
7.703692e-002 
7.690191e-002 
7.792129e-002 
7.818983e-002 
7.807310e-002 
8.041839e-002 
8.395625e-002 
8.611153e-002 
8.630502e-002 
8.564506e-002 
8.542167e-002 
8.520055e-002 
8.266697e-002 
8.150700e-002 
8.249552e-002 
8.315148e-002 
8.389218e-002 
8.383062e-002 
8.483182e-002 
8.687215e-002 
8.677380e-002 
8.451459e-002 
8.312603e-002 
8.161285e-002 
7.926244e-002 
7.787386e-002 
7.691481e-002 
7.709567e-002 
7.758097e-002 
7.765207e-002 
7.775179e-002 
7.801639e-002 
7.674816e-002 
7.485135e-002 
7.357360e-002 
7.060090e-002 
6.719926e-002 
6.484596e-002 
6.262667e-002 
6.069807e-002 
5.931588e-002 
5.875416e-002 
5.892737e-002 
5.843593e-002 
5.673377e-002 
5.459594e-002 
5.185708e-002 
4.836153e-002 
4.456641e-002 
4.166203e-002 
3.987511e-002 
3.778746e-002 
3.645832e-002 
3.639598e-002 
3.629360e-002 
3.546979e-002 
3.401504e-002 
3.291259e-002 
3.178593e-002 
2.895458e-002 
2.524502e-002 
2.329177e-002 
2.307456e-002 
2.211410e-002 
2.143296e-002 
2.365073e-002 
2.636195e-002 
2.668376e-002 
2.592615e-002 
2.537058e-002 
2.511221e-002 
2.397947e-002 
2.143598e-002 
2.055129e-002 
2.088729e-002 
1.932764e-002 
1.774432e-002 
1.892722e-002 
1.984949e-002 
1.869787e-002 
1.715296e-002 
1.615747e-002 
1.477958e-002 
1.186229e-002 
8.177689e-003 
6.595304e-003 
5.974148e-003 
3.466921e-003 
2.568688e-003 
5.456693e-003 
8.534696e-003 
9.139653e-003 
8.332110e-003 
8.156933e-003 
7.681136e-003 
5.382481e-003 
4.261154e-003 
4.978003e-003 
6.029073e-003 
6.321522e-003 
6.060039e-003 
7.696821e-003 
1.107679e-002 
1.326854e-002 
1.481486e-002 
1.568059e-002 
1.442792e-002 
1.363389e-002 
1.247599e-002 
1.085466e-002 
1.130887e-002 
1.263721e-002 
1.336629e-002 
1.432540e-002 
1.548619e-002 
1.750641e-002 
1.883145e-002 
1.679839e-002 
1.530288e-002 
1.408751e-002 
1.153463e-002 
8.721444e-003 
7.068161e-003 
6.996860e-003 
7.002075e-003 
6.244371e-003 
6.429658e-003 
8.102448e-003 
7.751861e-003 
6.630458e-003 
5.756607e-003 
4.560941e-003 
2.310955e-003 
1.281046e-003 
1.925663e-003 
2.927007e-003 
4.505639e-003 
6.762064e-003 
9.758577e-003 
1.124649e-002 
1.122318e-002 
1.152267e-002 
1.335873e-002 
1.267946e-002 
1.045482e-002 
1.015516e-002 
1.078040e-002 
1.087792e-002 
1.158447e-002 
1.416745e-002 
1.765686e-002 
2.005551e-002 
1.953508e-002 
1.882090e-002 
1.898515e-002 
1.836030e-002 
1.785688e-002 
1.812290e-002 
1.882167e-002 
2.038222e-002 
2.233318e-002 
2.455149e-002 
2.753751e-002 
2.979099e-002 
3.188114e-002 
3.285181e-002 
3.185029e-002 
3.100565e-002 
3.034434e-002 
3.084743e-002 
3.286950e-002 
3.517683e-002 
3.914144e-002 
4.546429e-002 
5.142555e-002 
5.773336e-002 
6.465531e-002 
7.205747e-002 
7.935404e-002 
8.500765e-002 
8.969598e-002 
9.500106e-002 
9.991254e-002 
1.041396e-001 
1.075905e-001 
1.102494e-001 
1.122016e-001 
1.125648e-001 
1.115553e-001 
1.089924e-001 
1.058908e-001 
1.016792e-001 
9.525038e-002 
8.698445e-002 
7.972734e-002 
7.416067e-002 
6.993415e-002 
6.670204e-002 
6.511432e-002 
6.305014e-002 
5.934591e-002 
5.544225e-002 
5.181347e-002 
4.931809e-002 
4.680038e-002 
4.512129e-002 
4.428237e-002 
4.229946e-002 
3.838816e-002 
3.648131e-002 
3.541541e-002 
3.306462e-002 
3.096707e-002 
2.911179e-002 
2.708059e-002 
2.276075e-002 
1.719333e-002 
1.346373e-002 
1.158693e-002 
1.007249e-002 
9.961925e-003 
1.149940e-002 
1.423731e-002 
1.499291e-002 
1.317236e-002 
1.229193e-002 
1.186070e-002 
1.008788e-002 
8.717238e-003 
7.927617e-003 
8.073465e-003 
8.377587e-003 
7.116447e-003 
8.088496e-003 
1.152960e-002 
1.423395e-002 
1.549729e-002 
1.709821e-002 
1.873770e-002 
2.130242e-002 
2.375765e-002 
2.770814e-002 
3.309918e-002 
3.682620e-002 
3.775573e-002 
3.418985e-002 
2.518194e-002 
8.901020e-003 
-1.643246e-002 
-5.201190e-002 
-9.590994e-002 
-1.455426e-001 
-1.959780e-001 
-2.429400e-001 
-2.836680e-001 
-3.169746e-001 
-3.421883e-001 
-3.610589e-001 
-3.754042e-001 
-3.863127e-001 
-3.934238e-001 
-3.957383e-001 
-3.913263e-001 
-3.784391e-001 
-3.555626e-001 
-3.213622e-001 
-2.786379e-001 
-2.302598e-001 
-1.793697e-001 
-1.279173e-001 
-7.828241e-002 
-2.889110e-002 
1.688986e-002 
5.412466e-002 
8.199274e-002 
9.996737e-002 
1.095279e-001 
1.150019e-001 
1.198025e-001 
1.290732e-001 
1.445995e-001 
1.588375e-001 
1.695558e-001 
1.774667e-001 
1.809077e-001 
1.811089e-001 
1.785269e-001 
1.747478e-001 
1.726180e-001 
1.707656e-001 
1.686270e-001 
1.677257e-001 
1.686069e-001 
1.704041e-001 
1.718526e-001 
1.710068e-001 
1.698993e-001 
1.686138e-001 
1.662716e-001 
1.646649e-001 
1.634920e-001 
1.621104e-001 
1.608591e-001 
1.591226e-001 
1.576928e-001 
1.582595e-001 
1.582787e-001 
1.581795e-001 
1.590503e-001 
1.570293e-001 
1.530965e-001 
1.493980e-001 
1.451135e-001 
1.414278e-001 
1.388842e-001 
1.363008e-001 
1.358838e-001 
1.353858e-001 
1.326421e-001 
1.306784e-001 
1.287124e-001 
1.260223e-001 
1.229939e-001 
1.200507e-001 
1.166755e-001 
1.139284e-001 
1.104639e-001 
1.079517e-001 
1.076485e-001 
1.086293e-001 
1.097092e-001 
1.095229e-001 
1.082249e-001 
1.062026e-001 
1.033886e-001 
9.973511e-002 
9.754062e-002 
9.626728e-002 
9.583832e-002 
9.353918e-002 
9.091318e-002 
9.120120e-002 
9.197343e-002 
9.084752e-002 
9.076586e-002 
9.017193e-002 
8.816102e-002 
8.454969e-002 
7.968125e-002 
7.750714e-002 
7.695431e-002 
7.530500e-002 
7.480534e-002 
7.647026e-002 
7.720766e-002 
7.726003e-002 
7.572305e-002 
7.463222e-002 
7.288699e-002 
6.957502e-002 
6.591792e-002 
6.310314e-002 
6.128269e-002 
5.955009e-002 
5.731199e-002 
5.625157e-002 
5.615001e-002 
5.472657e-002 
5.322281e-002 
5.151121e-002 
4.941470e-002 
4.624099e-002 
4.174091e-002 
3.803939e-002 
3.608570e-002 
3.498043e-002 
3.504074e-002 
3.650489e-002 
3.791504e-002 
3.756012e-002 
3.701951e-002 
3.590408e-002 
3.467165e-002 
3.351400e-002 
3.206972e-002 
3.096423e-002 
3.083181e-002 
2.957600e-002 
2.998009e-002 
3.373174e-002 
3.661425e-002 
3.972834e-002 
4.249393e-002 
4.447832e-002 
4.638526e-002 
4.755707e-002 
4.823176e-002 
5.243209e-002 
5.684330e-002 
5.998342e-002 
6.515468e-002 
7.214018e-002 
7.904401e-002 
8.443767e-002 
8.903369e-002 
9.423735e-002 
9.888406e-002 
1.005445e-001 
1.022178e-001 
1.047599e-001 
1.072754e-001 
1.087515e-001 
1.107916e-001 
1.147628e-001 
1.192803e-001 
1.217586e-001 
1.231955e-001 
1.234186e-001 
1.217580e-001 
1.199460e-001 
1.180216e-001 
1.174180e-001 
1.174552e-001 
1.172151e-001 
1.172385e-001 
1.171103e-001 
1.169570e-001 
1.181026e-001 
1.186968e-001 
1.192293e-001 
1.185564e-001 
1.152432e-001 
1.124510e-001 
1.107267e-001 
1.083943e-001 
1.085916e-001 
1.090248e-001 
1.095082e-001 
1.109712e-001 
1.097930e-001 
1.084757e-001 
1.094798e-001 
1.090804e-001 
1.063033e-001 
1.042817e-001 
1.007064e-001 
9.864231e-002 
9.696775e-002 
9.582470e-002 
9.808483e-002 
1.006507e-001 
1.000196e-001 
9.858487e-002 
9.687070e-002 
9.373308e-002 
9.163898e-002 
8.841131e-002 
8.645384e-002 
8.511534e-002 
8.242632e-002 
8.033449e-002 
7.967381e-002 
7.982362e-002 
7.996181e-002 
7.987262e-002 
7.926428e-002 
7.786163e-002 
7.508185e-002 
7.223926e-002 
6.951527e-002 
6.772265e-002 
6.698828e-002 
6.558271e-002 
6.642373e-002 
6.717251e-002 
6.788921e-002 
6.960019e-002 
6.907768e-002 
6.772027e-002 
6.602790e-002 
6.218300e-002 
5.943597e-002 
5.863964e-002 
5.760195e-002 
6.029674e-002 
6.143954e-002 
6.069619e-002 
6.125106e-002 
6.027074e-002 
5.906106e-002 
5.939593e-002 
5.847221e-002 
5.688444e-002 
5.546511e-002 
5.199546e-002 
5.055035e-002 
5.071166e-002 
5.087411e-002 
5.316568e-002 
5.612962e-002 
5.632144e-002 
5.471719e-002 
5.298480e-002 
5.103409e-002 
4.939074e-002 
4.712893e-002 
4.617059e-002 
4.755580e-002 
4.817353e-002 
4.841471e-002 
5.016590e-002 
5.218110e-002 
5.331217e-002 
5.363992e-002 
5.274634e-002 
5.248540e-002 
5.169105e-002 
5.056866e-002 
5.180728e-002 
5.427548e-002 
5.821088e-002 
6.403579e-002 
7.027372e-002 
7.553631e-002 
8.118147e-002 
8.616320e-002 
9.197597e-002 
9.775634e-002 
1.020553e-001 
1.074557e-001 
1.124765e-001 
1.147085e-001 
1.161968e-001 
1.181708e-001 
1.208023e-001 
1.228514e-001 
1.212264e-001 
1.188492e-001 
1.161401e-001 
1.097022e-001 
1.017609e-001 
9.490206e-002 
8.922092e-002 
8.456993e-002 
7.883211e-002 
7.400588e-002 
7.195705e-002 
6.910859e-002 
6.406644e-002 
5.927508e-002 
5.508230e-002 
5.126130e-002 
4.758729e-002 
4.355698e-002 
3.993581e-002 
3.715019e-002 
3.353706e-002 
2.928075e-002 
2.650906e-002 
2.441571e-002 
2.196605e-002 
1.893453e-002 
1.390255e-002 
9.014381e-003 
4.887264e-003 
5.871170e-004 
-3.107789e-003 
-4.424020e-003 
-3.774918e-003 
-2.738986e-003 
-1.653720e-003 
-1.973713e-004 
1.382518e-003 
3.113810e-003 
3.534052e-003 
2.380621e-003 
3.149715e-003 
4.353967e-003 
4.514042e-003 
4.460150e-003 
4.711366e-003 
6.553295e-003 
9.428209e-003 
1.015040e-002 
1.212478e-002 
1.549234e-002 
1.724495e-002 
1.787648e-002 
1.901258e-002 
2.145782e-002 
2.322734e-002 
2.090542e-002 
1.549156e-002 
6.625776e-003 
-9.799024e-003 
-3.485611e-002 
-6.813440e-002 
-1.062034e-001 
-1.478997e-001 
-1.912355e-001 
-2.317009e-001 
-2.663286e-001 
-2.950291e-001 
-3.178807e-001 
-3.357685e-001 
-3.458736e-001 
-3.481841e-001 
-3.460901e-001 
-3.389191e-001 
-3.273979e-001 
-3.117943e-001 
-2.916022e-001 
-2.664399e-001 
-2.329715e-001 
-1.909906e-001 
-1.454189e-001 
-9.862349e-002 
-5.412135e-002 
-1.474710e-002 
1.874090e-002 
4.448346e-002 
6.409291e-002 
7.834915e-002 
8.516409e-002 
8.820286e-002 
8.983611e-002 
9.078907e-002 
9.397433e-002 
9.938531e-002 
1.067678e-001 
1.151689e-001 
1.210483e-001 
1.238384e-001 
1.250418e-001 
1.233491e-001 
1.197976e-001 
1.148144e-001 
1.105430e-001 
1.083658e-001 
1.055506e-001 
1.029298e-001 
1.024327e-001 
1.031346e-001 
1.033503e-001 
1.023867e-001 
9.977820e-002 
9.840075e-002 
9.651713e-002 
9.209180e-002 
8.862870e-002 
8.755922e-002 
8.646487e-002 
8.526317e-002 
8.435216e-002 
8.388427e-002 
8.430544e-002 
8.335254e-002 
8.124052e-002 
7.909746e-002 
7.681245e-002 
7.359168e-002 
7.055464e-002 
6.774945e-002 
6.536392e-002 
6.358857e-002 
6.288589e-002 
6.197844e-002 
5.983159e-002 
5.890505e-002 
5.815980e-002 
5.574781e-002 
5.205166e-002 
4.879385e-002 
4.653546e-002 
4.483137e-002 
4.134696e-002 
3.961569e-002 
4.115566e-002 
4.216564e-002 
4.170938e-002 
4.119624e-002 
4.132079e-002 
4.007742e-002 
3.653983e-002 
3.301309e-002 
3.223820e-002 
3.167267e-002 
3.024269e-002 
2.878868e-002 
2.894888e-002 
2.939660e-002 
2.802962e-002 
2.601944e-002 
2.560062e-002 
2.421641e-002 
2.070256e-002 
1.735002e-002 
1.501868e-002 
1.332029e-002 
1.138242e-002 
9.585307e-003 
9.315486e-003 
1.054866e-002 
9.591925e-003 
8.545412e-003 
8.667623e-003 
6.624783e-003 
2.845026e-003 
-1.545357e-004 
-3.004436e-003 
-4.240836e-003 
-5.259033e-003 
-7.257675e-003 
-6.838494e-003 
-6.597170e-003 
-8.637101e-003 
-9.903791e-003 
-1.069702e-002 
-1.304637e-002 
-1.539625e-002 
-1.942122e-002 
-2.247149e-002 
-2.348477e-002 
-2.517717e-002 
-2.619458e-002 
-2.529568e-002 
-2.431543e-002 
-2.476627e-002 
-2.516933e-002 
-2.513585e-002 
-2.424458e-002 
-2.488186e-002 
-2.681526e-002 
-2.746532e-002 
-2.627503e-002 
-2.503348e-002 
-2.313061e-002 
-1.827680e-002 
-1.348626e-002 
-9.879579e-003 
-7.718709e-003 
-5.015378e-003 
-6.641163e-004 
2.462346e-003 
4.255272e-003 
8.298285e-003 
1.218068e-002 
1.446921e-002 
1.869985e-002 
2.271433e-002 
2.799807e-002 
3.365474e-002 
3.660985e-002 
3.944336e-002 
4.263577e-002 
4.291681e-002 
4.312078e-002 
4.422338e-002 
4.401269e-002 
4.544868e-002 
4.739600e-002 
4.897079e-002 
5.233467e-002 
5.576831e-002 
5.623744e-002 
5.576598e-002 
5.524935e-002 
5.322003e-002 
5.206306e-002 
5.138943e-002 
5.178650e-002 
5.264367e-002 
5.233218e-002 
5.094757e-002 
5.129852e-002 
5.183330e-002 
5.141483e-002 
5.230838e-002 
5.218025e-002 
5.015656e-002 
4.628493e-002 
4.239375e-002 
3.985745e-002 
3.906225e-002 
3.793931e-002 
3.787460e-002 
3.825201e-002 
3.722234e-002 
3.577334e-002 
3.437582e-002 
3.261920e-002 
2.993945e-002 
2.648052e-002 
2.353201e-002 
2.261051e-002 
2.135317e-002 
2.006191e-002 
2.043178e-002 
2.157920e-002 
2.100576e-002 
1.988642e-002 
1.939991e-002 
1.964356e-002 
1.832813e-002 
1.473160e-002 
1.168433e-002 
1.022646e-002 
8.229638e-003 
5.942554e-003 
6.270747e-003 
8.429617e-003 
9.513305e-003 
7.948282e-003 
6.505398e-003 
4.461500e-003 
2.624080e-003 
1.897626e-004 
-2.696274e-003 
-3.316558e-003 
-3.217132e-003 
-5.269176e-003 
-6.563129e-003 
-5.972209e-003 
-5.918607e-003 
-5.007119e-003 
-5.400936e-003 
-6.784655e-003 
-7.791530e-003 
-1.130484e-002 
-1.621191e-002 
-1.877524e-002 
-1.970016e-002 
-2.150256e-002 
-2.199939e-002 
-2.078615e-002 
-2.002905e-002 
-2.012122e-002 
-2.121214e-002 
-2.278074e-002 
-2.375362e-002 
-2.550263e-002 
-2.945248e-002 
-3.082392e-002 
-3.085364e-002 
-3.257693e-002 
-3.248801e-002 
-3.078188e-002 
-2.938762e-002 
-2.858936e-002 
-2.943709e-002 
-3.161529e-002 
-3.201796e-002 
-3.363951e-002 
-3.704398e-002 
-3.779737e-002 
-3.843152e-002 
-3.972605e-002 
-3.997291e-002 
-3.933334e-002 
-3.821508e-002 
-3.632949e-002 
-3.593118e-002 
-3.645811e-002 
-3.685038e-002 
-3.928344e-002 
-4.041909e-002 
-3.889256e-002 
-3.676897e-002 
-3.359759e-002 
-2.809579e-002 
-2.212234e-002 
-1.548534e-002 
-8.222232e-003 
-9.469066e-004 
7.392092e-003 
1.422855e-002 
1.809167e-002 
2.117024e-002 
2.403332e-002 
2.556327e-002 
2.790932e-002 
3.002883e-002 
3.178372e-002 
3.230036e-002 
3.059767e-002 
2.831555e-002 
2.497726e-002 
2.017622e-002 
1.414576e-002 
7.974184e-003 
1.690074e-003 
-4.475933e-003 
-9.949962e-003 
-1.215089e-002 
-1.309721e-002 
-1.475133e-002 
-1.636221e-002 
-1.747367e-002 
-1.697961e-002 
-1.899053e-002 
-2.250390e-002 
-2.411832e-002 
-2.617847e-002 
-3.006978e-002 
-3.318845e-002 
-3.589498e-002 
-3.660713e-002 
-3.835771e-002 
-4.353839e-002 
-4.587835e-002 
-4.804302e-002 
-5.310695e-002 
-5.802845e-002 
-6.193930e-002 
-6.616242e-002 
-6.890483e-002 
-7.166983e-002 
-7.261577e-002 
-6.994601e-002 
-6.826117e-002 
-6.799767e-002 
-6.706476e-002 
-6.711607e-002 
-6.848079e-002 
-6.854282e-002 
-6.969856e-002 
-6.964144e-002 
-6.799578e-002 
-6.791615e-002 
-6.688799e-002 
-6.410791e-002 
-6.169206e-002 
-5.835762e-002 
-5.628882e-002 
-5.590359e-002 
-5.487798e-002 
-5.417616e-002 
-5.255376e-002 
-4.836032e-002 
-4.263089e-002 
-3.677200e-002 
-3.390474e-002 
-3.532515e-002 
-4.047430e-002 
-5.327857e-002 
-7.318764e-002 
-1.024236e-001 
-1.410593e-001 
-1.854380e-001 
-2.352536e-001 
-2.852410e-001 
-3.293596e-001 
-3.679536e-001 
-4.004001e-001 
-4.249510e-001 
-4.468141e-001 
-4.633755e-001 
-4.747585e-001 
-4.829341e-001 
-4.847965e-001 
-4.806456e-001 
-4.695159e-001 
-4.482173e-001 
-4.168478e-001 
-3.777249e-001 
-3.292252e-001 
-2.766615e-001 
-2.234428e-001 
-1.727290e-001 
-1.263456e-001 
-8.581896e-002 
-5.221186e-002 
-2.617614e-002 
-6.380117e-003 
8.581509e-003 
2.087366e-002 
3.293249e-002 
4.522418e-002 
6.007712e-002 
7.523414e-002 
8.902096e-002 
1.002716e-001 
1.075239e-001 
1.093483e-001 
1.085986e-001 
1.047823e-001 
1.019362e-001 
1.016983e-001 
1.015812e-001 
1.025924e-001 
1.054306e-001 
1.077580e-001 
1.075967e-001 
1.069095e-001 
1.060555e-001 
1.062050e-001 
1.038872e-001 
1.009909e-001 
9.949414e-002 
9.850649e-002 
9.659835e-002 
9.512219e-002 
9.657965e-002 
9.741011e-002 
9.655059e-002 
9.560739e-002 
9.491529e-002 
9.219483e-002 
8.877156e-002 
8.420745e-002 
8.195330e-002 
8.107037e-002 
7.944601e-002 
8.052354e-002 
8.231664e-002 
8.253573e-002 
8.198240e-002 
8.117368e-002 
7.881560e-002 
7.790177e-002 
7.583834e-002 
7.385352e-002 
7.212001e-002 
6.980330e-002 
6.889349e-002 
6.910463e-002 
6.980020e-002 
6.998342e-002 
7.125809e-002 
7.141582e-002 
7.017146e-002 
6.721242e-002 
6.488848e-002 
6.316294e-002 
6.168433e-002 
6.014389e-002 
5.935195e-002 
6.093968e-002 
6.258226e-002 
6.433872e-002 
6.494721e-002 
6.489728e-002 
6.441025e-002 
6.295179e-002 
5.995010e-002 
5.776023e-002 
5.653746e-002 
5.528220e-002 
5.414420e-002 
5.300505e-002 
5.323848e-002 
5.440271e-002 
5.467553e-002 
5.432699e-002 
5.420169e-002 
5.168480e-002 
4.873311e-002 
4.628725e-002 
4.417232e-002 
4.361485e-002 
4.412017e-002 
4.420640e-002 
4.597808e-002 
4.695019e-002 
4.680965e-002 
4.782533e-002 
4.628441e-002 
4.454136e-002 
4.340739e-002 
4.075284e-002 
3.812030e-002 
3.724765e-002 
3.583693e-002 
3.630502e-002 
3.675931e-002 
3.675791e-002 
3.839232e-002 
3.804749e-002 
3.607760e-002 
3.398335e-002 
3.206964e-002 
3.088745e-002 
2.994274e-002 
2.816779e-002 
2.785353e-002 
2.789950e-002 
2.829706e-002 
2.935348e-002 
2.983330e-002 
3.046219e-002 
2.976025e-002 
2.708337e-002 
2.347748e-002 
2.104503e-002 
2.108005e-002 
2.277325e-002 
2.375285e-002 
2.546796e-002 
2.873777e-002 
3.136077e-002 
3.333773e-002 
3.578341e-002 
3.950773e-002 
4.254012e-002 
4.342528e-002 
4.371603e-002 
4.576977e-002 
4.872227e-002 
5.128434e-002 
5.546832e-002 
6.079033e-002 
6.470867e-002 
6.777834e-002 
7.026200e-002 
7.093019e-002 
7.119933e-002 
7.007715e-002 
6.919205e-002 
6.966758e-002 
6.926962e-002 
7.036831e-002 
7.303941e-002 
7.448020e-002 
7.564176e-002 
7.633039e-002 
7.605547e-002 
7.734347e-002 
7.702533e-002 
7.576375e-002 
7.599251e-002 
7.576267e-002 
7.515064e-002 
7.556227e-002 
7.644600e-002 
7.900347e-002 
8.183025e-002 
8.206165e-002 
8.267523e-002 
8.341557e-002 
8.224029e-002 
7.957318e-002 
7.764414e-002 
7.572255e-002 
7.420853e-002 
7.325305e-002 
7.232518e-002 
7.364211e-002 
7.490243e-002 
7.338054e-002 
7.211144e-002 
7.068714e-002 
6.802458e-002 
6.651398e-002 
6.433243e-002 
6.348444e-002 
6.462023e-002 
6.327524e-002 
6.199283e-002 
6.343254e-002 
6.460390e-002 
6.613460e-002 
6.652193e-002 
6.444907e-002 
6.273725e-002 
5.933209e-002 
5.556391e-002 
5.372095e-002 
5.241390e-002 
5.227916e-002 
5.238644e-002 
5.085174e-002 
4.934302e-002 
4.893097e-002 
4.907758e-002 
4.827614e-002 
4.517914e-002 
4.259659e-002 
3.996301e-002 
3.591142e-002 
3.260319e-002 
3.188167e-002 
3.323039e-002 
3.444838e-002 
3.388292e-002 
3.367520e-002 
3.382448e-002 
3.201017e-002 
2.939640e-002 
2.693057e-002 
2.477148e-002 
2.306976e-002 
2.115042e-002 
1.950288e-002 
2.058242e-002 
2.200489e-002 
2.296599e-002 
2.449839e-002 
2.545650e-002 
2.557256e-002 
2.522574e-002 
2.297044e-002 
2.092716e-002 
2.143215e-002 
2.104304e-002 
2.123698e-002 
2.250391e-002 
2.304775e-002 
2.425620e-002 
2.532245e-002 
2.414956e-002 
2.372322e-002 
2.347483e-002 
2.069676e-002 
1.788913e-002 
1.448976e-002 
1.211731e-002 
1.257857e-002 
1.323324e-002 
1.419555e-002 
1.590522e-002 
1.602205e-002 
1.615257e-002 
1.606138e-002 
1.434367e-002 
1.451010e-002 
1.490847e-002 
1.411732e-002 
1.386404e-002 
1.312615e-002 
1.350022e-002 
1.622483e-002 
1.721787e-002 
1.844829e-002 
2.081720e-002 
2.012688e-002 
1.821951e-002 
1.593405e-002 
1.328231e-002 
1.204498e-002 
1.195039e-002 
1.331029e-002 
1.695860e-002 
2.065769e-002 
2.421560e-002 
2.855687e-002 
3.329224e-002 
3.882478e-002 
4.394153e-002 
5.035723e-002 
5.792056e-002 
6.441574e-002 
7.082584e-002 
7.709904e-002 
8.284526e-002 
8.928376e-002 
9.390457e-002 
9.593584e-002 
9.720928e-002 
9.639506e-002 
9.357787e-002 
8.933347e-002 
8.404810e-002 
7.889010e-002 
7.359635e-002 
6.809819e-002 
6.334379e-002 
5.901704e-002 
5.544056e-002 
5.143543e-002 
4.667935e-002 
4.237653e-002 
3.731771e-002 
3.228763e-002 
2.865138e-002 
2.633605e-002 
2.454931e-002 
2.323095e-002 
2.246812e-002 
2.195463e-002 
2.112710e-002 
1.839313e-002 
1.413653e-002 
1.029198e-002 
7.427056e-003 
1.607776e-003 
-3.819514e-003 
-7.113085e-003 
-1.094410e-002 
-1.416958e-002 
-1.723290e-002 
-1.938703e-002 
-1.845224e-002 
-1.761699e-002 
-1.981549e-002 
-2.026634e-002 
-2.139204e-002 
-2.407585e-002 
-2.571243e-002 
-2.699035e-002 
-2.747645e-002 
-2.578071e-002 
-2.349684e-002 
-2.195407e-002 
-1.972749e-002 
-1.865499e-002 
-1.784645e-002 
-1.635737e-002 
-1.530636e-002 
-1.494214e-002 
-1.136499e-002 
-7.254499e-003 
-4.561668e-003 
4.783971e-004 
5.000843e-003 
7.417734e-003 
6.081792e-003 
-3.213155e-003 
-2.112073e-002 
-4.790989e-002 
-8.767578e-002 
-1.340537e-001 
-1.817594e-001 
-2.311071e-001 
-2.771292e-001 
-3.171034e-001 
-3.507051e-001 
-3.773893e-001 
-3.994422e-001 
-4.164638e-001 
-4.260553e-001 
-4.320903e-001 
-4.354196e-001 
-4.337422e-001 
-4.243687e-001 
-4.051964e-001 
-3.761353e-001 
-3.375876e-001 
-2.889683e-001 
-2.341724e-001 
-1.792308e-001 
-1.276943e-001 
-7.986414e-002 
-3.637494e-002 
-1.126981e-003 
2.446025e-002 
4.293830e-002 
5.779493e-002 
6.870446e-002 
7.731261e-002 
8.818116e-002 
1.027231e-001 
1.175033e-001 
1.301852e-001 
1.403366e-001 
1.475520e-001 
1.505982e-001 
1.482711e-001 
1.436719e-001 
1.396241e-001 
1.366920e-001 
1.353946e-001 
1.360565e-001 
1.369381e-001 
1.375537e-001 
1.375450e-001 
1.360084e-001 
1.337853e-001 
1.319871e-001 
1.296921e-001 
1.261004e-001 
1.231373e-001 
1.200185e-001 
1.179459e-001 
1.172889e-001 
1.185605e-001 
1.198963e-001 
1.198609e-001 
1.183121e-001 
1.163735e-001 
1.140258e-001 
1.110087e-001 
1.083512e-001 
1.063352e-001 
1.053362e-001 
1.028844e-001 
1.020553e-001 
1.027331e-001 
1.024772e-001 
1.021152e-001 
1.021671e-001 
9.997883e-002 
9.697724e-002 
9.375948e-002 
9.097647e-002 
8.915052e-002 
8.610267e-002 
8.362233e-002 
8.348706e-002 
8.366279e-002 
8.297600e-002 
8.264795e-002 
8.250200e-002 
8.174435e-002 
7.897997e-002 
7.522986e-002 
7.298243e-002 
7.205368e-002 
7.081351e-002 
6.931994e-002 
6.860048e-002 
6.940974e-002 
7.033257e-002 
7.003293e-002 
6.958266e-002 
7.018832e-002 
6.915214e-002 
6.584942e-002 
6.198790e-002 
6.002874e-002 
6.008655e-002 
5.937639e-002 
5.855691e-002 
6.038518e-002 
6.246520e-002 
6.163292e-002 
5.990580e-002 
5.846099e-002 
5.791172e-002 
5.644052e-002 
5.292141e-002 
5.116373e-002 
5.102891e-002 
4.889058e-002 
4.673191e-002 
4.590089e-002 
4.643857e-002 
4.689077e-002 
4.611242e-002 
4.437413e-002 
4.373041e-002 
4.143660e-002 
3.733266e-002 
3.456525e-002 
3.227866e-002 
3.134659e-002 
3.035554e-002 
2.966900e-002 
2.936634e-002 
2.969477e-002 
2.827353e-002 
2.604174e-002 
2.292136e-002 
1.964141e-002 
1.719697e-002 
1.432385e-002 
1.237991e-002 
1.129876e-002 
1.152072e-002 
1.197449e-002 
1.133347e-002 
1.122748e-002 
1.224690e-002 
1.206701e-002 
1.133985e-002 
1.145836e-002 
1.248920e-002 
1.492720e-002 
1.684942e-002 
1.929804e-002 
2.486664e-002 
2.980056e-002 
3.451894e-002 
3.896560e-002 
4.345730e-002 
4.851847e-002 
5.144675e-002 
5.332777e-002 
5.596258e-002 
5.830296e-002 
5.970437e-002 
6.105118e-002 
6.276832e-002 
6.699313e-002 
7.017896e-002 
7.099924e-002 
7.203796e-002 
7.137817e-002 
6.914392e-002 
6.592439e-002 
6.308664e-002 
6.226781e-002 
6.294660e-002 
6.286678e-002 
6.351948e-002 
6.538861e-002 
6.685957e-002 
6.747445e-002 
6.792037e-002 
6.816930e-002 
6.728865e-002 
6.675226e-002 
6.530947e-002 
6.390766e-002 
6.432578e-002 
6.460310e-002 
6.499794e-002 
6.697325e-002 
6.798058e-002 
6.867325e-002 
6.946504e-002 
6.813572e-002 
6.658696e-002 
6.485064e-002 
6.221536e-002 
5.910134e-002 
5.726219e-002 
5.656142e-002 
5.683317e-002 
5.794502e-002 
5.848163e-002 
5.869141e-002 
5.874100e-002 
5.775742e-002 
5.463317e-002 
5.193138e-002 
4.887561e-002 
4.551258e-002 
4.380187e-002 
4.211069e-002 
4.135855e-002 
4.175435e-002 
4.136398e-002 
4.037417e-002 
3.924706e-002 
3.686204e-002 
3.473364e-002 
3.258252e-002 
2.873402e-002 
2.544881e-002 
2.254026e-002 
2.059978e-002 
1.918586e-002 
1.808864e-002 
1.827969e-002 
1.930300e-002 
1.849961e-002 
1.652970e-002 
1.452501e-002 
1.176301e-002 
8.711023e-003 
5.920386e-003 
4.425697e-003 
4.656336e-003 
5.378042e-003 
5.616389e-003 
6.483719e-003 
6.250452e-003 
5.545534e-003 
5.150026e-003 
4.433353e-003 
2.902608e-003 
1.572583e-003 
4.844212e-004 
-5.324648e-004 
-8.633685e-004 
-5.981539e-004 
1.194612e-003 
3.560859e-003 
4.257568e-003 
4.266704e-003 
4.252802e-003 
3.244207e-003 
1.172823e-003 
-7.661080e-004 
-1.445071e-003 
-1.093107e-003 
-9.449482e-004 
-2.230548e-003 
-1.383734e-003 
-1.033161e-005 
1.053461e-003 
2.148792e-003 
2.400941e-003 
1.564148e-003 
-8.368399e-004 
-4.590012e-003 
-6.928209e-003 
-6.084591e-003 
-6.349080e-003 
-5.437784e-003 
-4.357677e-003 
-4.774443e-003 
-5.578351e-003 
-5.823227e-003 
-5.503538e-003 
-5.580908e-003 
-6.932355e-003 
-9.978491e-003 
-1.148990e-002 
-1.257289e-002 
-1.386624e-002 
-1.313476e-002 
-9.851783e-003 
-8.233198e-003 
-8.294426e-003 
-7.967218e-003 
-8.629925e-003 
-8.532960e-003 
-8.721717e-003 
-9.201699e-003 
-7.456090e-003 
-4.857463e-003 
-2.407490e-003 
3.195221e-003 
1.009196e-002 
1.708704e-002 
2.558330e-002 
3.352526e-002 
4.143100e-002 
4.895252e-002 
5.511070e-002 
5.992313e-002 
6.311404e-002 
6.469109e-002 
6.628174e-002 
6.739787e-002 
6.726128e-002 
6.736293e-002 
6.648427e-002 
6.392596e-002 
5.912413e-002 
5.324163e-002 
4.645078e-002 
3.930566e-002 
3.132958e-002 
2.476550e-002 
2.054267e-002 
1.666141e-002 
1.348753e-002 
1.125874e-002 
9.562049e-003 
7.201820e-003 
4.942420e-003 
3.045688e-003 
2.381731e-003 
1.117175e-004 
-3.313080e-003 
-6.467637e-003 
-1.031809e-002 
-1.505648e-002 
-1.895451e-002 
-2.134248e-002 
-2.345991e-002 
-2.705458e-002 
-3.167477e-002 
-3.537410e-002 
-3.985563e-002 
-4.540987e-002 
-4.871145e-002 
-4.985493e-002 
-5.074994e-002 
-5.078277e-002 
-4.945335e-002 
-4.701037e-002 
-4.620101e-002 
-4.637958e-002 
-4.530738e-002 
-4.389132e-002 
-4.439715e-002 
-4.488928e-002 
-4.444308e-002 
-4.319289e-002 
-4.236939e-002 
-4.120533e-002 
-3.714548e-002 
-3.142898e-002 
-2.599593e-002 
-1.955932e-002 
-1.321304e-002 
-8.679144e-003 
-6.278741e-003 
-9.304255e-003 
-1.812023e-002 
-3.442274e-002 
-5.988519e-002 
-9.427709e-002 
-1.344698e-001 
-1.789545e-001 
-2.243179e-001 
-2.686706e-001 
-3.097256e-001 
-3.456761e-001 
-3.761330e-001 
-4.008674e-001 
-4.197218e-001 
-4.302259e-001 
-4.354930e-001 
-4.366288e-001 
-4.314374e-001 
-4.190990e-001 
-4.003588e-001 
-3.726325e-001 
-3.361794e-001 
-2.906739e-001 
-2.385500e-001 
-1.875823e-001 
-1.367770e-001 
-8.837423e-002 
-4.746867e-002 
-1.259621e-002 
1.637430e-002 
3.851198e-002 
5.545762e-002 
6.600737e-002 
7.341733e-002 
8.228306e-002 
8.989005e-002 
9.914534e-002 
1.112372e-001 
1.215949e-001 
1.299832e-001 
1.354638e-001 
1.378871e-001 
1.389212e-001 
1.383467e-001 
1.369795e-001 
1.369653e-001 
1.359591e-001 
1.338964e-001 
1.327666e-001 
1.317198e-001 
1.308270e-001 
1.298436e-001 
1.297034e-001 
1.305493e-001 
1.311222e-001 
1.305524e-001 
1.289852e-001 
1.274236e-001 
1.261459e-001 
1.237598e-001 
1.209996e-001 
1.187025e-001 
1.168410e-001 
1.150402e-001 
1.125602e-001 
1.118432e-001 
1.135496e-001 
1.149778e-001 
1.147352e-001 
1.140006e-001 
1.125399e-001 
1.101560e-001 
1.059797e-001 
1.033105e-001 
1.038057e-001 
1.034762e-001 
1.030133e-001 
1.028605e-001 
1.037050e-001 
1.041906e-001 
1.027232e-001 
1.005032e-001 
9.965785e-002 
9.720984e-002 
9.248289e-002 
8.933125e-002 
8.741272e-002 
8.625661e-002 
8.467874e-002 
8.334702e-002 
8.395911e-002 
8.452929e-002 
8.290360e-002 
8.109841e-002 
7.999825e-002 
7.797572e-002 
7.490604e-002 
7.145111e-002 
6.937022e-002 
6.910316e-002 
6.820219e-002 
6.835569e-002 
7.031680e-002 
7.181544e-002 
7.176091e-002 
7.042594e-002 
6.814234e-002 
6.642218e-002 
6.544458e-002 
6.406369e-002 
6.405066e-002 
6.490442e-002 
6.542324e-002 
6.542330e-002 
6.493260e-002 
6.437601e-002 
6.527368e-002 
6.520213e-002 
6.292604e-002 
6.018947e-002 
5.734114e-002 
5.394421e-002 
4.951439e-002 
4.609071e-002 
4.555891e-002 
4.594717e-002 
4.447030e-002 
4.277344e-002 
4.054341e-002 
3.778753e-002 
3.421500e-002 
3.009031e-002 
2.772135e-002 
2.657237e-002 
2.463173e-002 
2.229545e-002 
2.091370e-002 
2.078913e-002 
2.150140e-002 
2.176062e-002 
2.095406e-002 
2.022495e-002 
1.859964e-002 
1.572170e-002 
1.231457e-002 
1.092556e-002 
1.090400e-002 
1.089168e-002 
1.264166e-002 
1.546304e-002 
1.890622e-002 
2.193543e-002 
2.498371e-002 
2.752482e-002 
3.075927e-002 
3.327340e-002 
3.628499e-002 
4.028282e-002 
4.344734e-002 
4.722242e-002 
5.231509e-002 
5.835885e-002 
6.392945e-002 
6.961055e-002 
7.499108e-002 
7.931981e-002 
8.115837e-002 
8.114415e-002 
8.126995e-002 
8.217657e-002 
8.237931e-002 
8.300696e-002 
8.540125e-002 
8.839265e-002 
9.120655e-002 
9.236189e-002 
9.394177e-002 
9.588014e-002 
9.552383e-002 
9.384088e-002 
9.339751e-002 
9.258030e-002 
9.251336e-002 
9.315997e-002 
9.369392e-002 
9.574310e-002 
9.727262e-002 
9.834456e-002 
9.962944e-002 
9.964786e-002 
9.799051e-002 
9.725014e-002 
9.518703e-002 
9.225334e-002 
9.035486e-002 
8.948553e-002 
8.958324e-002 
8.848051e-002 
8.802594e-002 
8.861394e-002 
8.827860e-002 
8.618459e-002 
8.387831e-002 
8.184276e-002 
7.947878e-002 
7.531415e-002 
7.240611e-002 
7.295705e-002 
7.239471e-002 
7.161228e-002 
7.207323e-002 
7.187830e-002 
7.182145e-002 
6.988952e-002 
6.666441e-002 
6.511453e-002 
6.147061e-002 
5.707143e-002 
5.563780e-002 
5.374440e-002 
5.287323e-002 
5.309560e-002 
5.230159e-002 
5.167694e-002 
5.056813e-002 
4.953200e-002 
4.859706e-002 
4.557083e-002 
4.201011e-002 
4.028674e-002 
3.838431e-002 
3.651079e-002 
3.542295e-002 
3.733102e-002 
3.906352e-002 
3.832127e-002 
3.791301e-002 
3.825267e-002 
3.631612e-002 
3.234571e-002 
2.850667e-002 
2.606883e-002 
2.439544e-002 
2.135461e-002 
2.011702e-002 
2.173618e-002 
2.251334e-002 
2.098875e-002 
1.921627e-002 
1.829196e-002 
1.693183e-002 
1.446582e-002 
1.184955e-002 
1.084517e-002 
1.050700e-002 
9.082794e-003 
7.975335e-003 
8.501942e-003 
1.152432e-002 
1.431009e-002 
1.655166e-002 
1.831957e-002 
1.897371e-002 
1.773201e-002 
1.671263e-002 
1.692492e-002 
1.960942e-002 
2.537627e-002 
3.175063e-002 
3.829906e-002 
4.466747e-002 
5.128059e-002 
5.811950e-002 
6.545877e-002 
7.192205e-002 
7.638529e-002 
7.902401e-002 
7.936410e-002 
7.818633e-002 
7.750044e-002 
7.667653e-002 
7.599419e-002 
7.755631e-002 
7.769482e-002 
7.415048e-002 
7.048517e-002 
6.574785e-002 
5.945298e-002 
5.210584e-002 
4.489139e-002 
4.017776e-002 
3.750086e-002 
3.309854e-002 
2.941959e-002 
2.867184e-002 
2.723616e-002 
2.562721e-002 
2.466037e-002 
2.376490e-002 
2.152752e-002 
1.866063e-002 
1.439795e-002 
9.658682e-003 
4.712683e-003 
8.659276e-004 
-2.083190e-003 
-4.538809e-003 
-6.956065e-003 
-8.987519e-003 
-1.024782e-002 
-1.381892e-002 
-1.840579e-002 
-2.231401e-002 
-2.485017e-002 
-2.693091e-002 
-2.725326e-002 
-2.711036e-002 
-2.623895e-002 
-2.494257e-002 
-2.457725e-002 
-2.378943e-002 
-2.247792e-002 
-2.152383e-002 
-2.122723e-002 
-2.192105e-002 
-2.365937e-002 
-2.319180e-002 
-2.176696e-002 
-2.137089e-002 
-1.882643e-002 
-1.611440e-002 
-1.519966e-002 
-1.382416e-002 
-1.270751e-002 
-1.139709e-002 
-8.639505e-003 
-7.039898e-003 
-4.845397e-003 
-1.762217e-003 
-2.039591e-003 
-4.683857e-003 
-1.003630e-002 
-2.258986e-002 
-4.333661e-002 
-7.313763e-002 
-1.110581e-001 
-1.544370e-001 
-2.002977e-001 
-2.443757e-001 
-2.830836e-001 
-3.155509e-001 
-3.423196e-001 
-3.623236e-001 
-3.772342e-001 
-3.858314e-001 
-3.875118e-001 
-3.825507e-001 
-3.725542e-001 
-3.580804e-001 
-3.394810e-001 
-3.164343e-001 
-2.881886e-001 
-2.548884e-001 
-2.127377e-001 
-1.652115e-001 
-1.170613e-001 
-7.184227e-002 
-3.327473e-002 
-3.419725e-003 
1.717593e-002 
2.930730e-002 
3.705189e-002 
4.313980e-002 
4.624215e-002 
4.921997e-002 
5.199352e-002 
5.586862e-002 
6.167740e-002 
6.893041e-002 
7.736461e-002 
8.544966e-002 
9.091383e-002 
9.219597e-002 
9.046676e-002 
8.634889e-002 
8.158737e-002 
7.779988e-002 
7.561662e-002 
7.410672e-002 
7.338491e-002 
7.398098e-002 
7.421292e-002 
7.379108e-002 
7.227250e-002 
7.034266e-002 
6.955489e-002 
6.682098e-002 
6.353366e-002 
6.199200e-002 
6.118648e-002 
6.032887e-002 
5.962738e-002 
5.958909e-002 
6.101903e-002 
6.102660e-002 
5.899678e-002 
5.823367e-002 
5.584120e-002 
5.252150e-002 
4.949659e-002 
4.612462e-002 
4.396891e-002 
4.304428e-002 
4.183006e-002 
4.134998e-002 
4.114832e-002 
3.933275e-002 
3.832207e-002 
3.707585e-002 
3.446878e-002 
3.207663e-002 
2.981106e-002 
2.695203e-002 
2.482056e-002 
2.416713e-002 
2.486320e-002 
2.717460e-002 
2.837758e-002 
2.769210e-002 
2.674037e-002 
2.554193e-002 
2.332859e-002 
2.145259e-002 
2.089037e-002 
2.149539e-002 
2.110193e-002 
1.923941e-002 
1.856790e-002 
1.994334e-002 
2.130113e-002 
2.201298e-002 
2.259075e-002 
2.268867e-002 
2.077866e-002 
1.670205e-002 
1.332079e-002 
1.163468e-002 
1.117696e-002 
1.106521e-002 
1.203911e-002 
1.317134e-002 
1.314767e-002 
1.225341e-002 
1.122670e-002 
9.785981e-003 
7.074059e-003 
3.962080e-003 
1.146758e-003 
-8.087010e-004 
-2.907550e-003 
-4.104883e-003 
-4.544558e-003 
-4.147072e-003 
-4.827833e-003 
-7.102397e-003 
-9.134965e-003 
-1.070849e-002 
-1.311216e-002 
-1.719353e-002 
-2.120776e-002 
-2.482077e-002 
-2.695876e-002 
-2.936397e-002 
-3.122613e-002 
-3.121823e-002 
-3.028782e-002 
-3.189224e-002 
-3.528480e-002 
-3.789302e-002 
-4.014694e-002 
-4.276671e-002 
-4.610619e-002 
-4.788793e-002 
-4.792445e-002 
-4.760707e-002 
-4.747347e-002 
-4.513366e-002 
-4.142301e-002 
-3.927225e-002 
-3.764621e-002 
-3.468372e-002 
-3.146023e-002 
-2.906836e-002 
-2.623988e-002 
-2.151915e-002 
-1.573225e-002 
-1.051803e-002 
-4.819556e-003 
4.225240e-003 
1.234925e-002 
1.795643e-002 
2.347952e-002 
2.863983e-002 
3.322077e-002 
3.566110e-002 
3.756184e-002 
4.146152e-002 
4.594922e-002 
4.838317e-002 
5.147018e-002 
5.456061e-002 
5.793105e-002 
6.050179e-002 
6.114846e-002 
6.213708e-002 
6.231078e-002 
6.101564e-002 
6.057415e-002 
6.011278e-002 
5.978448e-002 
6.118965e-002 
6.233582e-002 
6.439736e-002 
6.583313e-002 
6.623314e-002 
6.732906e-002 
6.835740e-002 
6.648569e-002 
6.401266e-002 
6.188691e-002 
6.061004e-002 
5.926555e-002 
5.768872e-002 
5.906706e-002 
6.063302e-002 
6.051170e-002 
5.903313e-002 
5.746794e-002 
5.545826e-002 
5.364271e-002 
4.998881e-002 
4.714650e-002 
4.555770e-002 
4.253739e-002 
4.040570e-002 
3.883594e-002 
3.701134e-002 
3.641007e-002 
3.573710e-002 
3.401079e-002 
3.308183e-002 
2.994001e-002 
2.491390e-002 
2.031023e-002 
1.611516e-002 
1.395563e-002 
1.324221e-002 
1.260598e-002 
1.411736e-002 
1.449216e-002 
1.130609e-002 
8.509605e-003 
6.704863e-003 
3.927099e-003 
1.145568e-003 
-1.540708e-003 
-3.900735e-003 
-5.124773e-003 
-8.085982e-003 
-9.217273e-003 
-7.040413e-003 
-6.309999e-003 
-7.103985e-003 
-7.032605e-003 
-8.058888e-003 
-1.036787e-002 
-1.225169e-002 
-1.380794e-002 
-1.331905e-002 
-1.393625e-002 
-1.573614e-002 
-1.512778e-002 
-1.260491e-002 
-1.147890e-002 
-1.035472e-002 
-8.866037e-003 
-9.306245e-003 
-1.188335e-002 
-1.624115e-002 
-1.802787e-002 
-1.662825e-002 
-1.540801e-002 
-1.421954e-002 
-1.077393e-002 
-7.351335e-003 
-4.743805e-003 
-9.654724e-004 
3.345440e-003 
8.447565e-003 
1.356762e-002 
1.742886e-002 
2.171633e-002 
2.737044e-002 
3.336052e-002 
3.968699e-002 
4.552531e-002 
4.964691e-002 
5.274287e-002 
5.447431e-002 
5.338498e-002 
5.119367e-002 
4.907037e-002 
4.494163e-002 
3.904634e-002 
3.413311e-002 
2.891127e-002 
2.373150e-002 
1.971150e-002 
1.618331e-002 
1.330798e-002 
1.025795e-002 
5.029007e-003 
-7.747415e-004 
-5.815406e-003 
-1.256678e-002 
-1.745866e-002 
-1.953471e-002 
-2.180945e-002 
-2.364654e-002 
-2.521175e-002 
-2.750215e-002 
-2.919327e-002 
-3.310650e-002 
-3.882217e-002 
-4.241204e-002 
-4.681051e-002 
-5.342568e-002 
-5.954454e-002 
-6.421255e-002 
-6.714820e-002 
-7.138907e-002 
-7.566983e-002 
-7.482444e-002 
-7.288114e-002 
-7.355115e-002 
-7.462265e-002 
-7.562440e-002 
-7.613565e-002 
-7.814699e-002 
-8.175576e-002 
-8.020953e-002 
-7.684873e-002 
-7.705945e-002 
-7.579714e-002 
-7.359457e-002 
-7.211427e-002 
-6.881031e-002 
-6.691204e-002 
-6.560038e-002 
-6.346105e-002 
-6.453427e-002 
-6.563808e-002 
-6.457453e-002 
-6.412552e-002 
-6.114265e-002 
-5.524018e-002 
-4.977770e-002 
-4.370322e-002 
-3.800486e-002 
-3.410999e-002 
-3.335485e-002 
-3.800778e-002 
-4.689555e-002 
-6.120566e-002 
-8.234103e-002 
-1.107095e-001 
-1.467436e-001 
-1.892570e-001 
-2.360396e-001 
-2.859174e-001 
-3.341639e-001 
-3.771856e-001 
-4.157715e-001 
-4.481822e-001 
-4.758084e-001 
-4.980538e-001 
-5.137234e-001 
-5.216325e-001 
-5.217658e-001 
-5.136064e-001 
-4.979228e-001 
-4.764894e-001 
-4.475762e-001 
-4.113294e-001 
-3.677643e-001 
-3.189244e-001 
-2.668604e-001 
-2.166343e-001 
-1.701992e-001 
-1.290784e-001 
-9.328475e-002 
-6.186939e-002 
-3.563561e-002 
-1.526217e-002 
4.559385e-004 
1.238398e-002 
2.054820e-002 
2.888521e-002 
3.793041e-002 
4.771407e-002 
5.819650e-002 
6.776447e-002 
7.424450e-002 
7.886829e-002 
8.087894e-002 
7.997040e-002 
7.783853e-002 
7.511532e-002 
7.344508e-002 
7.301796e-002 
7.196539e-002 
6.989174e-002 
6.803505e-002 
6.561742e-002 
6.332744e-002 
6.288098e-002 
6.458343e-002 
6.640585e-002 
6.674339e-002 
6.621262e-002 
6.469338e-002 
6.179684e-002 
5.819050e-002 
5.530588e-002 
5.276621e-002 
5.039719e-002 
4.883738e-002 
4.871643e-002 
4.962028e-002 
4.995487e-002 
4.810440e-002 
4.644787e-002 
4.537802e-002 
4.369113e-002 
4.211213e-002 
4.081080e-002 
3.875502e-002 
3.657980e-002 
3.495366e-002 
3.381241e-002 
3.610719e-002 
3.926151e-002 
4.048785e-002 
4.049703e-002 
3.968956e-002 
3.722188e-002 
3.516116e-002 
3.315363e-002 
3.248517e-002 
3.230783e-002 
3.050285e-002 
2.897288e-002 
2.925789e-002 
3.037405e-002 
3.006522e-002 
2.965599e-002 
2.862771e-002 
2.788971e-002 
2.452138e-002 
2.125354e-002 
1.874418e-002 
1.690013e-002 
1.620351e-002 
1.552948e-002 
1.594530e-002 
1.650427e-002 
1.727362e-002 
1.613075e-002 
1.520446e-002 
1.311547e-002 
1.186849e-002 
1.092187e-002 
8.595689e-003 
7.310266e-003 
7.193865e-003 
8.293007e-003 
9.688749e-003 
1.246554e-002 
1.389578e-002 
1.449867e-002 
1.309516e-002 
1.097786e-002 
1.077434e-002 
9.648552e-003 
8.341556e-003 
7.377354e-003 
6.032637e-003 
3.857985e-003 
3.600740e-003 
4.118996e-003 
5.696406e-003 
6.162737e-003 
3.150427e-003 
1.702358e-004 
-3.969767e-003 
-8.398647e-003 
-1.094394e-002 
-1.200104e-002 
-1.283355e-002 
-1.310943e-002 
-1.401745e-002 
-1.474966e-002 
-1.421820e-002 
-1.459614e-002 
-1.469388e-002 
-1.576161e-002 
-1.864151e-002 
-2.110944e-002 
-2.172420e-002 
-2.142460e-002 
-2.059179e-002 
-1.841193e-002 
-1.608630e-002 
-1.362073e-002 
-1.239921e-002 
-1.024071e-002 
-7.096238e-003 
-4.511630e-003 
-3.750319e-003 
-3.853811e-003 
-2.448458e-003 
-4.907789e-004 
2.824792e-003 
7.969970e-003 
1.406124e-002 
1.887443e-002 
2.236734e-002 
2.359585e-002 
2.459822e-002 
2.582850e-002 
2.684838e-002 
2.856222e-002 
3.011841e-002 
3.026597e-002 
3.107808e-002 
3.244449e-002 
3.516830e-002 
3.899361e-002 
4.123575e-002 
4.283296e-002 
4.340982e-002 
4.153077e-002 
3.844292e-002 
3.668617e-002 
3.654797e-002 
3.847421e-002 
3.823481e-002 
3.862677e-002 
4.095559e-002 
4.191754e-002 
4.220725e-002 
4.362719e-002 
4.407075e-002 
4.328830e-002 
4.008797e-002 
3.520923e-002 
3.452929e-002 
3.398582e-002 
3.233390e-002 
3.376130e-002 
3.482886e-002 
3.405965e-002 
3.376267e-002 
3.199590e-002 
3.141966e-002 
3.184605e-002 
2.874054e-002 
2.518681e-002 
2.282362e-002 
2.001708e-002 
1.976488e-002 
2.072067e-002 
2.141332e-002 
2.306022e-002 
2.357365e-002 
2.254546e-002 
2.136694e-002 
2.044315e-002 
2.000388e-002 
1.922411e-002 
1.660973e-002 
1.399222e-002 
1.256136e-002 
1.301197e-002 
1.430941e-002 
1.448040e-002 
1.465438e-002 
1.417408e-002 
1.169608e-002 
7.984231e-003 
4.720918e-003 
2.914471e-003 
2.170721e-003 
-8.631682e-005 
-1.993716e-003 
-1.729632e-003 
-7.445254e-004 
-8.253913e-004 
-9.574738e-004 
-6.721877e-004 
-1.150872e-003 
-3.230304e-003 
-6.163729e-003 
-7.874406e-003 
-9.300072e-003 
-1.082464e-002 
-1.243471e-002 
-1.201563e-002 
-1.066408e-002 
-1.057440e-002 
-1.069834e-002 
-1.138489e-002 
-1.198203e-002 
-1.278108e-002 
-1.506710e-002 
-1.777675e-002 
-1.862816e-002 
-1.919009e-002 
-2.016980e-002 
-1.944042e-002 
-1.814880e-002 
-1.543367e-002 
-1.479914e-002 
-1.581083e-002 
-1.617293e-002 
-1.642473e-002 
-1.824700e-002 
-2.058279e-002 
-2.252492e-002 
-2.328341e-002 
-2.273463e-002 
-2.342694e-002 
-2.184956e-002 
-2.010470e-002 
-1.961450e-002 
-1.914959e-002 
-1.928806e-002 
-2.058538e-002 
-2.071622e-002 
-2.158272e-002 
-2.281036e-002 
-2.208873e-002 
-2.189854e-002 
-2.028082e-002 
-1.692121e-002 
-1.456812e-002 
-1.332376e-002 
-1.123934e-002 
-1.062508e-002 
-1.099111e-002 
-1.238005e-002 
-1.380538e-002 
-1.311196e-002 
-1.239942e-002 
-1.187832e-002 
-9.538978e-003 
-5.639214e-003 
-3.410519e-003 
-1.083591e-003 
2.629308e-003 
7.536760e-003 
1.134865e-002 
1.445306e-002 
1.832164e-002 
2.320365e-002 
2.863162e-002 
3.565654e-002 
4.582170e-002 
5.718780e-002 
6.599199e-002 
7.294746e-002 
7.926752e-002 
8.161073e-002 
8.139599e-002 
8.068841e-002 
7.912722e-002 
7.695791e-002 
7.492390e-002 
7.152728e-002 
6.943424e-002 
6.653534e-002 
6.153449e-002 
5.702277e-002 
5.255437e-002 
4.642187e-002 
4.048208e-002 
3.559199e-002 
2.953767e-002 
2.399657e-002 
1.917643e-002 
1.725322e-002 
1.724122e-002 
1.785880e-002 
1.858103e-002 
1.983396e-002 
1.930711e-002 
1.544728e-002 
1.068162e-002 
5.842623e-003 
1.670866e-003 
-3.375892e-003 
-7.312330e-003 
-9.196915e-003 
-1.028619e-002 
-1.210928e-002 
-1.304160e-002 
-1.330068e-002 
-1.430854e-002 
-1.490582e-002 
-1.651129e-002 
-1.849846e-002 
-1.953076e-002 
-2.064044e-002 
-2.105644e-002 
-1.953914e-002 
-1.884383e-002 
-1.692129e-002 
-1.263229e-002 
-1.085277e-002 
-1.086105e-002 
-1.050984e-002 
-1.091978e-002 
-1.211994e-002 
-1.402139e-002 
-1.518809e-002 
-1.312193e-002 
-1.056300e-002 
-1.054535e-002 
-9.083692e-003 
-5.580618e-003 
-2.790371e-003 
4.714612e-004 
5.816086e-003 
1.234741e-002 
1.883714e-002 
2.280430e-002 
2.438838e-002 
2.609412e-002 
2.425582e-002 
1.788222e-002 
7.965780e-003 
-1.069819e-002 
-3.952804e-002 
-7.807723e-002 
-1.255091e-001 
-1.765002e-001 
-2.292089e-001 
-2.802276e-001 
-3.238047e-001 
-3.604766e-001 
-3.920836e-001 
-4.169146e-001 
-4.352725e-001 
-4.472666e-001 
-4.535203e-001 
-4.545993e-001 
-4.479954e-001 
-4.338565e-001 
-4.113454e-001 
-3.801757e-001 
-3.385965e-001 
-2.893890e-001 
-2.362863e-001 
-1.807195e-001 
-1.264784e-001 
-7.577624e-002 
-3.073421e-002 
7.605342e-003 
3.813973e-002 
6.199806e-002 
7.741790e-002 
8.843495e-002 
9.805861e-002 
1.085006e-001 
1.213163e-001 
1.345663e-001 
1.490483e-001 
1.620748e-001 
1.702235e-001 
1.735896e-001 
1.734552e-001 
1.712362e-001 
1.683043e-001 
1.644156e-001 
1.627187e-001 
1.631304e-001 
1.630801e-001 
1.631456e-001 
1.638996e-001 
1.640772e-001 
1.634610e-001 
1.621623e-001 
1.613579e-001 
1.599474e-001 
1.569502e-001 
1.540609e-001 
1.521179e-001 
1.504264e-001 
1.493350e-001 
1.491128e-001 
1.500211e-001 
1.513509e-001 
1.508527e-001 
1.497837e-001 
1.488834e-001 
1.469279e-001 
1.449115e-001 
1.439278e-001 
1.422038e-001 
1.413340e-001 
1.407480e-001 
1.404133e-001 
1.411475e-001 
1.425571e-001 
1.436533e-001 
1.444243e-001 
1.432318e-001 
1.402417e-001 
1.374719e-001 
1.351340e-001 
1.341045e-001 
1.327166e-001 
1.324093e-001 
1.321004e-001 
1.306330e-001 
1.302692e-001 
1.308621e-001 
1.313251e-001 
1.316700e-001 
1.300108e-001 
1.258520e-001 
1.219082e-001 
1.173111e-001 
1.150016e-001 
1.157144e-001 
1.166392e-001 
1.175115e-001 
1.167734e-001 
1.148784e-001 
1.125644e-001 
1.109223e-001 
1.095648e-001 
1.089595e-001 
1.068064e-001 
1.042601e-001 
1.010144e-001 
9.818366e-002 
9.764272e-002 
9.904433e-002 
1.014006e-001 
1.035998e-001 
1.045431e-001 
1.033899e-001 
1.016237e-001 
9.963957e-002 
9.764800e-002 
9.571847e-002 
9.511154e-002 
9.446791e-002 
9.451781e-002 
9.511844e-002 
9.639068e-002 
9.772443e-002 
9.770903e-002 
9.546173e-002 
9.322093e-002 
9.072535e-002 
8.743876e-002 
8.497987e-002 
8.329307e-002 
8.218803e-002 
8.032422e-002 
7.893961e-002 
7.806037e-002 
7.739246e-002 
7.672081e-002 
7.505631e-002 
7.274781e-002 
6.986238e-002 
6.585257e-002 
6.230255e-002 
6.041114e-002 
5.866764e-002 
5.915615e-002 
6.121199e-002 
6.312697e-002 
6.526780e-002 
6.617158e-002 
6.715743e-002 
6.870284e-002 
6.904601e-002 
6.952437e-002 
7.207007e-002 
7.482708e-002 
7.673843e-002 
7.815523e-002 
8.176810e-002 
8.748494e-002 
9.101729e-002 
9.331014e-002 
9.651192e-002 
9.835155e-002 
9.851072e-002 
9.751841e-002 
9.782858e-002 
1.015750e-001 
1.036777e-001 
1.045318e-001 
1.077606e-001 
1.107515e-001 
1.127299e-001 
1.151536e-001 
1.152531e-001 
1.158711e-001 
1.170406e-001 
1.147429e-001 
1.136390e-001 
1.142252e-001 
1.150176e-001 
1.168117e-001 
1.175913e-001 
1.174123e-001 
1.196943e-001 
1.215706e-001 
1.209516e-001 
1.204135e-001 
1.196864e-001 
1.181233e-001 
1.162598e-001 
1.150435e-001 
1.149495e-001 
1.155176e-001 
1.170673e-001 
1.168732e-001 
1.159579e-001 
1.158767e-001 
1.155187e-001 
1.138163e-001 
1.112550e-001 
1.081856e-001 
1.055599e-001 
1.041733e-001 
1.018947e-001 
1.021149e-001 
1.043244e-001 
1.050291e-001 
1.030355e-001 
1.030238e-001 
1.025738e-001 
9.982890e-002 
9.737684e-002 
9.534716e-002 
9.399113e-002 
9.216711e-002 
8.891285e-002 
8.719812e-002 
8.822507e-002 
8.631407e-002 
8.363352e-002 
8.289081e-002 
8.143506e-002 
7.844464e-002 
7.443053e-002 
6.934351e-002 
6.602248e-002 
6.341376e-002 
5.948647e-002 
5.856904e-002 
5.967485e-002 
5.968490e-002 
5.912413e-002 
5.783609e-002 
5.539150e-002 
5.383080e-002 
5.112115e-002 
4.751058e-002 
4.608021e-002 
4.511629e-002 
4.407330e-002 
4.420581e-002 
4.510567e-002 
4.543905e-002 
4.704502e-002 
4.739354e-002 
4.696046e-002 
4.767663e-002 
4.709381e-002 
4.549345e-002 
4.430813e-002 
4.334609e-002 
4.218552e-002 
4.281200e-002 
4.363225e-002 
4.611244e-002 
4.811819e-002 
4.796952e-002 
4.736189e-002 
4.513910e-002 
4.292931e-002 
4.005097e-002 
3.864638e-002 
3.912407e-002 
3.978162e-002 
3.848640e-002 
3.841641e-002 
3.817156e-002 
3.793532e-002 
3.952514e-002 
3.915226e-002 
3.979181e-002 
3.950227e-002 
3.674531e-002 
3.376478e-002 
3.282503e-002 
3.244549e-002 
3.402097e-002 
3.638882e-002 
3.720319e-002 
3.918839e-002 
3.913809e-002 
3.782594e-002 
3.632868e-002 
3.506544e-002 
3.462009e-002 
3.472619e-002 
3.391206e-002 
3.380704e-002 
3.563172e-002 
3.644453e-002 
3.826181e-002 
3.918761e-002 
4.043262e-002 
4.259604e-002 
4.117932e-002 
3.945382e-002 
4.038264e-002 
4.117180e-002 
4.274265e-002 
4.549562e-002 
4.908579e-002 
5.580101e-002 
6.271508e-002 
6.853332e-002 
7.712083e-002 
8.484196e-002 
9.033181e-002 
9.576295e-002 
9.994952e-002 
1.043863e-001 
1.081701e-001 
1.111028e-001 
1.133634e-001 
1.144801e-001 
1.138178e-001 
1.132631e-001 
1.120100e-001 
1.080755e-001 
1.030283e-001 
9.678567e-002 
9.000743e-002 
8.193535e-002 
7.497624e-002 
6.994381e-002 
6.609937e-002 
6.272663e-002 
5.959714e-002 
5.738928e-002 
5.517799e-002 
5.268001e-002 
4.993416e-002 
4.759756e-002 
4.399319e-002 
4.009447e-002 
3.707819e-002 
3.405694e-002 
3.076680e-002 
2.835850e-002 
2.601417e-002 
2.302110e-002 
1.906251e-002 
1.397303e-002 
9.374835e-003 
5.590355e-003 
1.310334e-003 
-2.609934e-003 
-4.507009e-003 
-6.219287e-003 
-6.929138e-003 
-5.898283e-003 
-4.153729e-003 
-1.179644e-003 
2.074734e-003 
3.020619e-003 
3.342274e-003 
3.020476e-003 
1.399488e-003 
1.916231e-003 
3.282810e-003 
3.449189e-003 
5.538626e-003 
8.204998e-003 
9.684272e-003 
1.095590e-002 
1.148222e-002 
1.280486e-002 
1.438737e-002 
1.297189e-002 
1.107127e-002 
1.250569e-002 
1.530964e-002 
1.870806e-002 
2.309886e-002 
2.819169e-002 
3.071168e-002 
2.560411e-002 
1.145454e-002 
-1.125291e-002 
-4.328602e-002 
-8.403707e-002 
-1.308944e-001 
-1.776230e-001 
-2.209847e-001 
-2.603153e-001 
-2.932355e-001 
-3.191767e-001 
-3.398939e-001 
-3.560904e-001 
-3.675070e-001 
-3.739585e-001 
-3.748565e-001 
-3.726660e-001 
-3.654491e-001 
-3.507528e-001 
-3.285301e-001 
-2.974425e-001 
-2.557330e-001 
-2.052528e-001 
-1.513703e-001 
-9.918314e-002 
-5.307056e-002 
-1.279987e-002 
2.048323e-002 
4.517927e-002 
6.312928e-002 
7.590700e-002 
8.417245e-002 
8.959498e-002 
9.592840e-002 
1.045267e-001 
1.166653e-001 
1.296288e-001 
1.400060e-001 
1.470633e-001 
1.498732e-001 
1.484810e-001 
1.456067e-001 
1.426802e-001 
1.388704e-001 
1.373734e-001 
1.366747e-001 
1.362133e-001 
1.364777e-001 
1.362144e-001 
1.361920e-001 
1.360062e-001 
1.342293e-001 
1.313257e-001 
1.289642e-001 
1.254951e-001 
1.227010e-001 
1.211383e-001 
1.207475e-001 
1.212372e-001 
1.213161e-001 
1.212991e-001 
1.204532e-001 
1.197320e-001 
1.180290e-001 
1.158535e-001 
1.132812e-001 
1.103095e-001 
1.077048e-001 
1.055819e-001 
1.041433e-001 
1.038246e-001 
1.044219e-001 
1.026313e-001 
1.005149e-001 
9.881504e-002 
9.678989e-002 
9.440185e-002 
9.114386e-002 
8.828171e-002 
8.582259e-002 
8.337487e-002 
8.025436e-002 
8.069104e-002 
8.284734e-002 
8.256951e-002 
8.105372e-002 
8.019080e-002 
7.830475e-002 
7.581109e-002 
7.355278e-002 
7.091195e-002 
7.110098e-002 
6.944577e-002 
6.613166e-002 
6.581686e-002 
6.695780e-002 
6.550057e-002 
6.495915e-002 
6.396737e-002 
6.127981e-002 
5.834573e-002 
5.387839e-002 
5.105982e-002 
5.036671e-002 
4.842136e-002 
4.530420e-002 
4.464366e-002 
4.461540e-002 
4.379826e-002 
4.345219e-002 
4.305637e-002 
4.195032e-002 
3.949648e-002 
3.515052e-002 
3.162289e-002 
3.125351e-002 
3.072637e-002 
2.867224e-002 
2.770209e-002 
2.686677e-002 
2.582067e-002 
2.406493e-002 
2.237304e-002 
2.138112e-002 
1.903372e-002 
1.390743e-002 
9.847515e-003 
7.713240e-003 
5.685297e-003 
3.823405e-003 
2.913515e-003 
3.180044e-003 
3.113421e-003 
1.865385e-003 
1.101145e-003 
4.786819e-004 
-1.858774e-003 
-5.116762e-003 
-7.400555e-003 
-7.868240e-003 
-7.759323e-003 
-7.265913e-003 
-6.035718e-003 
-4.346537e-003 
-3.021712e-003 
-1.064259e-003 
1.516125e-003 
4.344953e-003 
6.820036e-003 
7.780549e-003 
9.446185e-003 
1.220135e-002 
1.534294e-002 
1.953595e-002 
2.455004e-002 
3.051018e-002 
3.652566e-002 
4.145041e-002 
4.574710e-002 
5.006699e-002 
5.227082e-002 
5.320902e-002 
5.374427e-002 
5.489261e-002 
5.781600e-002 
5.976597e-002 
6.198245e-002 
6.463868e-002 
6.674860e-002 
6.801132e-002 
6.901899e-002 
6.936956e-002 
6.929074e-002 
6.863177e-002 
6.654945e-002 
6.548229e-002 
6.529079e-002 
6.625696e-002 
6.710906e-002 
6.845960e-002 
6.987097e-002 
7.018845e-002 
6.950090e-002 
6.711170e-002 
6.498158e-002 
6.311492e-002 
6.073097e-002 
5.824971e-002 
5.639332e-002 
5.482308e-002 
5.382008e-002 
5.344410e-002 
5.293843e-002 
5.344236e-002 
5.311016e-002 
5.147120e-002 
4.887444e-002 
4.562034e-002 
4.349124e-002 
4.225802e-002 
4.171212e-002 
4.153762e-002 
4.279936e-002 
4.407090e-002 
4.447110e-002 
4.403712e-002 
4.293429e-002 
4.156695e-002 
3.954560e-002 
3.649126e-002 
3.341898e-002 
3.174057e-002 
3.007184e-002 
2.942826e-002 
2.957683e-002 
2.967792e-002 
2.998345e-002 
2.970301e-002 
2.854003e-002 
2.658451e-002 
2.344286e-002 
2.027093e-002 
1.888713e-002 
1.734387e-002 
1.536249e-002 
1.447136e-002 
1.469806e-002 
1.537654e-002 
1.495447e-002 
1.425735e-002 
1.388746e-002 
1.301488e-002 
9.903523e-003 
5.096648e-003 
2.326128e-003 
1.029609e-003 
-5.196783e-004 
-1.967953e-003 
-2.180906e-003 
-2.170339e-004 
1.415922e-003 
1.689417e-004 
-1.627215e-003 
-2.145363e-003 
-3.241718e-003 
-5.238328e-003 
-8.014680e-003 
-8.446826e-003 
-6.915564e-003 
-7.693006e-003 
-8.052945e-003 
-6.979763e-003 
-5.185862e-003 
-3.794346e-003 
-3.087095e-003 
-4.015550e-003 
-4.083303e-003 
-5.396951e-003 
-7.282884e-003 
-6.338440e-003 
-4.051436e-003 
-1.235975e-004 
5.462607e-003 
1.182881e-002 
1.706283e-002 
2.328839e-002 
2.865863e-002 
3.306337e-002 
3.634015e-002 
3.836373e-002 
4.003770e-002 
4.112828e-002 
4.007741e-002 
3.990749e-002 
4.077160e-002 
4.102150e-002 
4.038014e-002 
3.810821e-002 
3.610455e-002 
3.239715e-002 
2.490893e-002 
1.843890e-002 
1.486291e-002 
1.046196e-002 
7.842821e-003 
5.357273e-003 
4.009389e-003 
4.206101e-003 
2.654596e-003 
5.096524e-004 
1.137578e-003 
3.024419e-005 
-3.173149e-003 
-7.068206e-003 
-1.301132e-002 
-1.798940e-002 
-2.200021e-002 
-2.564761e-002 
-2.900037e-002 
-3.085936e-002 
-3.367593e-002 
-3.714556e-002 
-4.137893e-002 
-4.495189e-002 
-4.821940e-002 
-5.182399e-002 
-5.552641e-002 
-5.842050e-002 
-5.897374e-002 
-5.911598e-002 
-5.855506e-002 
-5.640493e-002 
-5.398360e-002 
-5.358665e-002 
-5.425573e-002 
-5.578105e-002 
-5.719402e-002 
-5.833074e-002 
-5.970487e-002 
-6.129463e-002 
-6.119698e-002 
-6.063689e-002 
-5.989734e-002 
-5.781037e-002 
-5.537828e-002 
-5.250877e-002 
-4.968633e-002 
-4.810323e-002 
-4.706157e-002 
-4.366172e-002 
-3.972301e-002 
-3.603452e-002 
-3.513929e-002 
-3.836334e-002 
-4.673028e-002 
-6.176835e-002 
-8.585976e-002 
-1.187390e-001 
-1.560110e-001 
-1.989612e-001 
-2.471480e-001 
-2.951732e-001 
-3.377703e-001 
-3.726604e-001 
-4.003207e-001 
-4.227348e-001 
-4.378738e-001 
-4.441572e-001 
-4.473690e-001 
-4.461431e-001 
-4.372894e-001 
-4.222737e-001 
-4.027513e-001 
-3.798327e-001 
-3.497750e-001 
-3.108545e-001 
-2.656627e-001 
-2.174101e-001 
-1.680873e-001 
-1.219161e-001 
-8.284613e-002 
-5.390522e-002 
-3.195918e-002 
-1.493864e-002 
-4.482200e-003 
1.609587e-003 
5.385928e-003 
7.400744e-003 
9.885536e-003 
1.435317e-002 
2.107108e-002 
3.087190e-002 
4.012847e-002 
4.564778e-002 
4.850632e-002 
4.830603e-002 
4.493802e-002 
3.990525e-002 
3.598956e-002 
3.406293e-002 
3.311815e-002 
3.217680e-002 
3.147537e-002 
3.229650e-002 
3.283466e-002 
3.185962e-002 
3.062566e-002 
3.062974e-002 
2.854975e-002 
2.536521e-002 
2.179459e-002 
1.905470e-002 
1.769858e-002 
1.628525e-002 
1.563888e-002 
1.569470e-002 
1.444251e-002 
1.204292e-002 
9.879113e-003 
6.276950e-003 
3.455839e-003 
-2.961953e-005 
-4.405980e-003 
-7.496469e-003 
-1.005844e-002 
-1.222376e-002 
-1.192334e-002 
-1.207549e-002 
-1.210753e-002 
-1.225188e-002 
-1.446219e-002 
-1.611482e-002 
-1.748507e-002 
-2.028707e-002 
-2.313287e-002 
-2.394867e-002 
-2.520654e-002 
-2.560913e-002 
-2.561191e-002 
-2.444694e-002 
-2.342062e-002 
-2.432232e-002 
-2.604734e-002 
-2.764827e-002 
-2.874579e-002 
-3.155004e-002 
-3.377469e-002 
-3.522806e-002 
-3.665721e-002 
-3.817726e-002 
-3.839680e-002 
-3.749639e-002 
-3.658262e-002 
-3.579292e-002 
-3.657506e-002 
-3.755428e-002 
-3.958192e-002 
-4.180929e-002 
-4.389037e-002 
-4.499022e-002 
-4.579729e-002 
-4.696072e-002 
-4.739116e-002 
-4.655565e-002 
-4.690446e-002 
-4.830196e-002 
-4.901571e-002 
-5.103627e-002 
-5.380678e-002 
-5.786068e-002 
-6.156894e-002 
-6.281850e-002 
-6.462790e-002 
-6.845753e-002 
-6.886601e-002 
-6.787555e-002 
-6.885567e-002 
-6.967887e-002 
-7.080340e-002 
-7.236275e-002 
-7.486732e-002 
-7.939562e-002 
-8.305101e-002 
-8.435531e-002 
-8.706775e-002 
-8.954124e-002 
-8.952017e-002 
-8.929720e-002 
-8.938967e-002 
-9.040985e-002 
-9.166189e-002 
-9.375241e-002 
-9.783921e-002 
-1.024690e-001 
-1.055063e-001 
-1.068384e-001 
-1.082016e-001 
-1.092987e-001 
-1.093195e-001 
-1.083001e-001 
-1.074598e-001 
-1.070183e-001 
-1.043333e-001 
-1.019726e-001 
-1.015738e-001 
-1.024145e-001 
-1.028802e-001 
-1.024641e-001 
-9.979535e-002 
-9.671986e-002 
-9.225706e-002 
-8.543298e-002 
-8.143599e-002 
-7.757166e-002 
-7.417632e-002 
-7.130259e-002 
-6.788788e-002 
-6.461352e-002 
-6.397943e-002 
-6.180153e-002 
-6.053038e-002 
-6.006952e-002 
-5.714763e-002 
-5.414354e-002 
-4.993726e-002 
-4.614642e-002 
-4.533360e-002 
-4.640129e-002 
-4.671133e-002 
-4.882880e-002 
-4.958041e-002 
-4.887785e-002 
-4.750722e-002 
-4.570804e-002 
-4.543048e-002 
-4.577589e-002 
-4.527968e-002 
-4.366899e-002 
-4.315294e-002 
-4.248416e-002 
-4.245867e-002 
-4.326618e-002 
-4.530745e-002 
-4.812720e-002 
-4.930118e-002 
-4.857447e-002 
-4.689469e-002 
-4.551408e-002 
-4.432153e-002 
-4.397289e-002 
-4.414514e-002 
-4.573958e-002 
-4.788889e-002 
-4.956495e-002 
-5.079698e-002 
-5.147392e-002 
-5.260752e-002 
-5.427161e-002 
-5.495452e-002 
-5.458588e-002 
-5.401290e-002 
-5.421147e-002 
-5.492619e-002 
-5.600712e-002 
-5.877886e-002 
-6.362631e-002 
-6.766259e-002 
-7.005630e-002 
-7.125594e-002 
-7.275922e-002 
-7.426340e-002 
-7.408116e-002 
-7.418208e-002 
-7.514269e-002 
-7.652618e-002 
-7.755686e-002 
-7.967192e-002 
-8.290792e-002 
-8.622825e-002 
-8.760559e-002 
-8.915998e-002 
-8.987193e-002 
-8.965215e-002 
-8.971686e-002 
-8.926927e-002 
-8.923030e-002 
-8.884206e-002 
-8.875012e-002 
-9.103724e-002 
-9.402310e-002 
-9.620446e-002 
-9.919495e-002 
-1.013335e-001 
-1.014878e-001 
-1.003143e-001 
-9.932031e-002 
-1.000295e-001 
-1.012423e-001 
-1.022468e-001 
-1.047457e-001 
-1.072622e-001 
-1.098219e-001 
-1.116353e-001 
-1.133507e-001 
-1.156768e-001 
-1.164553e-001 
-1.156365e-001 
-1.141423e-001 
-1.116358e-001 
-1.091391e-001 
-1.083284e-001 
-1.078864e-001 
-1.100613e-001 
-1.125385e-001 
-1.133424e-001 
-1.141339e-001 
-1.142531e-001 
-1.129389e-001 
-1.119741e-001 
-1.112457e-001 
-1.111830e-001 
-1.117853e-001 
-1.100443e-001 
-1.098502e-001 
-1.121167e-001 
-1.151135e-001 
-1.174932e-001 
-1.204196e-001 
-1.225067e-001 
-1.222048e-001 
-1.181738e-001 
-1.135162e-001 
-1.116192e-001 
-1.096248e-001 
-1.060277e-001 
-1.013664e-001 
-9.783146e-002 
-9.309612e-002 
-8.611368e-002 
-7.993479e-002 
-7.565416e-002 
-6.970013e-002 
-6.140954e-002 
-5.210778e-002 
-4.475312e-002 
-4.121759e-002 
-3.861270e-002 
-3.849380e-002 
-4.261285e-002 
-4.556906e-002 
-4.759842e-002 
-5.045943e-002 
-5.316000e-002 
-5.786792e-002 
-6.400521e-002 
-6.792628e-002 
-7.265972e-002 
-7.740231e-002 
-8.013973e-002 
-8.396313e-002 
-8.807802e-002 
-9.297459e-002 
-9.851934e-002 
-1.021530e-001 
-1.037478e-001 
-1.043634e-001 
-1.030074e-001 
-1.023351e-001 
-1.026273e-001 
-1.051728e-001 
-1.092507e-001 
-1.131621e-001 
-1.188381e-001 
-1.249113e-001 
-1.287708e-001 
-1.339770e-001 
-1.395297e-001 
-1.428097e-001 
-1.459366e-001 
-1.472802e-001 
-1.487109e-001 
-1.514107e-001 
-1.526312e-001 
-1.532048e-001 
-1.557995e-001 
-1.582287e-001 
-1.601092e-001 
-1.611449e-001 
-1.613086e-001 
-1.605585e-001 
-1.593958e-001 
-1.564166e-001 
-1.529158e-001 
-1.518403e-001 
-1.511784e-001 
-1.501558e-001 
-1.496464e-001 
-1.491448e-001 
-1.484980e-001 
-1.481838e-001 
-1.460024e-001 
-1.443631e-001 
-1.414998e-001 
-1.350124e-001 
-1.271972e-001 
-1.197179e-001 
-1.127497e-001 
-1.085632e-001 
-1.074000e-001 
-1.099518e-001 
-1.168919e-001 
-1.276326e-001 
-1.445722e-001 
-1.696041e-001 
-2.038939e-001 
-2.457677e-001 
-2.944815e-001 
-3.448988e-001 
-3.923917e-001 
-4.373280e-001 
-4.784965e-001 
-5.135943e-001 
-5.442316e-001 
-5.693677e-001 
-5.870432e-001 
-5.972999e-001 
-5.971210e-001 
-5.897192e-001 
-5.779759e-001 
-5.577029e-001 
-5.293159e-001 
-4.936282e-001 
-4.495108e-001 
-3.994595e-001 
-3.458036e-001 
-2.910512e-001 
-2.405672e-001 
-1.948509e-001 
-1.539103e-001 
-1.188812e-001 
-8.933180e-002 
-6.710919e-002 
-5.010651e-002 
-3.666989e-002 
-2.719971e-002 
-1.791912e-002 
-7.883391e-003 
2.853034e-003 
1.526645e-002 
2.550498e-002 
3.247486e-002 
3.759718e-002 
3.838944e-002 
3.643325e-002 
3.546191e-002 
3.464096e-002 
3.394067e-002 
3.191865e-002 
2.883387e-002 
2.704995e-002 
2.548348e-002 
2.355406e-002 
2.395545e-002 
2.678071e-002 
2.837972e-002 
2.729443e-002 
2.525522e-002 
2.469113e-002 
2.334568e-002 
2.008167e-002 
1.674062e-002 
1.589267e-002 
1.514658e-002 
1.293992e-002 
1.277991e-002 
1.448504e-002 
1.668982e-002 
1.639944e-002 
1.473385e-002 
1.334277e-002 
1.278025e-002 
9.776199e-003 
5.932655e-003 
3.400996e-003 
2.437458e-003 
1.912452e-003 
7.362567e-004 
1.985294e-003 
4.418060e-003 
5.993726e-003 
4.447049e-003 
2.661721e-003 
1.431804e-003 
4.035480e-004 
-2.906998e-003 
-5.844384e-003 
-6.024389e-003 
-5.516661e-003 
-5.683142e-003 
-4.681909e-003 
-2.463836e-003 
-5.029380e-004 
5.069583e-004 
-1.349043e-003 
-3.506986e-003 
-5.330947e-003 
-7.141051e-003 
-8.796517e-003 
-9.304804e-003 
-9.612894e-003 
-8.030565e-003 
-6.146522e-003 
-5.934692e-003 
-5.487213e-003 
-3.914340e-003 
-2.543397e-003 
-3.615069e-003 
-5.783877e-003 
-7.305132e-003 
-7.775289e-003 
-8.745341e-003 
-1.023488e-002 
-1.003233e-002 
-7.237784e-003 
-6.006433e-003 
-7.044281e-003 
-7.529259e-003 
-8.886775e-003 
-1.108010e-002 
-1.462091e-002 
-1.855174e-002 
-2.060217e-002 
-2.141049e-002 
-2.376473e-002 
-2.501803e-002 
-2.503229e-002 
-2.489915e-002 
-2.446777e-002 
-2.589131e-002 
-2.730425e-002 
-2.855805e-002 
-3.128708e-002 
-3.471773e-002 
-3.723512e-002 
-3.907413e-002 
-3.893761e-002 
-3.931594e-002 
-3.978405e-002 
-3.888144e-002 
-3.901945e-002 
-4.030974e-002 
-4.228475e-002 
-4.525218e-002 
-4.752731e-002 
-4.958992e-002 
-5.252522e-002 
-5.379147e-002 
-5.424865e-002 
-5.428269e-002 
-5.259766e-002 
-4.975422e-002 
-4.657218e-002 
-4.347723e-002 
-4.265640e-002 
-4.228616e-002 
-4.157867e-002 
-4.155961e-002 
-4.022163e-002 
-3.696162e-002 
-3.311257e-002 
-2.895280e-002 
-2.597058e-002 
-2.233195e-002 
-1.720667e-002 
-1.368223e-002 
-1.147876e-002 
-9.388348e-003 
-8.869487e-003 
-8.642795e-003 
-8.364469e-003 
-8.089779e-003 
-5.084093e-003 
-2.768548e-003 
-5.017373e-004 
2.435135e-003 
5.022411e-003 
6.017399e-003 
7.181327e-003 
8.144672e-003 
7.949784e-003 
6.201457e-003 
4.431746e-003 
5.093128e-003 
6.162775e-003 
7.700839e-003 
8.678345e-003 
1.150982e-002 
1.410573e-002 
1.410249e-002 
1.249262e-002 
1.246572e-002 
1.288374e-002 
1.162675e-002 
9.696450e-003 
7.784078e-003 
7.977377e-003 
8.405969e-003 
8.208428e-003 
8.585739e-003 
1.040525e-002 
9.903203e-003 
6.802316e-003 
3.664614e-003 
-4.183349e-006 
-3.315135e-003 
-6.353971e-003 
-9.565343e-003 
-1.144405e-002 
-1.301516e-002 
-1.559831e-002 
-1.685703e-002 
-1.800461e-002 
-2.085389e-002 
-2.329701e-002 
-2.647668e-002 
-3.002480e-002 
-3.350440e-002 
-3.705249e-002 
-3.981186e-002 
-4.206592e-002 
-4.319823e-002 
-4.249900e-002 
-4.145917e-002 
-4.123437e-002 
-4.044271e-002 
-4.123915e-002 
-4.332233e-002 
-4.658388e-002 
-4.958552e-002 
-4.961340e-002 
-4.941840e-002 
-5.068199e-002 
-5.029441e-002 
-4.847690e-002 
-4.857173e-002 
-4.930912e-002 
-4.991679e-002 
-4.972246e-002 
-5.044233e-002 
-5.359870e-002 
-5.752158e-002 
-5.887272e-002 
-5.937103e-002 
-6.111592e-002 
-6.164530e-002 
-5.967403e-002 
-5.793786e-002 
-5.770328e-002 
-5.769626e-002 
-5.775471e-002 
-5.750988e-002 
-5.945659e-002 
-6.208988e-002 
-6.209075e-002 
-6.095247e-002 
-6.118756e-002 
-6.004701e-002 
-5.774438e-002 
-5.507805e-002 
-5.318515e-002 
-5.262212e-002 
-5.130135e-002 
-4.968794e-002 
-4.918858e-002 
-4.891550e-002 
-4.566434e-002 
-3.994036e-002 
-3.203323e-002 
-2.420957e-002 
-1.582692e-002 
-6.927490e-003 
2.001262e-003 
9.632004e-003 
1.631292e-002 
2.325864e-002 
2.714584e-002 
2.810203e-002 
2.706227e-002 
2.602286e-002 
2.568886e-002 
2.669438e-002 
2.670759e-002 
2.687046e-002 
2.435910e-002 
1.822549e-002 
1.189825e-002 
4.117961e-003 
-3.215647e-003 
-8.858222e-003 
-1.327223e-002 
-1.686273e-002 
-1.985268e-002 
-2.406698e-002 
-2.567897e-002 
-2.419132e-002 
-2.312673e-002 
-2.210720e-002 
-2.122933e-002 
-2.230807e-002 
-2.577793e-002 
-3.194231e-002 
-3.773596e-002 
-4.061676e-002 
-4.320490e-002 
-4.643491e-002 
-4.792044e-002 
-4.954907e-002 
-5.330915e-002 
-5.740081e-002 
-6.200124e-002 
-6.527268e-002 
-6.913654e-002 
-7.283091e-002 
-7.482560e-002 
-7.599761e-002 
-7.806121e-002 
-7.804881e-002 
-7.600191e-002 
-7.401168e-002 
-7.158227e-002 
-6.938485e-002 
-6.737419e-002 
-6.768455e-002 
-6.976892e-002 
-7.179329e-002 
-7.120340e-002 
-6.953242e-002 
-6.848072e-002 
-6.681498e-002 
-6.481277e-002 
-6.396891e-002 
-6.356827e-002 
-6.352933e-002 
-6.215098e-002 
-5.950078e-002 
-5.858736e-002 
-5.808674e-002 
-5.507641e-002 
-5.083424e-002 
-4.695095e-002 
-4.621071e-002 
-5.010589e-002 
-5.965132e-002 
-8.044897e-002 
-1.124301e-001 
-1.520280e-001 
-1.978694e-001 
-2.479101e-001 
-2.990413e-001 
-3.473375e-001 
-3.884638e-001 
-4.234518e-001 
-4.521905e-001 
-4.736245e-001 
-4.894044e-001 
-5.009250e-001 
-5.079373e-001 
-5.095744e-001 
-5.046148e-001 
-4.926691e-001 
-4.725789e-001 
-4.416512e-001 
-4.009045e-001 
-3.518862e-001 
-2.969591e-001 
-2.394179e-001 
-1.828035e-001 
-1.325484e-001 
-9.006290e-002 
-5.359243e-002 
-2.522502e-002 
-5.219445e-003 
9.867351e-003 
2.234739e-002 
3.435520e-002 
4.552792e-002 
5.701060e-002 
7.182939e-002 
8.650939e-002 
9.701909e-002 
1.039631e-001 
1.076635e-001 
1.074455e-001 
1.031833e-001 
9.709170e-002 
9.420898e-002 
9.313784e-002 
9.087344e-002 
9.037788e-002 
9.107447e-002 
9.198294e-002 
9.235190e-002 
9.035887e-002 
8.934318e-002 
8.933901e-002 
8.701262e-002 
8.348528e-002 
8.238117e-002 
8.215201e-002 
8.258020e-002 
8.191683e-002 
8.109448e-002 
8.214177e-002 
8.266189e-002 
8.199850e-002 
8.083898e-002 
8.062142e-002 
7.868600e-002 
7.525282e-002 
7.165725e-002 
7.045522e-002 
6.950729e-002 
6.860399e-002 
6.892621e-002 
6.879838e-002 
6.833200e-002 
6.665682e-002 
6.466643e-002 
6.273402e-002 
5.928923e-002 
5.546181e-002 
5.400171e-002 
5.228721e-002 
4.990094e-002 
4.874415e-002 
4.874741e-002 
4.962652e-002 
4.993818e-002 
4.904580e-002 
4.953339e-002 
4.912014e-002 
4.571469e-002 
4.268437e-002 
4.106581e-002 
4.097300e-002 
4.141407e-002 
4.156126e-002 
4.224203e-002 
4.437771e-002 
4.481627e-002 
4.421797e-002 
4.450461e-002 
4.468498e-002 
4.392280e-002 
4.202873e-002 
4.088098e-002 
4.117852e-002 
4.173053e-002 
4.232068e-002 
4.398239e-002 
4.529874e-002 
4.571080e-002 
4.591023e-002 
4.610212e-002 
4.555385e-002 
4.344638e-002 
4.040865e-002 
3.756322e-002 
3.501904e-002 
3.295672e-002 
3.202819e-002 
3.330526e-002 
3.428616e-002 
3.338346e-002 
3.138647e-002 
2.885896e-002 
2.668649e-002 
2.514892e-002 
2.310557e-002 
2.189448e-002 
2.164306e-002 
2.001135e-002 
1.883304e-002 
1.910696e-002 
2.021162e-002 
2.117460e-002 
2.099302e-002 
1.990536e-002 
1.834893e-002 
1.505643e-002 
1.269581e-002 
1.197987e-002 
1.104136e-002 
1.012760e-002 
1.068001e-002 
1.316067e-002 
1.604544e-002 
1.778960e-002 
2.010809e-002 
2.337772e-002 
2.490851e-002 
2.489405e-002 
2.524569e-002 
2.859826e-002 
3.290110e-002 
3.597196e-002 
3.946083e-002 
4.457096e-002 
4.989005e-002 
5.413137e-002 
5.708695e-002 
6.069054e-002 
6.476055e-002 
6.563685e-002 
6.511520e-002 
6.620035e-002 
6.822575e-002 
7.004537e-002 
7.166358e-002 
7.408990e-002 
7.784638e-002 
8.099061e-002 
8.245763e-002 
8.483477e-002 
8.653713e-002 
8.524050e-002 
8.396203e-002 
8.369035e-002 
8.337599e-002 
8.510943e-002 
8.708927e-002 
8.907906e-002 
9.288479e-002 
9.370485e-002 
9.284890e-002 
9.459044e-002 
9.462652e-002 
9.381603e-002 
9.352799e-002 
9.163557e-002 
9.095898e-002 
9.114150e-002 
8.912539e-002 
8.966610e-002 
9.260884e-002 
9.349941e-002 
9.384722e-002 
9.260427e-002 
9.000050e-002 
8.788611e-002 
8.461750e-002 
8.138200e-002 
8.123165e-002 
8.081866e-002 
7.943287e-002 
7.845635e-002 
7.711544e-002 
7.606722e-002 
7.549691e-002 
7.493479e-002 
7.384844e-002 
7.080678e-002 
6.600811e-002 
6.174410e-002 
5.874401e-002 
5.581702e-002 
5.397450e-002 
5.443395e-002 
5.555869e-002 
5.412573e-002 
5.125027e-002 
4.948199e-002 
4.818286e-002 
4.543412e-002 
4.163882e-002 
3.925711e-002 
3.865988e-002 
3.885166e-002 
3.870943e-002 
3.983004e-002 
4.269374e-002 
4.354231e-002 
4.232580e-002 
4.199631e-002 
4.209900e-002 
4.198347e-002 
4.140692e-002 
3.996307e-002 
3.889922e-002 
3.807405e-002 
3.689256e-002 
3.816051e-002 
4.126602e-002 
4.415730e-002 
4.644025e-002 
4.743643e-002 
4.741027e-002 
4.725955e-002 
4.724515e-002 
4.871576e-002 
5.308609e-002 
5.900764e-002 
6.624428e-002 
7.322777e-002 
8.027135e-002 
8.839793e-002 
9.595115e-002 
1.020936e-001 
1.085475e-001 
1.145732e-001 
1.178790e-001 
1.183474e-001 
1.172404e-001 
1.172843e-001 
1.174993e-001 
1.178499e-001 
1.184718e-001 
1.189886e-001 
1.169686e-001 
1.118273e-001 
1.053485e-001 
9.864782e-002 
9.229244e-002 
8.684798e-002 
8.219574e-002 
7.783349e-002 
7.459240e-002 
7.232004e-002 
7.046392e-002 
6.879704e-002 
6.786452e-002 
6.755218e-002 
6.621926e-002 
6.259749e-002 
5.767348e-002 
5.287813e-002 
4.832112e-002 
4.268785e-002 
3.849775e-002 
3.547199e-002 
3.228760e-002 
2.859664e-002 
2.432852e-002 
1.964533e-002 
1.579049e-002 
1.072620e-002 
4.657959e-003 
1.599062e-004 
-3.870868e-003 
-6.686925e-003 
-7.304513e-003 
-6.628190e-003 
-4.642730e-003 
-2.493980e-003 
-1.855126e-003 
-1.345202e-003 
-9.780773e-004 
-1.014683e-003 
-1.433101e-003 
-5.661849e-004 
-4.514950e-005 
4.358244e-004 
1.701625e-003 
3.806434e-003 
6.478374e-003 
9.315509e-003 
1.177541e-002 
1.346337e-002 
1.514987e-002 
1.590065e-002 
1.764459e-002 
2.049697e-002 
2.464565e-002 
2.985490e-002 
3.456008e-002 
3.624998e-002 
3.294514e-002 
2.321572e-002 
4.648422e-003 
-2.397911e-002 
-6.169692e-002 
-1.042820e-001 
-1.503641e-001 
-1.966124e-001 
-2.385837e-001 
-2.732009e-001 
-3.010865e-001 
-3.230762e-001 
-3.398375e-001 
-3.501773e-001 
-3.545413e-001 
-3.552256e-001 
-3.514067e-001 
-3.416349e-001 
-3.262793e-001 
-3.058491e-001 
-2.788449e-001 
-2.446533e-001 
-2.013559e-001 
-1.528319e-001 
-1.033295e-001 
-5.571514e-002 
-1.377656e-002 
1.980215e-002 
4.396463e-002 
5.892625e-002 
6.902604e-002 
7.671866e-002 
8.221013e-002 
8.704372e-002 
9.248052e-002 
9.904600e-002 
1.080235e-001 
1.173133e-001 
1.254177e-001 
1.332109e-001 
1.381945e-001 
1.390273e-001 
1.357663e-001 
1.318077e-001 
1.277537e-001 
1.246204e-001 
1.225123e-001 
1.224368e-001 
1.225785e-001 
1.208315e-001 
1.186330e-001 
1.169823e-001 
1.155780e-001 
1.121367e-001 
1.088961e-001 
1.063863e-001 
1.034807e-001 
9.919029e-002 
9.702885e-002 
9.743662e-002 
9.835313e-002 
9.767134e-002 
9.627974e-002 
9.553734e-002 
9.325322e-002 
8.982796e-002 
8.729288e-002 
8.585716e-002 
8.465955e-002 
8.408154e-002 
8.345111e-002 
8.446772e-002 
8.547520e-002 
8.498049e-002 
8.566232e-002 
8.575252e-002 
8.378540e-002 
8.186807e-002 
7.983559e-002 
7.703940e-002 
7.416877e-002 
7.173129e-002 
7.066765e-002 
7.097271e-002 
6.994403e-002 
6.860244e-002 
6.722527e-002 
6.455567e-002 
6.074716e-002 
5.745993e-002 
5.486321e-002 
5.147153e-002 
4.768929e-002 
4.466446e-002 
4.332996e-002 
4.316668e-002 
4.407638e-002 
4.544428e-002 
4.714374e-002 
4.693979e-002 
4.424500e-002 
4.097215e-002 
3.810983e-002 
3.668686e-002 
3.635201e-002 
3.596571e-002 
3.636453e-002 
3.709872e-002 
3.684450e-002 
3.589090e-002 
3.505359e-002 
3.524466e-002 
3.478983e-002 
3.211922e-002 
2.884142e-002 
2.662410e-002 
2.307616e-002 
1.911480e-002 
1.520486e-002 
1.340953e-002 
1.359620e-002 
1.224323e-002 
1.014591e-002 
8.796324e-003 
5.414536e-003 
-5.693442e-004 
-5.609041e-003 
-9.461046e-003 
-1.035354e-002 
-1.085145e-002 
-1.200707e-002 
-1.136429e-002 
-9.936445e-003 
-9.827910e-003 
-9.395778e-003 
-6.710046e-003 
-4.600735e-003 
-3.347158e-003 
-3.425534e-003 
-2.692396e-003 
-1.980866e-004 
1.273029e-003 
3.768210e-003 
8.393458e-003 
1.383598e-002 
1.786845e-002 
2.165841e-002 
2.510717e-002 
2.854557e-002 
3.009287e-002 
3.034311e-002 
3.320580e-002 
3.613075e-002 
3.854561e-002 
4.289343e-002 
4.806440e-002 
5.292218e-002 
5.806275e-002 
6.147015e-002 
6.478339e-002 
6.808232e-002 
6.865672e-002 
7.001214e-002 
7.266562e-002 
7.351686e-002 
7.487640e-002 
7.721988e-002 
7.992096e-002 
8.282420e-002 
8.605546e-002 
8.875556e-002 
9.148281e-002 
9.247497e-002 
9.181593e-002 
9.167636e-002 
9.243159e-002 
9.243901e-002 
9.185482e-002 
9.388527e-002 
9.615006e-002 
9.862841e-002 
1.003321e-001 
1.025614e-001 
1.043691e-001 
1.038886e-001 
9.964250e-002 
9.677516e-002 
9.678720e-002 
9.600232e-002 
9.506874e-002 
9.500162e-002 
9.653539e-002 
9.629800e-002 
9.449053e-002 
9.280446e-002 
9.372153e-002 
9.346046e-002 
9.000672e-002 
8.544502e-002 
8.194517e-002 
7.944378e-002 
7.711943e-002 
7.616555e-002 
7.655390e-002 
7.830465e-002 
7.800190e-002 
7.547214e-002 
7.344047e-002 
7.229810e-002 
7.013826e-002 
6.709021e-002 
6.402593e-002 
6.102585e-002 
5.922945e-002 
5.736383e-002 
5.775062e-002 
5.957404e-002 
6.059138e-002 
6.130448e-002 
6.161986e-002 
5.937011e-002 
5.644757e-002 
5.343042e-002 
5.137205e-002 
5.003389e-002 
4.749529e-002 
4.773004e-002 
4.983448e-002 
5.077304e-002 
5.112421e-002 
5.220515e-002 
5.313654e-002 
5.362373e-002 
5.150533e-002 
4.986466e-002 
5.003828e-002 
4.930241e-002 
4.904791e-002 
5.079435e-002 
5.519095e-002 
6.064821e-002 
6.502567e-002 
6.932717e-002 
7.444448e-002 
7.871589e-002 
8.197658e-002 
8.583323e-002 
9.027653e-002 
9.540625e-002 
9.909296e-002 
1.016139e-001 
1.048183e-001 
1.082792e-001 
1.095074e-001 
1.088206e-001 
1.078699e-001 
1.054198e-001 
1.020261e-001 
9.636434e-002 
8.951215e-002 
8.428264e-002 
7.857764e-002 
7.158251e-002 
6.659751e-002 
6.422602e-002 
6.271172e-002 
6.072555e-002 
5.656097e-002 
5.212619e-002 
4.822851e-002 
4.297859e-002 
3.850060e-002 
3.582087e-002 
3.468645e-002 
3.399471e-002 
3.240085e-002 
2.992114e-002 
2.765936e-002 
2.398950e-002 
1.893384e-002 
1.452421e-002 
9.169690e-003 
4.434664e-003 
4.041120e-004 
-5.092023e-003 
-1.045679e-002 
-1.371104e-002 
-1.638438e-002 
-1.574076e-002 
-1.455916e-002 
-1.572981e-002 
-1.463939e-002 
-1.512056e-002 
-1.873114e-002 
-2.103155e-002 
-2.190390e-002 
-2.221572e-002 
-2.151971e-002 
-2.299640e-002 
-2.318845e-002 
-2.007081e-002 
-1.935066e-002 
-1.899061e-002 
-1.745536e-002 
-1.691516e-002 
-1.798091e-002 
-2.019011e-002 
-2.156831e-002 
-2.044815e-002 
-1.819254e-002 
-1.602407e-002 
-1.072575e-002 
-3.428579e-003 
2.581481e-003 
5.459197e-003 
6.420131e-003 
2.704339e-003 
-8.284095e-003 
-2.607200e-002 
-5.213690e-002 
-8.548829e-002 
-1.269538e-001 
-1.735775e-001 
-2.188143e-001 
-2.594407e-001 
-2.961430e-001 
-3.249614e-001 
-3.463237e-001 
-3.651703e-001 
-3.812676e-001 
-3.951337e-001 
-4.031688e-001 
-4.038536e-001 
-3.981374e-001 
-3.846391e-001 
-3.609450e-001 
-3.282873e-001 
-2.903891e-001 
-2.481967e-001 
-2.027219e-001 
-1.553627e-001 
-1.104260e-001 
-7.076106e-002 
-3.725817e-002 
-8.736471e-003 
1.269729e-002 
2.526452e-002 
3.311950e-002 
3.878956e-002 
4.427985e-002 
5.033656e-002 
5.718522e-002 
6.571341e-002 
7.324255e-002 
7.721768e-002 
7.847175e-002 
7.706263e-002 
7.321392e-002 
7.106960e-002 
6.996343e-002 
6.930683e-002 
6.966005e-002 
6.917743e-002 
6.967040e-002 
6.907930e-002 
6.513660e-002 
6.129037e-002 
5.907643e-002 
5.496060e-002 
5.153278e-002 
5.004704e-002 
4.993655e-002 
5.066538e-002 
4.962816e-002 
4.815727e-002 
4.825040e-002 
4.655090e-002 
4.274143e-002 
4.056828e-002 
3.805865e-002 
3.602581e-002 
3.380808e-002 
3.168213e-002 
3.098377e-002 
3.162117e-002 
3.110396e-002 
3.020400e-002 
2.895643e-002 
2.657618e-002 
2.453143e-002 
2.088144e-002 
1.752900e-002 
1.582216e-002 
1.562469e-002 
1.485824e-002 
1.449562e-002 
1.398429e-002 
1.392310e-002 
1.362769e-002 
1.229866e-002 
1.132854e-002 
9.781170e-003 
7.216055e-003 
4.601870e-003 
2.853923e-003 
1.380651e-003 
2.161678e-003 
3.874361e-003 
5.217782e-003 
5.987753e-003 
6.406393e-003 
6.139697e-003 
5.870445e-003 
4.549921e-003 
2.500388e-003 
1.350181e-003 
3.284173e-004 
-5.592098e-004 
-5.990572e-004 
-3.844908e-004 
3.713240e-005 
1.950463e-003 
2.567943e-003 
1.790764e-003 
4.983186e-004 
-1.342377e-003 
-4.627037e-003 
-8.813578e-003 
-1.251919e-002 
-1.353834e-002 
-1.372256e-002 
-1.458797e-002 
-1.449313e-002 
-1.418151e-002 
-1.481819e-002 
-1.720564e-002 
-2.086266e-002 
-2.383884e-002 
-2.657765e-002 
-3.045753e-002 
-3.283133e-002 
-3.455820e-002 
-3.644206e-002 
-3.741322e-002 
-3.824032e-002 
-3.872293e-002 
-3.736009e-002 
-3.615828e-002 
-3.543773e-002 
-3.587197e-002 
-3.816009e-002 
-3.992435e-002 
-3.992438e-002 
-3.954321e-002 
-3.688834e-002 
-3.260400e-002 
-2.848103e-002 
-2.500022e-002 
-2.274694e-002 
-2.099949e-002 
-1.866511e-002 
-1.633663e-002 
-1.590676e-002 
-1.474937e-002 
-1.362834e-002 
-1.239666e-002 
-1.024829e-002 
-7.265631e-003 
-3.731149e-003 
5.929435e-004 
3.713420e-003 
5.207472e-003 
6.864925e-003 
7.100077e-003 
6.491709e-003 
6.604737e-003 
7.459444e-003 
8.837159e-003 
1.044120e-002 
1.299019e-002 
1.597517e-002 
1.895275e-002 
2.070432e-002 
2.177681e-002 
2.293895e-002 
2.283443e-002 
2.131217e-002 
1.986776e-002 
1.918672e-002 
1.909588e-002 
1.924883e-002 
1.918734e-002 
2.163739e-002 
2.347778e-002 
2.307232e-002 
2.299252e-002 
2.171805e-002 
1.962622e-002 
1.831138e-002 
1.571299e-002 
1.482515e-002 
1.549172e-002 
1.416553e-002 
1.361974e-002 
1.518471e-002 
1.611597e-002 
1.758686e-002 
1.864826e-002 
1.804419e-002 
1.655826e-002 
1.288913e-002 
8.554813e-003 
6.620767e-003 
6.384471e-003 
5.942075e-003 
6.468374e-003 
6.278676e-003 
5.110425e-003 
3.441032e-003 
1.095398e-003 
-4.569617e-004 
-1.467096e-003 
-4.243451e-003 
-8.096049e-003 
-1.136475e-002 
-1.505875e-002 
-1.655901e-002 
-1.657397e-002 
-1.695135e-002 
-1.657293e-002 
-1.657834e-002 
-1.843346e-002 
-2.153231e-002 
-2.430590e-002 
-2.715439e-002 
-2.906945e-002 
-3.110804e-002 
-3.311255e-002 
-3.331347e-002 
-3.268860e-002 
-3.267428e-002 
-3.253804e-002 
-3.086298e-002 
-2.973016e-002 
-2.946116e-002 
-2.969471e-002 
-3.108020e-002 
-3.225786e-002 
-3.311662e-002 
-3.349723e-002 
-3.293907e-002 
-3.042335e-002 
-2.880939e-002 
-2.707192e-002 
-2.513891e-002 
-2.490853e-002 
-2.509496e-002 
-2.593317e-002 
-2.769134e-002 
-2.952694e-002 
-3.039562e-002 
-3.164449e-002 
-3.099784e-002 
-2.935183e-002 
-2.877015e-002 
-2.827373e-002 
-2.786533e-002 
-2.767164e-002 
-2.739508e-002 
-2.750379e-002 
-2.868662e-002 
-2.901536e-002 
-2.958175e-002 
-2.948417e-002 
-2.697425e-002 
-2.299300e-002 
-1.758586e-002 
-1.144856e-002 
-4.843632e-003 
1.952057e-003 
8.030377e-003 
1.363352e-002 
2.006390e-002 
2.565286e-002 
3.016604e-002 
3.461781e-002 
3.899509e-002 
4.281737e-002 
4.538912e-002 
4.664477e-002 
4.729199e-002 
4.672720e-002 
4.347786e-002 
3.843119e-002 
3.353554e-002 
2.793719e-002 
2.112289e-002 
1.481229e-002 
8.817781e-003 
3.721672e-003 
8.845044e-005 
-2.820820e-003 
-5.485419e-003 
-7.191358e-003 
-9.621287e-003 
-1.240076e-002 
-1.406729e-002 
-1.685226e-002 
-1.975039e-002 
-2.147663e-002 
-2.286605e-002 
-2.570898e-002 
-2.811261e-002 
-3.056152e-002 
-3.281779e-002 
-3.538846e-002 
-4.044469e-002 
-4.592755e-002 
-4.998355e-002 
-5.468515e-002 
-6.034120e-002 
-6.390823e-002 
-6.720639e-002 
-6.921804e-002 
-7.036063e-002 
-7.138503e-002 
-7.078651e-002 
-6.879752e-002 
-6.871388e-002 
-6.864876e-002 
-6.901091e-002 
-6.997024e-002 
-6.970243e-002 
-6.951577e-002 
-6.911747e-002 
-6.724400e-002 
-6.448409e-002 
-6.223673e-002 
-5.948156e-002 
-5.865961e-002 
-5.865160e-002 
-5.868547e-002 
-5.919010e-002 
-6.140098e-002 
-6.263662e-002 
-6.218753e-002 
-6.061993e-002 
-5.724107e-002 
-5.345292e-002 
-4.805044e-002 
-4.212730e-002 
-4.141970e-002 
-4.706203e-002 
-5.613101e-002 
-7.343589e-002 
-1.004280e-001 
-1.360979e-001 
-1.789322e-001 
-2.256470e-001 
-2.748600e-001 
-3.234598e-001 
-3.661633e-001 
-4.028647e-001 
-4.357005e-001 
-4.632497e-001 
-4.864498e-001 
-5.048994e-001 
-5.175671e-001 
-5.241745e-001 
-5.242602e-001 
-5.171045e-001 
-5.010269e-001 
-4.736606e-001 
-4.362853e-001 
-3.922020e-001 
-3.412836e-001 
-2.869411e-001 
-2.342719e-001 
-1.854239e-001 
-1.411592e-001 
-1.016284e-001 
-6.739255e-002 
-4.096766e-002 
-2.122317e-002 
-3.429022e-003 
1.183575e-002 
2.492500e-002 
3.739439e-002 
5.001156e-002 
6.335811e-002 
7.476895e-002 
8.153197e-002 
8.623867e-002 
8.923406e-002 
8.836430e-002 
8.636362e-002 
8.499305e-002 
8.591667e-002 
8.772948e-002 
8.745741e-002 
8.689235e-002 
8.633584e-002 
8.292820e-002 
7.898433e-002 
7.600692e-002 
7.387551e-002 
7.347471e-002 
7.248704e-002 
7.276066e-002 
7.538459e-002 
7.546183e-002 
7.406772e-002 
7.300855e-002 
7.098136e-002 
6.837623e-002 
6.507709e-002 
6.196497e-002 
6.152263e-002 
5.997477e-002 
5.808552e-002 
5.880232e-002 
6.018711e-002 
6.116892e-002 
6.065684e-002 
6.006523e-002 
5.870306e-002 
5.568520e-002 
5.159590e-002 
4.942880e-002 
4.710544e-002 
4.549116e-002 
4.561932e-002 
4.714908e-002 
4.814500e-002 
4.695505e-002 
4.669898e-002 
4.623885e-002 
4.464411e-002 
4.085710e-002 
3.867810e-002 
3.786811e-002 
3.562056e-002 
3.261732e-002 
3.286221e-002 
3.602903e-002 
3.836434e-002 
3.911297e-002 
3.841501e-002 
3.954333e-002 
3.813310e-002 
3.490203e-002 
3.295934e-002 
3.260557e-002 
3.256933e-002 
3.076029e-002 
2.869702e-002 
2.976151e-002 
3.286886e-002 
3.282497e-002 
3.334882e-002 
3.307854e-002 
3.123983e-002 
2.828293e-002 
2.484855e-002 
2.329777e-002 
2.349021e-002 
2.210692e-002 
2.026257e-002 
2.224016e-002 
2.263684e-002 
2.138715e-002 
2.127383e-002 
2.142691e-002 
1.939629e-002 
1.612240e-002 
1.188573e-002 
9.729041e-003 
7.978101e-003 
4.371378e-003 
3.236304e-003 
5.008502e-003 
5.081015e-003 
2.679850e-003 
1.250839e-003 
3.396180e-005 
-2.604512e-003 
-6.791041e-003 
-9.608357e-003 
-1.123643e-002 
-1.332299e-002 
-1.710305e-002 
-1.947240e-002 
-1.804162e-002 
-1.683271e-002 
-1.748017e-002 
-1.646284e-002 
-1.505724e-002 
-1.606704e-002 
-1.817254e-002 
-2.013240e-002 
-1.995807e-002 
-1.748990e-002 
-1.745208e-002 
-1.662247e-002 
-1.115821e-002 
-5.700179e-003 
-2.331329e-003 
4.219234e-004 
2.251933e-003 
4.164065e-003 
5.696412e-003 
5.312419e-003 
7.754186e-003 
1.207671e-002 
1.418112e-002 
1.487116e-002 
1.728653e-002 
2.062493e-002 
2.439692e-002 
2.766476e-002 
3.028843e-002 
3.325160e-002 
3.373816e-002 
3.163177e-002 
2.977072e-002 
3.101328e-002 
3.331193e-002 
3.624747e-002 
3.908783e-002 
4.239972e-002 
4.408672e-002 
4.375043e-002 
4.301322e-002 
4.315681e-002 
4.380437e-002 
4.266425e-002 
4.141093e-002 
4.028981e-002 
3.966926e-002 
3.929545e-002 
4.060620e-002 
4.226686e-002 
4.447443e-002 
4.430238e-002 
4.252865e-002 
4.125606e-002 
3.855038e-002 
3.643468e-002 
3.616568e-002 
3.584689e-002 
3.528058e-002 
3.551260e-002 
3.562058e-002 
3.741848e-002 
3.817144e-002 
3.759215e-002 
3.830469e-002 
3.781806e-002 
3.539061e-002 
3.272892e-002 
3.085555e-002 
3.044097e-002 
3.043381e-002 
2.960214e-002 
3.043537e-002 
3.249721e-002 
3.286565e-002 
3.229030e-002 
3.071149e-002 
2.864197e-002 
2.645103e-002 
2.225439e-002 
1.806247e-002 
1.690567e-002 
1.708538e-002 
1.634265e-002 
1.588876e-002 
1.576219e-002 
1.665001e-002 
1.629225e-002 
1.333383e-002 
1.133030e-002 
1.004996e-002 
7.104248e-003 
3.192317e-003 
5.384505e-004 
-3.577580e-004 
1.983451e-004 
-4.094796e-004 
-5.120207e-004 
7.982701e-004 
1.024004e-003 
-1.960284e-004 
-1.720884e-003 
-3.156020e-003 
-4.810065e-003 
-6.647411e-003 
-8.461107e-003 
-8.579350e-003 
-7.787376e-003 
-6.246544e-003 
-4.518503e-003 
-2.488030e-003 
-2.385329e-004 
9.717371e-004 
8.766540e-004 
-1.396369e-005 
-1.989605e-003 
-3.702549e-003 
-4.282241e-003 
-4.725668e-003 
-3.667725e-003 
-1.537067e-003 
-2.544693e-004 
1.679501e-004 
-1.435131e-004 
-8.661870e-004 
-1.150884e-003 
-2.090566e-003 
-3.235424e-003 
-3.692165e-003 
-3.817993e-003 
-4.062544e-003 
-3.756247e-003 
-2.741007e-003 
-1.867030e-004 
1.647647e-003 
2.623399e-003 
3.131229e-003 
3.059164e-003 
2.616637e-003 
1.397219e-003 
1.757693e-004 
-8.632143e-004 
7.785986e-005 
1.347346e-003 
3.711183e-003 
7.110333e-003 
1.186835e-002 
1.613095e-002 
2.030685e-002 
2.425405e-002 
2.847722e-002 
3.440511e-002 
3.954166e-002 
4.625767e-002 
5.501376e-002 
6.438458e-002 
7.231278e-002 
8.071086e-002 
8.715489e-002 
9.132794e-002 
9.222472e-002 
9.058873e-002 
8.932352e-002 
8.600189e-002 
8.102061e-002 
7.643655e-002 
7.281911e-002 
6.807447e-002 
6.213369e-002 
5.599609e-002 
5.160709e-002 
4.607863e-002 
3.956085e-002 
3.473611e-002 
2.957101e-002 
2.395433e-002 
1.873561e-002 
1.375305e-002 
1.155880e-002 
1.088988e-002 
1.020521e-002 
1.168595e-002 
1.208812e-002 
9.016010e-003 
5.309034e-003 
4.026386e-004 
-5.357828e-003 
-1.053837e-002 
-1.533206e-002 
-1.853984e-002 
-2.135667e-002 
-2.393013e-002 
-2.581447e-002 
-2.612121e-002 
-2.637739e-002 
-2.731134e-002 
-2.801174e-002 
-2.907742e-002 
-3.204824e-002 
-3.454645e-002 
-3.477352e-002 
-3.508045e-002 
-3.361098e-002 
-3.224806e-002 
-3.105022e-002 
-2.881506e-002 
-2.756934e-002 
-2.683868e-002 
-2.435720e-002 
-2.336833e-002 
-2.398027e-002 
-2.395109e-002 
-2.483722e-002 
-2.439354e-002 
-2.193401e-002 
-1.708923e-002 
-1.033865e-002 
-1.799671e-003 
5.535063e-003 
9.503248e-003 
8.682864e-003 
1.510372e-003 
-1.408077e-002 
-3.821535e-002 
-7.089001e-002 
-1.124136e-001 
-1.586177e-001 
-2.092206e-001 
-2.606911e-001 
-3.070618e-001 
-3.482243e-001 
-3.846732e-001 
-4.132654e-001 
-4.373538e-001 
-4.574294e-001 
-4.716668e-001 
-4.808819e-001 
-4.832621e-001 
-4.773150e-001 
-4.626853e-001 
-4.355644e-001 
-3.959024e-001 
-3.492239e-001 
-2.961882e-001 
-2.392132e-001 
-1.840944e-001 
-1.329494e-001 
-8.517824e-002 
-4.197101e-002 
-3.088532e-003 
2.749469e-002 
4.844226e-002 
6.421042e-002 
7.694702e-002 
8.783426e-002 
9.985753e-002 
1.124060e-001 
1.251062e-001 
1.367616e-001 
1.426758e-001 
1.452573e-001 
1.465862e-001 
1.455048e-001 
1.435469e-001 
1.428022e-001 
1.433397e-001 
1.452508e-001 
1.465064e-001 
1.474072e-001 
1.480060e-001 
1.453149e-001 
1.418384e-001 
1.401094e-001 
1.399290e-001 
1.398798e-001 
1.404758e-001 
1.427618e-001 
1.453647e-001 
1.448664e-001 
1.438676e-001 
1.444659e-001 
1.435752e-001 
1.422321e-001 
1.404559e-001 
1.391671e-001 
1.385010e-001 
1.364244e-001 
1.343089e-001 
1.348262e-001 
1.344816e-001 
1.338094e-001 
1.349042e-001 
1.339537e-001 
1.321921e-001 
1.297366e-001 
1.259189e-001 
1.233856e-001 
1.216218e-001 
1.201409e-001 
1.207171e-001 
1.224379e-001 
1.224867e-001 
1.232913e-001 
1.233066e-001 
1.226380e-001 
1.223004e-001 
1.213617e-001 
1.196996e-001 
1.186668e-001 
1.180209e-001 
1.159596e-001 
1.163163e-001 
1.175623e-001 
1.192804e-001 
1.203998e-001 
1.199060e-001 
1.187764e-001 
1.178005e-001 
1.141281e-001 
1.101735e-001 
1.090044e-001 
1.068986e-001 
1.040892e-001 
1.017590e-001 
1.009935e-001 
1.012205e-001 
1.006857e-001 
9.937220e-002 
9.946981e-002 
9.863036e-002 
9.513152e-002 
9.138115e-002 
8.919831e-002 
8.757297e-002 
8.626508e-002 
8.571206e-002 
8.639657e-002 
8.805895e-002 
8.856509e-002 
8.810396e-002 
8.803965e-002 
8.739830e-002 
8.490236e-002 
8.196947e-002 
7.870361e-002 
7.685084e-002 
7.513337e-002 
7.263925e-002 
7.111655e-002 
7.054316e-002 
6.953593e-002 
6.802601e-002 
6.602847e-002 
6.351319e-002 
6.145243e-002 
5.769455e-002 
5.401026e-002 
5.143488e-002 
4.985157e-002 
4.943393e-002 
4.955788e-002 
5.053643e-002 
5.305247e-002 
5.511923e-002 
5.596728e-002 
5.719008e-002 
5.855311e-002 
5.948613e-002 
6.025843e-002 
6.194182e-002 
6.458413e-002 
6.859523e-002 
7.285963e-002 
7.849334e-002 
8.433848e-002 
8.874427e-002 
9.135641e-002 
9.465124e-002 
9.673325e-002 
9.818699e-002 
1.008054e-001 
1.026720e-001 
1.057138e-001 
1.079822e-001 
1.092575e-001 
1.124147e-001 
1.158410e-001 
1.173372e-001 
1.201920e-001 
1.217869e-001 
1.208656e-001 
1.199147e-001 
1.173773e-001 
1.157665e-001 
1.154051e-001 
1.148748e-001 
1.163251e-001 
1.198724e-001 
1.216827e-001 
1.221198e-001 
1.229151e-001 
1.223938e-001 
1.207483e-001 
1.189193e-001 
1.183295e-001 
1.185136e-001 
1.188166e-001 
1.182611e-001 
1.195725e-001 
1.219908e-001 
1.227593e-001 
1.226482e-001 
1.235361e-001 
1.233020e-001 
1.212148e-001 
1.186132e-001 
1.164743e-001 
1.153781e-001 
1.138169e-001 
1.115320e-001 
1.108184e-001 
1.121268e-001 
1.125457e-001 
1.131143e-001 
1.141225e-001 
1.135633e-001 
1.113510e-001 
1.077147e-001 
1.038108e-001 
1.018518e-001 
1.016160e-001 
1.015497e-001 
1.018524e-001 
1.026341e-001 
1.020380e-001 
1.004264e-001 
9.786535e-002 
9.695283e-002 
9.619949e-002 
9.333914e-002 
8.950681e-002 
8.665519e-002 
8.416022e-002 
8.121438e-002 
7.961210e-002 
8.090461e-002 
8.437246e-002 
8.363408e-002 
8.113980e-002 
8.093056e-002 
7.928018e-002 
7.537350e-002 
7.331274e-002 
7.369650e-002 
7.554942e-002 
7.608349e-002 
7.385405e-002 
7.515625e-002 
7.792515e-002 
7.752431e-002 
7.757753e-002 
7.905862e-002 
7.974393e-002 
7.849653e-002 
7.596519e-002 
7.478627e-002 
7.632151e-002 
7.789038e-002 
8.007265e-002 
8.525104e-002 
9.088488e-002 
9.484652e-002 
9.818201e-002 
1.024574e-001 
1.072276e-001 
1.117389e-001 
1.168059e-001 
1.229928e-001 
1.300996e-001 
1.365294e-001 
1.423638e-001 
1.484374e-001 
1.523959e-001 
1.530298e-001 
1.515407e-001 
1.495514e-001 
1.467158e-001 
1.431468e-001 
1.386939e-001 
1.340392e-001 
1.278659e-001 
1.203878e-001 
1.131440e-001 
1.078909e-001 
1.048072e-001 
1.009232e-001 
9.602281e-002 
9.010653e-002 
8.280628e-002 
7.453354e-002 
6.922651e-002 
6.575893e-002 
6.399547e-002 
6.345101e-002 
6.270532e-002 
6.134571e-002 
5.900906e-002 
5.509396e-002 
5.086707e-002 
4.788655e-002 
4.339595e-002 
3.910570e-002 
3.547406e-002 
3.263066e-002 
2.944745e-002 
2.785722e-002 
2.736567e-002 
2.850071e-002 
3.062265e-002 
3.094170e-002 
3.108385e-002 
3.145277e-002 
3.128987e-002 
3.009168e-002 
2.937109e-002 
2.890923e-002 
2.995525e-002 
3.077834e-002 
3.173418e-002 
3.365227e-002 
3.595727e-002 
3.780831e-002 
3.827233e-002 
3.690262e-002 
3.598908e-002 
3.538190e-002 
3.498599e-002 
3.676228e-002 
4.013149e-002 
4.535482e-002 
5.065009e-002 
5.340841e-002 
5.267189e-002 
4.848863e-002 
3.786444e-002 
2.104051e-002 
-3.569084e-003 
-3.678845e-002 
-7.641992e-002 
-1.210613e-001 
-1.677287e-001 
-2.119082e-001 
-2.492864e-001 
-2.786554e-001 
-3.008773e-001 
-3.186928e-001 
-3.307974e-001 
-3.377248e-001 
-3.418261e-001 
-3.406584e-001 
-3.316860e-001 
-3.153482e-001 
-2.919660e-001 
-2.624180e-001 
-2.250817e-001 
-1.798267e-001 
-1.327553e-001 
-8.539739e-002 
-3.729594e-002 
6.152381e-003 
4.110272e-002 
6.842119e-002 
8.909614e-002 
1.046176e-001 
1.126212e-001 
1.152898e-001 
1.184245e-001 
1.222391e-001 
1.259174e-001 
1.302738e-001 
1.371083e-001 
1.445610e-001 
1.480453e-001 
1.465526e-001 
1.451250e-001 
1.431185e-001 
1.399207e-001 
1.375680e-001 
1.363554e-001 
1.374543e-001 
1.374315e-001 
1.354829e-001 
1.351032e-001 
1.353346e-001 
1.329062e-001 
1.297897e-001 
1.270427e-001 
1.244042e-001 
1.220060e-001 
1.193634e-001 
1.191166e-001 
1.209294e-001 
1.208708e-001 
1.205646e-001 
1.202159e-001 
1.179707e-001 
1.147521e-001 
1.117835e-001 
1.089368e-001 
1.073108e-001 
1.056118e-001 
1.046868e-001 
1.058234e-001 
1.053581e-001 
1.045125e-001 
1.047835e-001 
1.047159e-001 
1.030673e-001 
1.003606e-001 
9.731514e-002 
9.462463e-002 
9.168941e-002 
8.939246e-002 
8.916041e-002 
8.943855e-002 
9.008587e-002 
8.972492e-002 
8.932053e-002 
8.882321e-002 
8.759824e-002 
8.671776e-002 
8.491379e-002 
8.116040e-002 
7.831110e-002 
7.715835e-002 
7.561535e-002 
7.540431e-002 
7.580330e-002 
7.691820e-002 
7.694089e-002 
7.442326e-002 
7.217404e-002 
7.150719e-002 
6.953693e-002 
6.576775e-002 
6.265702e-002 
6.058967e-002 
5.881659e-002 
5.771194e-002 
5.759056e-002 
5.791632e-002 
5.737891e-002 
5.468254e-002 
5.073167e-002 
4.784175e-002 
4.474145e-002 
4.047245e-002 
3.680974e-002 
3.338799e-002 
3.034938e-002 
2.835364e-002 
2.688195e-002 
2.594010e-002 
2.557300e-002 
2.305117e-002 
1.908269e-002 
1.551915e-002 
1.109552e-002 
7.516452e-003 
6.013533e-003 
3.901421e-003 
2.280667e-003 
1.964026e-003 
2.091962e-003 
3.002849e-003 
3.446538e-003 
3.676687e-003 
4.999550e-003 
4.407071e-003 
2.297504e-003 
2.148561e-003 
3.484551e-003 
5.338849e-003 
7.250858e-003 
1.112598e-002 
1.770581e-002 
2.295643e-002 
2.717531e-002 
3.230567e-002 
3.728898e-002 
4.160697e-002 
4.402872e-002 
4.621381e-002 
5.093910e-002 
5.512356e-002 
5.893347e-002 
6.548469e-002 
7.188635e-002 
7.796537e-002 
8.343843e-002 
8.630418e-002 
8.855975e-002 
9.120203e-002 
9.163979e-002 
9.263590e-002 
9.389278e-002 
9.416800e-002 
9.559995e-002 
9.629901e-002 
9.663078e-002 
9.982598e-002 
1.023081e-001 
