70
1.8229
535.8571
0.9043
7.007286e-004 
3.118888e-003 
4.396062e-003 
5.578309e-003 
7.183882e-003 
8.153305e-003 
1.051592e-002 
1.365454e-002 
1.502399e-002 
1.884662e-002 
2.323729e-002 
2.462063e-002 
2.872914e-002 
3.445249e-002 
4.164446e-002 
5.266510e-002 
6.147350e-002 
6.817692e-002 
7.799382e-002 
8.359059e-002 
8.731717e-002 
9.119490e-002 
9.238202e-002 
9.387542e-002 
9.337652e-002 
8.836181e-002 
8.387840e-002 
7.794420e-002 
7.062450e-002 
6.457592e-002 
5.379648e-002 
4.543004e-002 
3.933895e-002 
3.027722e-002 
2.404663e-002 
2.041418e-002 
3.097834e-002 
9.512340e-002 
2.173385e-001 
3.227509e-001 
3.427397e-001 
3.057335e-001 
2.832995e-001 
2.810015e-001 
2.845350e-001 
3.216351e-001 
4.077840e-001 
4.601320e-001 
3.774057e-001 
2.320203e-001 
1.734013e-001 
1.931586e-001 
2.021781e-001 
1.907700e-001 
1.691848e-001 
1.125953e-001 
-5.577246e-003 
-1.412136e-001 
-2.007017e-001 
-1.785590e-001 
-1.494662e-001 
-1.440872e-001 
-1.455997e-001 
-1.465111e-001 
-1.475615e-001 
-1.493723e-001 
-1.544442e-001 
-1.577763e-001 
-1.583365e-001 
-1.577084e-001 
-1.627288e-001 
-1.668165e-001 
-1.677180e-001 
-1.681345e-001 
-1.653914e-001 
-1.593745e-001 
-1.495220e-001 
-1.408025e-001 
-1.325321e-001 
-1.284180e-001 
-1.216314e-001 
-1.141877e-001 
-1.056429e-001 
-9.369707e-002 
-8.095317e-002 
-7.186951e-002 
-6.500971e-002 
-5.718551e-002 
-5.258646e-002 
-4.656682e-002 
-4.033339e-002 
-3.459177e-002 
-3.085203e-002 
-3.131902e-002 
-3.218656e-002 
-3.100079e-002 
-3.065237e-002 
-2.931517e-002 
-2.552261e-002 
-2.195380e-002 
-1.617770e-002 
-1.326070e-002 
-1.211669e-002 
-5.288424e-003 
7.467960e-004 
2.860369e-003 
5.333049e-003 
5.902693e-003 
9.340512e-003 
1.307246e-002 
9.139369e-003 
9.234321e-003 
1.589728e-002 
1.579854e-002 
1.128134e-002 
1.188578e-002 
1.520551e-002 
1.764629e-002 
1.453651e-002 
1.227410e-002 
1.738161e-002 
2.180083e-002 
1.886340e-002 
1.902335e-002 
2.646828e-002 
3.336896e-002 
3.542446e-002 
4.123347e-002 
5.333753e-002 
6.427094e-002 
7.349063e-002 
8.164787e-002 
9.175175e-002 
1.010360e-001 
1.062368e-001 
1.100285e-001 
1.152893e-001 
1.158369e-001 
1.114043e-001 
1.069127e-001 
1.026745e-001 
9.603776e-002 
8.883987e-002 
8.507168e-002 
7.636981e-002 
6.270776e-002 
5.243043e-002 
4.330105e-002 
3.713492e-002 
3.410386e-002 
4.211369e-002 
1.029375e-001 
2.239678e-001 
3.428210e-001 
3.960046e-001 
3.727156e-001 
3.393202e-001 
3.352786e-001 
3.413353e-001 
3.779693e-001 
4.629559e-001 
5.239261e-001 
4.772427e-001 
3.367689e-001 
2.300915e-001 
2.302640e-001 
2.516828e-001 
2.451885e-001 
2.240379e-001 
1.659668e-001 
4.932872e-002 
-9.388400e-002 
-1.904365e-001 
-1.925792e-001 
-1.593260e-001 
-1.489568e-001 
-1.514835e-001 
-1.567822e-001 
-1.588142e-001 
-1.594338e-001 
-1.627592e-001 
-1.657625e-001 
-1.687438e-001 
-1.706336e-001 
-1.697696e-001 
-1.716569e-001 
-1.733570e-001 
-1.727024e-001 
-1.709913e-001 
-1.650862e-001 
-1.589180e-001 
-1.498883e-001 
-1.380333e-001 
-1.304079e-001 
-1.244760e-001 
-1.174732e-001 
-1.090918e-001 
-1.004834e-001 
-9.107054e-002 
-8.340970e-002 
-7.293669e-002 
-6.706876e-002 
-6.429412e-002 
-5.999948e-002 
-5.513430e-002 
-5.213563e-002 
-5.095635e-002 
-4.878636e-002 
-4.958462e-002 
-5.374787e-002 
-5.948841e-002 
-6.092772e-002 
-6.040553e-002 
-5.984106e-002 
-5.838434e-002 
-5.442499e-002 
-4.996932e-002 
-4.906013e-002 
-4.866869e-002 
-4.334475e-002 
-3.784673e-002 
-3.596453e-002 
-3.557293e-002 
-3.467627e-002 
-3.360104e-002 
-3.286974e-002 
-3.439826e-002 
-3.319196e-002 
-3.031507e-002 
-3.046514e-002 
-3.213816e-002 
-3.416799e-002 
-3.417032e-002 
-3.434370e-002 
-3.397647e-002 
-3.626225e-002 
-3.816852e-002 
-3.940002e-002 
-3.938686e-002 
-3.941646e-002 
-3.570507e-002 
-2.887826e-002 
-2.106694e-002 
-1.328878e-002 
-9.019149e-003 
-1.466821e-003 
9.063505e-003 
1.798976e-002 
2.445782e-002 
3.254670e-002 
3.653788e-002 
3.629813e-002 
3.385370e-002 
3.184284e-002 
3.145559e-002 
2.932275e-002 
2.371060e-002 
1.610487e-002 
7.907235e-003 
-2.777288e-003 
-1.377218e-002 
-2.045953e-002 
-2.703314e-002 
-3.166506e-002 
-3.121746e-002 
-1.154865e-002 
6.332835e-002 
1.856789e-001 
2.685529e-001 
2.691088e-001 
2.343172e-001 
2.147103e-001 
2.170896e-001 
2.285018e-001 
2.763872e-001 
3.623587e-001 
3.846658e-001 
2.777183e-001 
1.512542e-001 
1.126365e-001 
1.339659e-001 
1.428998e-001 
1.290681e-001 
1.028518e-001 
3.241572e-002 
-9.611534e-002 
-2.137657e-001 
-2.466595e-001 
-2.193328e-001 
-1.950565e-001 
-1.920435e-001 
-1.942501e-001 
-1.983742e-001 
-2.031422e-001 
-2.053920e-001 
-2.046504e-001 
-2.045649e-001 
-2.088148e-001 
-2.120014e-001 
-2.152541e-001 
-2.204944e-001 
-2.252324e-001 
-2.260290e-001 
-2.226670e-001 
-2.142544e-001 
-2.097226e-001 
-2.075260e-001 
-1.999371e-001 
-1.926527e-001 
-1.870014e-001 
-1.811279e-001 
-1.704872e-001 
-1.590356e-001 
-1.495727e-001 
-1.447260e-001 
-1.377028e-001 
-1.282734e-001 
-1.212195e-001 
-1.163981e-001 
-1.083919e-001 
-1.003506e-001 
-9.963743e-002 
-9.673695e-002 
-9.494942e-002 
-9.581742e-002 
-9.535419e-002 
-9.230695e-002 
-8.891364e-002 
-8.475516e-002 
-8.343253e-002 
-7.972849e-002 
-7.351967e-002 
-7.304973e-002 
-7.151271e-002 
-6.360901e-002 
-5.656229e-002 
-5.464337e-002 
-5.515219e-002 
-5.423015e-002 
-5.180578e-002 
-5.298396e-002 
-5.334158e-002 
-4.995916e-002 
-4.525560e-002 
-4.506583e-002 
-4.828549e-002 
-5.147509e-002 
-4.879188e-002 
-4.499939e-002 
-4.306207e-002 
-3.847250e-002 
-3.066437e-002 
-2.429140e-002 
-2.013294e-002 
-1.440843e-002 
-6.298184e-003 
6.274454e-003 
1.562782e-002 
2.075487e-002 
2.833758e-002 
3.500008e-002 
3.505241e-002 
3.387156e-002 
3.198250e-002 
2.826359e-002 
2.670661e-002 
2.198235e-002 
1.544730e-002 
9.343933e-003 
-1.380905e-005 
-9.638578e-003 
-1.710041e-002 
-2.523745e-002 
-2.931795e-002 
-2.537535e-002 
-4.769868e-003 
7.580391e-002 
2.086229e-001 
3.094308e-001 
3.196247e-001 
2.791603e-001 
2.547065e-001 
2.569653e-001 
2.721024e-001 
3.242562e-001 
4.192382e-001 
4.523638e-001 
3.496379e-001 
2.065006e-001 
1.536878e-001 
1.759508e-001 
1.933524e-001 
1.863599e-001 
1.588724e-001 
8.683120e-002 
-4.684904e-002 
-1.766817e-001 
-2.211550e-001 
-1.944083e-001 
-1.639612e-001 
-1.570216e-001 
-1.592684e-001 
-1.635216e-001 
-1.652006e-001 
-1.656734e-001 
-1.649161e-001 
-1.684055e-001 
-1.726096e-001 
-1.742210e-001 
-1.772288e-001 
-1.795640e-001 
-1.840992e-001 
-1.842618e-001 
-1.796244e-001 
-1.744875e-001 
-1.686164e-001 
-1.597742e-001 
-1.526858e-001 
-1.449566e-001 
-1.366608e-001 
-1.290429e-001 
-1.162389e-001 
-1.029055e-001 
-9.225189e-002 
-8.486933e-002 
-8.059501e-002 
-7.375912e-002 
-6.526962e-002 
-5.867824e-002 
-5.222275e-002 
-4.332323e-002 
-3.953195e-002 
-4.353659e-002 
-4.523521e-002 
-4.353901e-002 
-4.330316e-002 
-4.408006e-002 
-4.177388e-002 
-3.776790e-002 
-3.340739e-002 
-3.384375e-002 
-2.993059e-002 
-1.953116e-002 
-1.765814e-002 
-1.759718e-002 
-1.098311e-002 
-5.682910e-003 
-3.292899e-003 
-2.074739e-003 
-1.822570e-003 
2.894573e-003 
2.331372e-003 
-2.620933e-003 
-1.552567e-003 
5.955454e-004 
6.647872e-004 
-2.177340e-003 
-5.612937e-003 
-4.549261e-003 
-4.233248e-003 
-6.992032e-003 
-5.408743e-003 
3.747101e-004 
7.586203e-003 
1.423346e-002 
1.892518e-002 
2.837191e-002 
3.698456e-002 
3.996203e-002 
4.640162e-002 
5.616872e-002 
6.109974e-002 
5.941818e-002 
5.672498e-002 
5.512146e-002 
5.197932e-002 
4.448830e-002 
3.814905e-002 
3.559142e-002 
3.046553e-002 
1.843051e-002 
6.195218e-003 
4.444418e-004 
-4.736135e-003 
-7.865671e-003 
1.009967e-003 
5.081669e-002 
1.657089e-001 
2.879287e-001 
3.311527e-001 
3.020383e-001 
2.757994e-001 
2.743553e-001 
2.823418e-001 
3.113797e-001 
3.898876e-001 
4.646538e-001 
4.187866e-001 
2.737364e-001 
1.815447e-001 
1.914959e-001 
2.118576e-001 
2.035457e-001 
1.850818e-001 
1.415171e-001 
3.541845e-002 
-1.046417e-001 
-1.889387e-001 
-1.816335e-001 
-1.472089e-001 
-1.411297e-001 
-1.417389e-001 
-1.406936e-001 
-1.463959e-001 
-1.491621e-001 
-1.481210e-001 
-1.510349e-001 
-1.526085e-001 
-1.547991e-001 
-1.567238e-001 
-1.557942e-001 
-1.619975e-001 
-1.647573e-001 
-1.570825e-001 
-1.518698e-001 
-1.472386e-001 
-1.383078e-001 
-1.300525e-001 
-1.218990e-001 
-1.159426e-001 
-1.097594e-001 
-9.727715e-002 
-8.651765e-002 
-7.730401e-002 
-6.917505e-002 
-6.266927e-002 
-5.545049e-002 
-4.893593e-002 
-4.500217e-002 
-3.945118e-002 
-3.373881e-002 
-3.088044e-002 
-3.044264e-002 
-3.250589e-002 
-3.305199e-002 
-3.210379e-002 
-3.052601e-002 
-2.920251e-002 
-2.538677e-002 
-2.001475e-002 
-1.704954e-002 
-1.328290e-002 
-8.020072e-003 
-3.455782e-003 
3.601397e-003 
9.456407e-003 
1.141302e-002 
1.524483e-002 
1.926367e-002 
2.035707e-002 
2.220791e-002 
2.425427e-002 
2.579385e-002 
2.678049e-002 
2.593686e-002 
2.483890e-002 
2.453136e-002 
2.519714e-002 
2.576671e-002 
2.647060e-002 
2.715909e-002 
2.488554e-002 
2.382685e-002 
2.401066e-002 
2.228572e-002 
2.250696e-002 
2.844789e-002 
3.468270e-002 
3.933024e-002 
4.312940e-002 
4.735684e-002 
5.633083e-002 
6.427831e-002 
7.063322e-002 
7.793861e-002 
8.632518e-002 
8.914831e-002 
8.617589e-002 
8.192905e-002 
8.007063e-002 
8.082359e-002 
7.718765e-002 
7.119772e-002 
6.699854e-002 
6.252829e-002 
5.230014e-002 
4.148183e-002 
3.389078e-002 
2.947783e-002 
2.690880e-002 
2.277116e-002 
2.891845e-002 
7.162034e-002 
1.676852e-001 
2.750977e-001 
3.278149e-001 
3.117381e-001 
2.879141e-001 
2.847689e-001 
2.858173e-001 
3.085498e-001 
3.742310e-001 
4.372043e-001 
4.060070e-001 
2.860276e-001 
1.943322e-001 
1.909218e-001 
2.012957e-001 
1.900800e-001 
1.722907e-001 
1.318728e-001 
3.825290e-002 
-8.825428e-002 
-1.720852e-001 
-1.778114e-001 
-1.564757e-001 
-1.540001e-001 
-1.546397e-001 
-1.566543e-001 
-1.616809e-001 
-1.654390e-001 
-1.656180e-001 
-1.658265e-001 
-1.698608e-001 
-1.743340e-001 
-1.748271e-001 
-1.749826e-001 
-1.802733e-001 
-1.812034e-001 
-1.738900e-001 
-1.668572e-001 
-1.624316e-001 
-1.560162e-001 
-1.493848e-001 
-1.431412e-001 
-1.386931e-001 
-1.328315e-001 
-1.191111e-001 
-1.069114e-001 
-1.017340e-001 
-9.512340e-002 
-8.812638e-002 
-8.402760e-002 
-8.078262e-002 
-7.736425e-002 
-7.096087e-002 
-6.435878e-002 
-6.466851e-002 
-6.700561e-002 
-6.653881e-002 
-6.735615e-002 
-6.797797e-002 
-6.797603e-002 
-6.416453e-002 
-5.868072e-002 
-5.484926e-002 
-5.200713e-002 
-4.854779e-002 
-4.399772e-002 
-3.767000e-002 
-3.234081e-002 
-2.724185e-002 
-2.105536e-002 
-1.770639e-002 
-1.422594e-002 
-1.163102e-002 
-1.037357e-002 
-7.644491e-003 
-5.431406e-003 
-5.997166e-003 
-7.048178e-003 
-8.280468e-003 
-8.156672e-003 
-6.954492e-003 
-8.117724e-003 
-9.254193e-003 
-8.067374e-003 
-6.842698e-003 
-5.607088e-003 
-2.994414e-003 
1.854274e-003 
6.833631e-003 
1.295188e-002 
1.929560e-002 
2.743025e-002 
3.901220e-002 
4.792447e-002 
5.359926e-002 
5.996059e-002 
6.173181e-002 
6.096978e-002 
6.168688e-002 
5.941844e-002 
5.748105e-002 
5.403504e-002 
4.508666e-002 
3.585565e-002 
2.904465e-002 
1.916077e-002 
1.030816e-002 
4.180607e-003 
-1.361493e-003 
-6.045458e-003 
-6.541016e-003 
8.812786e-003 
7.611147e-002 
2.031953e-001 
3.197915e-001 
3.609529e-001 
3.370050e-001 
3.122568e-001 
3.088130e-001 
3.186842e-001 
3.600884e-001 
4.480107e-001 
5.018906e-001 
4.369009e-001 
3.020031e-001 
2.211564e-001 
2.291443e-001 
2.448128e-001 
2.380980e-001 
2.189290e-001 
1.607111e-001 
3.722712e-002 
-9.716500e-002 
-1.711646e-001 
-1.638275e-001 
-1.316126e-001 
-1.220785e-001 
-1.211262e-001 
-1.229407e-001 
-1.260550e-001 
-1.256677e-001 
-1.237805e-001 
-1.269240e-001 
-1.281783e-001 
-1.308651e-001 
-1.347762e-001 
-1.404072e-001 
-1.429360e-001 
-1.380875e-001 
-1.342768e-001 
-1.310011e-001 
-1.247903e-001 
-1.181921e-001 
-1.120816e-001 
-1.056830e-001 
-9.832016e-002 
-8.631913e-002 
-7.696165e-002 
-7.309275e-002 
-6.597158e-002 
-5.809329e-002 
-5.185878e-002 
-4.477306e-002 
-4.053084e-002 
-3.678434e-002 
-3.251573e-002 
-3.048872e-002 
-3.124191e-002 
-3.006615e-002 
-3.080978e-002 
-3.343997e-002 
-3.413442e-002 
-3.485621e-002 
-3.115495e-002 
-2.721803e-002 
-2.581132e-002 
-2.493243e-002 
-2.128927e-002 
-1.996776e-002 
-1.739002e-002 
-1.251174e-002 
-8.657364e-003 
-5.369489e-003 
-6.372267e-003 
-6.814920e-003 
-5.071219e-003 
-4.123868e-003 
-5.456166e-003 
-6.002851e-003 
-7.496727e-003 
-9.275203e-003 
-1.171461e-002 
-1.430492e-002 
-1.314162e-002 
-1.297726e-002 
-1.668135e-002 
-1.877939e-002 
-1.691293e-002 
-1.403983e-002 
-1.326110e-002 
-1.248477e-002 
-1.172619e-002 
-1.246457e-002 
-1.458628e-002 
-1.232083e-002 
-3.036687e-003 
5.903684e-003 
1.331107e-002 
2.040801e-002 
3.014557e-002 
3.588621e-002 
4.470309e-002 
5.417893e-002 
6.372539e-002 
6.994611e-002 
7.061015e-002 
7.045351e-002 
6.831521e-002 
6.413523e-002 
5.932507e-002 
5.905748e-002 
5.077984e-002 
4.292215e-002 
3.549078e-002 
2.675433e-002 
1.637318e-002 
8.448915e-003 
4.004476e-003 
6.541661e-003 
3.130277e-002 
1.066298e-001 
2.337728e-001 
3.264021e-001 
3.244491e-001 
2.857481e-001 
2.722389e-001 
2.751210e-001 
2.905843e-001 
3.426170e-001 
4.259624e-001 
4.527210e-001 
3.466316e-001 
2.097195e-001 
1.745024e-001 
1.965951e-001 
2.007183e-001 
1.867958e-001 
1.554576e-001 
8.089177e-002 
-4.654082e-002 
-1.703729e-001 
-2.046967e-001 
-1.745429e-001 
-1.540792e-001 
-1.533640e-001 
-1.576412e-001 
-1.610939e-001 
-1.614979e-001 
-1.611839e-001 
-1.605303e-001 
-1.605740e-001 
-1.644738e-001 
-1.673196e-001 
-1.717490e-001 
-1.734633e-001 
-1.716895e-001 
-1.679933e-001 
-1.632405e-001 
-1.586620e-001 
-1.548272e-001 
-1.455373e-001 
-1.371971e-001 
-1.323545e-001 
-1.219352e-001 
-1.117984e-001 
-1.021865e-001 
-9.341153e-002 
-8.571964e-002 
-7.594520e-002 
-6.415520e-002 
-5.993617e-002 
-5.522043e-002 
-4.781386e-002 
-4.357758e-002 
-3.754962e-002 
-3.565175e-002 
-3.684935e-002 
-3.527238e-002 
-3.455587e-002 
-3.777770e-002 
-3.934971e-002 
-4.030279e-002 
-3.540143e-002 
-2.852726e-002 
-2.916478e-002 
-2.429167e-002 
-1.724073e-002 
-1.487822e-002 
-1.405161e-002 
-1.449567e-002 
-1.014927e-002 
-1.273191e-003 
-1.008571e-003 
-2.242730e-003 
2.068434e-003 
2.452007e-003 
2.053114e-003 
2.256015e-003 
2.349872e-003 
5.202462e-003 
4.387023e-003 
-5.566077e-004 
2.662252e-004 
1.771727e-003 
-4.120942e-004 
-1.935121e-003 
-1.841555e-003 
-2.507260e-003 
-4.334824e-003 
-5.853100e-003 
-4.160991e-003 
4.794345e-005 
4.359724e-003 
8.261716e-003 
1.524664e-002 
2.522896e-002 
3.145174e-002 
3.495493e-002 
4.179961e-002 
4.951351e-002 
5.751881e-002 
6.398682e-002 
6.564724e-002 
6.821207e-002 
6.822682e-002 
5.975481e-002 
5.288138e-002 
5.038096e-002 
4.775140e-002 
4.541239e-002 
3.669765e-002 
2.705631e-002 
2.088691e-002 
1.182038e-002 
8.575642e-003 
1.793466e-002 
6.475371e-002 
1.776779e-001 
2.978603e-001 
3.489121e-001 
3.294498e-001 
2.969430e-001 
2.912184e-001 
3.012695e-001 
3.278165e-001 
4.072143e-001 
4.828096e-001 
4.462035e-001 
3.178810e-001 
2.195886e-001 
2.171331e-001 
2.410264e-001 
2.364906e-001 
2.190767e-001 
1.787132e-001 
7.616936e-002 
-5.664999e-002 
-1.446140e-001 
-1.479681e-001 
-1.149472e-001 
-1.060249e-001 
-1.099215e-001 
-1.133855e-001 
-1.176916e-001 
-1.178767e-001 
-1.162469e-001 
-1.199847e-001 
-1.230475e-001 
-1.301666e-001 
-1.355706e-001 
-1.391054e-001 
-1.421784e-001 
-1.412453e-001 
-1.392623e-001 
-1.397065e-001 
-1.380040e-001 
-1.330818e-001 
-1.276171e-001 
-1.193298e-001 
-1.134638e-001 
-1.045090e-001 
-9.567389e-002 
-8.861767e-002 
-8.127712e-002 
-7.255493e-002 
-6.334028e-002 
-5.631226e-002 
-5.223100e-002 
-4.833802e-002 
-4.298471e-002 
-3.921667e-002 
-3.519884e-002 
-3.581477e-002 
-3.468108e-002 
-3.281421e-002 
-3.454051e-002 
-3.567454e-002 
-3.380250e-002 
-3.138501e-002 
-2.763946e-002 
-2.551064e-002 
-2.263286e-002 
-1.600039e-002 
-1.266164e-002 
-1.077070e-002 
-8.520237e-003 
-4.746364e-003 
-1.159486e-004 
2.093309e-003 
3.380199e-003 
7.704346e-003 
7.850862e-003 
5.879537e-003 
3.973531e-003 
2.161943e-003 
2.366694e-003 
2.242351e-006 
-3.680961e-003 
-1.004401e-003 
7.020669e-004 
-4.269922e-003 
-7.213460e-003 
-8.618889e-003 
-7.048014e-003 
-7.679308e-003 
-6.437320e-003 
3.259505e-003 
1.177687e-002 
1.254313e-002 
1.645747e-002 
2.536401e-002 
3.528208e-002 
4.365439e-002 
4.923413e-002 
6.351803e-002 
7.039855e-002 
6.427837e-002 
6.031489e-002 
6.041890e-002 
5.715880e-002 
5.068587e-002 
4.400092e-002 
4.214590e-002 
3.858425e-002 
2.176530e-002 
8.185747e-003 
1.370753e-003 
-6.386924e-003 
-1.369225e-002 
-1.256453e-002 
1.930966e-002 
1.090251e-001 
2.314703e-001 
3.055919e-001 
2.967681e-001 
2.612356e-001 
2.476496e-001 
2.513616e-001 
2.709794e-001 
3.308420e-001 
4.157297e-001 
4.223388e-001 
3.016656e-001 
1.774980e-001 
1.565032e-001 
1.817760e-001 
1.873820e-001 
1.740331e-001 
1.433275e-001 
6.328294e-002 
-7.031647e-002 
-1.816974e-001 
-2.023084e-001 
-1.684653e-001 
-1.473868e-001 
-1.470257e-001 
-1.492117e-001 
-1.511880e-001 
-1.527624e-001 
-1.522881e-001 
-1.510608e-001 
-1.519235e-001 
-1.530414e-001 
-1.567436e-001 
-1.628179e-001 
-1.662893e-001 
-1.675572e-001 
-1.649774e-001 
-1.611349e-001 
-1.521833e-001 
-1.443330e-001 
-1.394824e-001 
-1.350878e-001 
-1.300320e-001 
-1.232199e-001 
-1.142722e-001 
-1.049245e-001 
-9.346861e-002 
-8.351239e-002 
-8.089393e-002 
-7.752737e-002 
-7.154392e-002 
-6.726121e-002 
-6.391713e-002 
-5.947445e-002 
-5.508531e-002 
-5.285487e-002 
-5.714590e-002 
-6.236052e-002 
-6.349830e-002 
-6.385951e-002 
-6.507348e-002 
-6.219449e-002 
-5.650218e-002 
-5.029877e-002 
-4.575939e-002 
-4.580301e-002 
-4.279844e-002 
-3.805946e-002 
-3.459624e-002 
-3.028162e-002 
-2.470477e-002 
-2.013826e-002 
-1.628475e-002 
-1.699953e-002 
-2.004541e-002 
-1.750109e-002 
-1.547284e-002 
-1.452076e-002 
-1.564816e-002 
-1.681251e-002 
-1.684146e-002 
-1.972244e-002 
-2.369625e-002 
-2.260231e-002 
-1.946755e-002 
-1.894298e-002 
-2.007779e-002 
-1.812972e-002 
-1.229882e-002 
-8.165310e-003 
-3.883386e-003 
6.489248e-003 
1.865421e-002 
2.621081e-002 
3.231357e-002 
3.957595e-002 
4.816241e-002 
5.280588e-002 
5.352390e-002 
5.291832e-002 
5.161483e-002 
4.714030e-002 
4.144724e-002 
3.512270e-002 
2.870798e-002 
2.221571e-002 
1.290553e-002 
2.678110e-003 
-6.075729e-003 
-1.381652e-002 
-1.672629e-002 
-1.319618e-002 
2.317534e-002 
1.271755e-001 
2.553304e-001 
3.270681e-001 
3.139886e-001 
2.778536e-001 
2.685654e-001 
2.748606e-001 
2.959473e-001 
3.673357e-001 
4.508153e-001 
4.395987e-001 
3.135185e-001 
1.908375e-001 
1.755632e-001 
2.019169e-001 
2.014545e-001 
1.841741e-001 
1.463101e-001 
5.212807e-002 
-8.720759e-002 
-1.983122e-001 
-2.152915e-001 
-1.786739e-001 
-1.623985e-001 
-1.659808e-001 
-1.695519e-001 
-1.695101e-001 
-1.703353e-001 
-1.753260e-001 
-1.762477e-001 
-1.764803e-001 
-1.819408e-001 
-1.870328e-001 
-1.938253e-001 
-1.966600e-001 
-1.977238e-001 
-2.018484e-001 
-1.993291e-001 
-1.889218e-001 
-1.858568e-001 
-1.812711e-001 
-1.721909e-001 
-1.659527e-001 
-1.582117e-001 
-1.495790e-001 
-1.408562e-001 
-1.254777e-001 
-1.140118e-001 
-1.108833e-001 
-1.023685e-001 
-9.440970e-002 
-8.732449e-002 
-7.867789e-002 
-7.181877e-002 
-6.509967e-002 
-5.879313e-002 
-6.038744e-002 
-6.207642e-002 
-5.986150e-002 
-5.826773e-002 
-5.337959e-002 
-5.282471e-002 
-5.108108e-002 
-4.444892e-002 
-3.992144e-002 
-3.641849e-002 
-2.963849e-002 
-2.425898e-002 
-1.883135e-002 
-1.662816e-002 
-1.907350e-002 
-1.476008e-002 
-1.233915e-002 
-1.172034e-002 
-1.125885e-002 
-1.150889e-002 
-1.286850e-002 
-1.651768e-002 
-2.082132e-002 
-1.996360e-002 
-1.928054e-002 
-2.212508e-002 
-2.415271e-002 
-2.785659e-002 
-3.085416e-002 
-3.400094e-002 
-3.442794e-002 
-3.172832e-002 
-3.044200e-002 
-3.046206e-002 
-2.594576e-002 
-2.196266e-002 
-1.653474e-002 
-9.841498e-003 
2.438197e-004 
1.263761e-002 
1.905682e-002 
2.361191e-002 
3.323689e-002 
3.960298e-002 
3.867309e-002 
3.756641e-002 
3.547673e-002 
3.391670e-002 
2.809804e-002 
2.063965e-002 
1.534762e-002 
7.647144e-003 
-6.112688e-003 
-1.986956e-002 
-2.955604e-002 
-3.689744e-002 
-4.569749e-002 
-5.107639e-002 
-4.511168e-002 
-1.049460e-002 
8.396446e-002 
2.077765e-001 
2.748703e-001 
2.610053e-001 
2.308898e-001 
2.222591e-001 
2.292607e-001 
2.521488e-001 
3.164282e-001 
3.964360e-001 
3.845609e-001 
2.584737e-001 
1.481815e-001 
1.383518e-001 
1.603582e-001 
1.589149e-001 
1.403985e-001 
1.014493e-001 
1.179357e-002 
-1.220222e-001 
-2.233490e-001 
-2.372799e-001 
-2.067793e-001 
-1.934584e-001 
-1.976900e-001 
-2.034796e-001 
-2.050590e-001 
-2.048647e-001 
-2.078841e-001 
-2.108677e-001 
-2.146109e-001 
-2.181082e-001 
-2.218757e-001 
-2.276285e-001 
-2.291055e-001 
-2.261923e-001 
-2.234464e-001 
-2.191566e-001 
-2.132987e-001 
-2.087890e-001 
-2.013020e-001 
-1.934116e-001 
-1.866809e-001 
-1.771813e-001 
-1.682270e-001 
-1.584670e-001 
-1.495182e-001 
-1.440318e-001 
-1.353650e-001 
-1.256587e-001 
-1.200506e-001 
-1.162255e-001 
-1.116610e-001 
-1.090486e-001 
-1.058281e-001 
-1.058197e-001 
-1.060297e-001 
-1.056706e-001 
-1.079404e-001 
-1.105524e-001 
-1.113545e-001 
-1.095685e-001 
-1.065328e-001 
-1.017010e-001 
-9.853766e-002 
-9.532368e-002 
-9.367000e-002 
-8.977113e-002 
-8.674312e-002 
-8.476726e-002 
-8.045724e-002 
-7.739341e-002 
-7.665552e-002 
-7.607463e-002 
-7.501207e-002 
-7.296399e-002 
-7.067029e-002 
-7.275145e-002 
-7.208485e-002 
-6.956313e-002 
-7.095018e-002 
-7.333069e-002 
-7.267396e-002 
-7.145493e-002 
-7.207860e-002 
-7.588051e-002 
-7.887736e-002 
-7.828567e-002 
-7.924297e-002 
-8.204177e-002 
-8.215425e-002 
-7.913470e-002 
-7.818212e-002 
-8.035680e-002 
-8.133885e-002 
-7.849505e-002 
-7.415983e-002 
-6.851093e-002 
-6.212578e-002 
-5.347730e-002 
-4.570208e-002 
-3.988215e-002 
-3.315037e-002 
-2.379599e-002 
-1.641935e-002 
-1.114883e-002 
-7.448792e-003 
-7.538530e-003 
-1.050024e-002 
-1.585143e-002 
-2.011871e-002 
-2.320145e-002 
-2.736724e-002 
-3.512457e-002 
-4.356850e-002 
-5.407135e-002 
-6.509626e-002 
-7.266803e-002 
-7.702330e-002 
-7.718731e-002 
-5.853125e-002 
1.241138e-002 
1.396274e-001 
2.521248e-001 
2.815727e-001 
2.503946e-001 
2.238178e-001 
2.206128e-001 
2.307746e-001 
2.763520e-001 
3.667741e-001 
4.182623e-001 
3.426440e-001 
2.023718e-001 
1.269267e-001 
1.389318e-001 
1.590316e-001 
1.509337e-001 
1.286555e-001 
6.842762e-002 
-5.698375e-002 
-1.962082e-001 
-2.640727e-001 
-2.502348e-001 
-2.156790e-001 
-2.066965e-001 
-2.081644e-001 
-2.083589e-001 
-2.103384e-001 
-2.112141e-001 
-2.119639e-001 
-2.134751e-001 
-2.148091e-001 
-2.173668e-001 
-2.190135e-001 
-2.193448e-001 
-2.238596e-001 
-2.221027e-001 
-2.168434e-001 
-2.114976e-001 
-2.034976e-001 
-1.952909e-001 
-1.863911e-001 
-1.767661e-001 
-1.702082e-001 
-1.616092e-001 
-1.473769e-001 
-1.353955e-001 
-1.239044e-001 
-1.151657e-001 
-1.061861e-001 
-9.646934e-002 
-8.908634e-002 
-8.148680e-002 
-7.339208e-002 
-6.670951e-002 
-6.146584e-002 
-6.031621e-002 
-5.984905e-002 
-5.786511e-002 
-5.760890e-002 
-5.704295e-002 
-5.562447e-002 
-5.432480e-002 
-4.933278e-002 
-4.479305e-002 
-3.992450e-002 
-3.427909e-002 
-3.150071e-002 
-2.878750e-002 
-2.616905e-002 
-2.299381e-002 
-2.043226e-002 
-1.810775e-002 
-1.668614e-002 
-1.259902e-002 
-1.432715e-002 
-1.819945e-002 
-1.858028e-002 
-1.735121e-002 
-1.831653e-002 
-2.054973e-002 
-2.144020e-002 
-2.001639e-002 
-2.003372e-002 
-2.643519e-002 
-2.638132e-002 
-2.323914e-002 
-2.447237e-002 
-2.517724e-002 
-2.246752e-002 
-2.263807e-002 
-2.356638e-002 
-2.321702e-002 
-2.221984e-002 
-1.984051e-002 
-2.160695e-002 
-2.227108e-002 
-1.688322e-002 
-1.572588e-002 
-1.751099e-002 
-1.080548e-002 
-6.682644e-004 
5.684603e-003 
1.015374e-002 
1.687454e-002 
2.824393e-002 
3.976386e-002 
4.503127e-002 
5.161909e-002 
6.126762e-002 
6.785335e-002 
6.788416e-002 
6.514305e-002 
6.366611e-002 
6.493970e-002 
6.262378e-002 
5.419974e-002 
4.718001e-002 
4.153234e-002 
3.482463e-002 
2.349789e-002 
1.453800e-002 
1.138062e-002 
1.200771e-002 
1.522997e-002 
4.775940e-002 
1.430196e-001 
2.743346e-001 
3.559907e-001 
3.480278e-001 
3.149055e-001 
3.040942e-001 
3.075405e-001 
3.267396e-001 
3.907630e-001 
4.761603e-001 
4.817189e-001 
3.633571e-001 
2.378468e-001 
2.111527e-001 
2.327195e-001 
2.396429e-001 
2.261479e-001 
1.922546e-001 
1.090916e-001 
-2.357379e-002 
-1.365182e-001 
-1.609328e-001 
-1.290573e-001 
-1.038425e-001 
-1.009677e-001 
-1.061584e-001 
-1.069707e-001 
-1.054232e-001 
-1.068689e-001 
-1.068543e-001 
-1.050850e-001 
-1.065111e-001 
-1.068234e-001 
-1.090943e-001 
-1.105727e-001 
-1.088955e-001 
-1.072436e-001 
-1.036918e-001 
-9.530866e-002 
-9.380110e-002 
-9.054705e-002 
-8.081791e-002 
-7.468415e-002 
-6.808439e-002 
-5.961459e-002 
-5.154525e-002 
-4.139046e-002 
-3.643907e-002 
-3.420161e-002 
-2.710023e-002 
-2.323146e-002 
-2.197895e-002 
-1.867264e-002 
-1.739035e-002 
-1.776864e-002 
-1.841735e-002 
-1.991220e-002 
-2.081742e-002 
-2.195793e-002 
-2.187916e-002 
-2.188288e-002 
-2.156638e-002 
-2.126304e-002 
-1.889867e-002 
-1.539340e-002 
-1.482277e-002 
-1.429070e-002 
-1.032518e-002 
-6.580890e-003 
-6.662898e-003 
-4.644446e-003 
-1.695438e-003 
-2.146420e-004 
-2.503843e-003 
-4.504591e-003 
-2.735335e-003 
-2.777917e-003 
-5.565424e-003 
-7.932310e-003 
-7.605467e-003 
-9.418512e-003 
-1.394618e-002 
-1.593441e-002 
-1.357254e-002 
-1.355954e-002 
-1.685643e-002 
-1.794771e-002 
-1.853288e-002 
-2.027972e-002 
-2.259708e-002 
-2.468888e-002 
-2.268065e-002 
-1.997522e-002 
-2.243026e-002 
-2.458694e-002 
-2.193403e-002 
-2.125268e-002 
-2.187450e-002 
-2.259236e-002 
-2.303461e-002 
-1.927684e-002 
-1.861248e-002 
-1.916490e-002 
-1.162708e-002 
-1.555981e-003 
3.421475e-003 
9.259430e-003 
1.740575e-002 
2.827762e-002 
4.018950e-002 
4.620511e-002 
5.338805e-002 
6.026066e-002 
5.736166e-002 
5.209151e-002 
5.077798e-002 
4.937447e-002 
4.757168e-002 
4.228624e-002 
3.352339e-002 
2.555288e-002 
1.216995e-002 
-3.226456e-003 
-1.030329e-002 
-1.639921e-002 
-2.313616e-002 
-2.179195e-002 
5.715809e-003 
9.377122e-002 
2.219431e-001 
2.991566e-001 
2.937899e-001 
2.617284e-001 
2.467304e-001 
2.545936e-001 
2.770354e-001 
3.371265e-001 
4.275384e-001 
4.361747e-001 
3.157560e-001 
1.944775e-001 
1.709193e-001 
1.988586e-001 
2.089088e-001 
1.927094e-001 
1.600302e-001 
8.058106e-002 
-5.532119e-002 
-1.692657e-001 
-1.919540e-001 
-1.599573e-001 
-1.402221e-001 
-1.429923e-001 
-1.485801e-001 
-1.513806e-001 
-1.504073e-001 
-1.500347e-001 
-1.508376e-001 
-1.528397e-001 
-1.573278e-001 
-1.608936e-001 
-1.625265e-001 
-1.655743e-001 
-1.647174e-001 
-1.605164e-001 
-1.564243e-001 
-1.518738e-001 
-1.489246e-001 
-1.388225e-001 
-1.279680e-001 
-1.212168e-001 
-1.109385e-001 
-9.680695e-002 
-8.385758e-002 
-7.396128e-002 
-7.111048e-002 
-6.445109e-002 
-5.165102e-002 
-4.648604e-002 
-4.035755e-002 
-3.171257e-002 
-2.419071e-002 
-2.131704e-002 
-2.439988e-002 
-2.738791e-002 
-2.313675e-002 
-1.994506e-002 
-2.228394e-002 
-2.382529e-002 
-2.125738e-002 
-1.801144e-002 
-1.873246e-002 
-1.712478e-002 
-1.147188e-002 
-4.718855e-003 
-2.013067e-003 
-1.724897e-003 
1.296795e-003 
7.511458e-003 
8.007268e-003 
8.170224e-003 
9.587527e-003 
1.279954e-002 
1.414233e-002 
1.153236e-002 
1.058712e-002 
1.362166e-002 
1.233790e-002 
7.084186e-003 
5.596196e-003 
4.205522e-003 
5.731427e-003 
4.323019e-003 
1.628088e-003 
4.566082e-003 
6.675521e-003 
1.969824e-003 
1.422020e-003 
1.443937e-003 
2.268837e-003 
6.230161e-003 
5.319409e-003 
5.329321e-003 
1.000901e-002 
1.431009e-002 
2.094427e-002 
3.019576e-002 
3.951291e-002 
5.234377e-002 
6.116315e-002 
6.897395e-002 
7.752214e-002 
8.516575e-002 
8.965055e-002 
8.976589e-002 
8.903955e-002 
8.714159e-002 
8.144623e-002 
7.705276e-002 
7.461593e-002 
6.647018e-002 
5.687558e-002 
4.462851e-002 
3.624876e-002 
3.080657e-002 
2.109333e-002 
1.545620e-002 
2.182241e-002 
5.878611e-002 
1.563472e-001 
2.770355e-001 
3.386764e-001 
3.215287e-001 
2.864133e-001 
2.754343e-001 
2.809024e-001 
3.044344e-001 
3.713382e-001 
4.479650e-001 
4.284571e-001 
2.969502e-001 
1.844711e-001 
1.739831e-001 
1.932645e-001 
1.911862e-001 
1.715903e-001 
1.289899e-001 
3.592390e-002 
-9.979587e-002 
-2.029696e-001 
-2.147778e-001 
-1.817449e-001 
-1.655823e-001 
-1.661835e-001 
-1.734226e-001 
-1.758195e-001 
-1.756389e-001 
-1.783687e-001 
-1.821883e-001 
-1.820928e-001 
-1.802199e-001 
-1.818831e-001 
-1.881932e-001 
-1.912485e-001 
-1.903770e-001 
-1.899742e-001 
-1.862883e-001 
-1.788831e-001 
-1.707916e-001 
-1.664341e-001 
-1.627959e-001 
-1.539610e-001 
-1.448411e-001 
-1.375910e-001 
-1.281301e-001 
-1.169651e-001 
-1.071180e-001 
-1.025323e-001 
-9.884996e-002 
-9.019232e-002 
-8.224520e-002 
-7.920215e-002 
-7.292035e-002 
-6.574408e-002 
-6.388100e-002 
-6.473426e-002 
-6.804790e-002 
-6.678556e-002 
-6.354660e-002 
-6.218418e-002 
-5.920223e-002 
-5.343550e-002 
-5.016104e-002 
-4.822465e-002 
-4.520188e-002 
-3.990744e-002 
-3.156466e-002 
-2.680494e-002 
-2.198423e-002 
-1.832020e-002 
-1.605633e-002 
-1.496517e-002 
-1.424735e-002 
-1.125562e-002 
-6.888219e-003 
-4.853279e-003 
-4.967666e-003 
-3.485870e-003 
-3.226546e-003 
-2.430163e-003 
-2.587688e-003 
-1.455149e-003 
-1.701675e-004 
3.020050e-004 
1.902191e-003 
1.627543e-003 
2.641849e-003 
6.473428e-003 
1.168924e-002 
1.735149e-002 
2.495581e-002 
3.219053e-002 
4.252005e-002 
5.173339e-002 
5.856270e-002 
6.783846e-002 
7.574815e-002 
8.201080e-002 
8.497731e-002 
8.710025e-002 
8.774116e-002 
8.645547e-002 
8.237721e-002 
7.735784e-002 
7.179011e-002 
6.761031e-002 
6.221480e-002 
5.244637e-002 
4.481825e-002 
3.758568e-002 
3.239057e-002 
3.203520e-002 
5.781448e-002 
1.465849e-001 
2.849721e-001 
3.799841e-001 
3.796024e-001 
3.415710e-001 
3.234966e-001 
3.228289e-001 
3.369560e-001 
3.969240e-001 
4.924736e-001 
5.168802e-001 
4.009695e-001 
2.586228e-001 
2.173765e-001 
2.368687e-001 
2.407050e-001 
2.295682e-001 
2.023079e-001 
1.230171e-001 
-1.878137e-002 
-1.516212e-001 
-1.920942e-001 
-1.638252e-001 
-1.407344e-001 
-1.352909e-001 
-1.340134e-001 
-1.382117e-001 
-1.399501e-001 
-1.411170e-001 
-1.426655e-001 
-1.419283e-001 
-1.427346e-001 
-1.438391e-001 
-1.450628e-001 
-1.499562e-001 
-1.534618e-001 
-1.515722e-001 
-1.510566e-001 
-1.451120e-001 
-1.367951e-001 
-1.299821e-001 
-1.232346e-001 
-1.173739e-001 
-1.102878e-001 
-1.007559e-001 
-8.942790e-002 
-7.717587e-002 
-6.813952e-002 
-6.177119e-002 
-5.430044e-002 
-4.944519e-002 
-4.394071e-002 
-3.739642e-002 
-3.086639e-002 
-2.376174e-002 
-2.259435e-002 
-2.653115e-002 
-2.453187e-002 
-2.402547e-002 
-2.594574e-002 
-2.336035e-002 
-2.237631e-002 
-2.252867e-002 
-1.963827e-002 
-1.781001e-002 
-1.331657e-002 
-6.708039e-003 
-3.587517e-003 
1.137753e-003 
3.348423e-003 
1.411182e-003 
5.413902e-003 
1.355481e-002 
1.632624e-002 
1.498596e-002 
1.423033e-002 
1.585933e-002 
1.497754e-002 
9.875017e-003 
8.815567e-003 
1.352321e-002 
1.687105e-002 
1.205094e-002 
7.363951e-003 
9.155760e-003 
1.080335e-002 
7.880902e-003 
7.482694e-003 
1.360199e-002 
2.243872e-002 
2.721939e-002 
2.937257e-002 
3.732087e-002 
4.845437e-002 
5.719454e-002 
6.626358e-002 
7.643560e-002 
8.611627e-002 
9.307960e-002 
9.398966e-002 
9.193947e-002 
8.917533e-002 
8.939688e-002 
8.730791e-002 
8.110179e-002 
7.356561e-002 
6.732217e-002 
5.857339e-002 
4.556282e-002 
3.225839e-002 
2.454009e-002 
2.039934e-002 
1.495769e-002 
2.431612e-002 
8.049110e-002 
1.995425e-001 
3.204080e-001 
3.638892e-001 
3.343684e-001 
3.039784e-001 
3.008681e-001 
3.105035e-001 
3.456672e-001 
4.279925e-001 
4.940607e-001 
4.394978e-001 
2.950634e-001 
1.997264e-001 
2.057250e-001 
2.294106e-001 
2.225570e-001 
1.999998e-001 
1.458172e-001 
2.687027e-002 
-1.167502e-001 
-2.009425e-001 
-1.959585e-001 
-1.613855e-001 
-1.552516e-001 
-1.620857e-001 
-1.662821e-001 
-1.721025e-001 
-1.743201e-001 
-1.732823e-001 
-1.724432e-001 
-1.733889e-001 
-1.796631e-001 
-1.869498e-001 
-1.907266e-001 
-1.921250e-001 
-1.918582e-001 
-1.887161e-001 
-1.827401e-001 
-1.737834e-001 
-1.697669e-001 
-1.663453e-001 
-1.608938e-001 
-1.510982e-001 
-1.404950e-001 
-1.319342e-001 
-1.228363e-001 
-1.128997e-001 
-1.064355e-001 
-1.042250e-001 
-9.937541e-002 
-9.404970e-002 
-8.758813e-002 
-8.340096e-002 
-7.797388e-002 
-7.524386e-002 
-7.507792e-002 
-7.748996e-002 
-7.921264e-002 
-7.876779e-002 
-7.811231e-002 
-7.409930e-002 
-7.013769e-002 
-6.691957e-002 
-6.312193e-002 
-5.718876e-002 
-5.441015e-002 
-4.884343e-002 
-4.071902e-002 
-3.242994e-002 
-2.405542e-002 
-2.021464e-002 
-1.577122e-002 
-9.450273e-003 
-4.775789e-003 
-2.850963e-003 
8.304241e-004 
3.897693e-003 
6.962394e-003 
9.066735e-003 
7.081750e-003 
7.643548e-003 
1.133700e-002 
1.229428e-002 
8.682187e-003 
8.977030e-003 
1.466890e-002 
2.140723e-002 
2.278368e-002 
2.470209e-002 
3.368232e-002 
4.199580e-002 
4.613604e-002 
5.209300e-002 
6.290096e-002 
7.350037e-002 
7.810444e-002 
7.791980e-002 
7.575305e-002 
7.474934e-002 
7.346228e-002 
6.932559e-002 
6.565807e-002 
6.227292e-002 
5.496973e-002 
4.563134e-002 
3.526004e-002 
2.449462e-002 
2.136406e-002 
1.716747e-002 
1.923146e-002 
6.290797e-002 
1.688029e-001 
2.971945e-001 
3.641122e-001 
3.420996e-001 
3.074743e-001 
3.010628e-001 
3.040191e-001 
3.314287e-001 
4.050325e-001 
4.834003e-001 
4.629213e-001 
3.243682e-001 
2.064496e-001 
1.980405e-001 
2.195357e-001 
2.163960e-001 
1.968672e-001 
1.504186e-001 
4.958294e-002 
-9.499784e-002 
-2.038799e-001 
-2.161732e-001 
-1.845079e-001 
-1.730866e-001 
-1.776051e-001 
-1.841159e-001 
-1.852242e-001 
-1.851920e-001 
-1.894148e-001 
-1.925755e-001 
-1.933265e-001 
-1.962211e-001 
-1.999325e-001 
-2.041770e-001 
-2.062136e-001 
-2.053002e-001 
-2.074716e-001 
-2.058664e-001 
-1.968056e-001 
-1.894034e-001 
-1.834634e-001 
-1.756399e-001 
-1.654475e-001 
-1.553404e-001 
-1.485149e-001 
-1.429808e-001 
-1.292675e-001 
-1.176884e-001 
-1.132975e-001 
-1.064229e-001 
-9.800878e-002 
-9.280133e-002 
-9.059897e-002 
-8.791435e-002 
-8.357592e-002 
-7.801530e-002 
-8.128956e-002 
-8.384840e-002 
-8.231375e-002 
-8.258088e-002 
-8.374853e-002 
-8.102156e-002 
-7.533575e-002 
-7.052615e-002 
-6.744584e-002 
-6.413784e-002 
-5.732079e-002 
-5.207050e-002 
-4.783528e-002 
-4.408329e-002 
-3.728611e-002 
-3.230706e-002 
-3.158842e-002 
-2.989641e-002 
-2.649247e-002 
-2.580978e-002 
-2.701989e-002 
-2.896159e-002 
-2.758377e-002 
-2.658610e-002 
-2.937496e-002 
-3.067078e-002 
-3.105169e-002 
-3.277454e-002 
-3.504708e-002 
-3.632740e-002 
-3.364053e-002 
-2.718823e-002 
-2.474037e-002 
-1.804321e-002 
-1.045823e-002 
-4.467980e-003 
3.909472e-003 
1.363287e-002 
2.432301e-002 
3.604289e-002 
4.556262e-002 
5.064135e-002 
5.300101e-002 
4.852184e-002 
4.628721e-002 
4.669657e-002 
4.672782e-002 
4.296611e-002 
3.701452e-002 
2.981079e-002 
1.759760e-002 
3.895645e-003 
-6.079943e-003 
-1.050401e-002 
-1.123204e-002 
-7.811786e-003 
1.468144e-002 
9.567077e-002 
2.209127e-001 
3.043449e-001 
3.029563e-001 
2.678882e-001 
2.546755e-001 
2.609612e-001 
2.737193e-001 
3.228085e-001 
4.082849e-001 
4.275249e-001 
3.163976e-001 
1.862845e-001 
1.540579e-001 
1.796437e-001 
1.842144e-001 
1.655798e-001 
1.347473e-001 
5.985868e-002 
-7.107552e-002 
-1.903993e-001 
-2.184364e-001 
-1.851743e-001 
-1.636060e-001 
-1.638153e-001 
-1.651170e-001 
-1.663757e-001 
-1.688023e-001 
-1.695739e-001 
-1.689515e-001 
-1.682352e-001 
-1.742486e-001 
-1.805144e-001 
-1.850888e-001 
-1.898012e-001 
-1.941222e-001 
-1.945114e-001 
-1.912210e-001 
-1.863535e-001 
-1.821706e-001 
-1.776091e-001 
-1.718108e-001 
-1.685663e-001 
-1.639965e-001 
-1.570186e-001 
-1.457170e-001 
-1.346944e-001 
-1.255753e-001 
-1.168459e-001 
-1.096143e-001 
-1.061773e-001 
-1.017541e-001 
-9.554093e-002 
-8.702183e-002 
-7.975131e-002 
-7.916003e-002 
-7.960593e-002 
-7.900850e-002 
-8.078163e-002 
-8.229763e-002 
-8.101252e-002 
-7.621923e-002 
-6.899364e-002 
-6.674134e-002 
-6.370380e-002 
-5.698428e-002 
-5.189926e-002 
-4.828555e-002 
-4.479205e-002 
-4.119802e-002 
-3.553138e-002 
-3.318614e-002 
-3.175737e-002 
-2.648486e-002 
-2.457997e-002 
-2.563882e-002 
-2.609327e-002 
-2.676739e-002 
-2.711704e-002 
-2.713547e-002 
-2.736767e-002 
-2.659014e-002 
-2.700941e-002 
-2.797621e-002 
-2.613338e-002 
-2.132242e-002 
-1.518737e-002 
-8.183856e-003 
1.858759e-003 
1.161595e-002 
1.743577e-002 
2.263917e-002 
2.887789e-002 
3.446268e-002 
3.827750e-002 
3.742387e-002 
3.609710e-002 
3.487482e-002 
2.983072e-002 
2.239887e-002 
1.621895e-002 
1.116688e-002 
5.032640e-003 
-4.567287e-003 
-1.292729e-002 
-1.897607e-002 
-2.283431e-002 
-2.135655e-002 
4.610485e-003 
9.527850e-002 
2.326574e-001 
3.252855e-001 
3.262538e-001 
2.883038e-001 
2.711232e-001 
2.773556e-001 
2.953036e-001 
3.562937e-001 
4.535923e-001 
4.760170e-001 
3.627208e-001 
2.249809e-001 
1.850399e-001 
2.115315e-001 
2.217258e-001 
2.090438e-001 
1.799369e-001 
9.896247e-002 
-4.045504e-002 
-1.667708e-001 
-2.054969e-001 
-1.757156e-001 
-1.488551e-001 
-1.454095e-001 
-1.481140e-001 
-1.544213e-001 
-1.584438e-001 
-1.577422e-001 
-1.602129e-001 
-1.660121e-001 
-1.686827e-001 
-1.688759e-001 
-1.720887e-001 
-1.773032e-001 
-1.797329e-001 
-1.756497e-001 
-1.704171e-001 
-1.667330e-001 
-1.615484e-001 
-1.517010e-001 
-1.428337e-001 
-1.367289e-001 
-1.289644e-001 
-1.192662e-001 
-1.093857e-001 
-9.921387e-002 
-8.947032e-002 
-7.921249e-002 
-6.860157e-002 
-6.150873e-002 
-5.410383e-002 
-4.851890e-002 
-4.532738e-002 
-4.094104e-002 
-3.734272e-002 
-3.724339e-002 
-3.576171e-002 
-3.745841e-002 
-3.883481e-002 
-3.712672e-002 
-3.645301e-002 
-3.314196e-002 
-2.821526e-002 
-2.474789e-002 
-2.111882e-002 
-1.940864e-002 
-2.052636e-002 
-1.756517e-002 
-1.460143e-002 
-1.455955e-002 
-1.559538e-002 
-1.326274e-002 
-1.092381e-002 
-1.230181e-002 
-1.448130e-002 
-1.452610e-002 
-1.559222e-002 
-2.007675e-002 
-2.673348e-002 
-2.798654e-002 
-2.547244e-002 
-2.659446e-002 
-2.592872e-002 
-2.271169e-002 
-1.939155e-002 
-1.659903e-002 
-1.173948e-002 
-2.593997e-003 
1.099034e-002 
1.716332e-002 
2.166035e-002 
2.616521e-002 
2.506850e-002 
2.294735e-002 
2.111640e-002 
2.035895e-002 
2.152389e-002 
1.766206e-002 
7.075391e-003 
1.542758e-003 
-8.775480e-003 
-2.152512e-002 
-2.825340e-002 
-3.240850e-002 
-3.735269e-002 
-4.037500e-002 
-3.297762e-002 
2.179695e-002 
1.411651e-001 
2.658718e-001 
3.234035e-001 
3.012746e-001 
2.674492e-001 
2.575816e-001 
2.645908e-001 
3.013626e-001 
3.835742e-001 
4.529135e-001 
4.106931e-001 
2.688343e-001 
1.623069e-001 
1.585056e-001 
1.800817e-001 
1.793857e-001 
1.575580e-001 
1.019089e-001 
-1.223776e-002 
-1.578112e-001 
-2.508908e-001 
-2.546755e-001 
-2.196521e-001 
-2.021538e-001 
-2.038711e-001 
-2.098818e-001 
-2.118942e-001 
-2.100918e-001 
-2.088009e-001 
-2.100112e-001 
-2.123903e-001 
-2.111697e-001 
-2.131750e-001 
-2.179751e-001 
-2.198931e-001 
-2.169692e-001 
-2.110054e-001 
-2.076851e-001 
-2.018283e-001 
-1.939552e-001 
-1.867386e-001 
-1.796261e-001 
-1.711727e-001 
-1.623317e-001 
-1.500692e-001 
-1.404539e-001 
-1.336985e-001 
-1.241509e-001 
-1.154320e-001 
-1.088696e-001 
-1.030457e-001 
-9.704758e-002 
-9.033141e-002 
-8.393392e-002 
-8.159705e-002 
-8.053011e-002 
-7.840766e-002 
-7.869372e-002 
-8.108220e-002 
-7.942053e-002 
-7.579600e-002 
-7.221312e-002 
-6.970333e-002 
-6.699581e-002 
-6.239959e-002 
-5.811961e-002 
-5.507789e-002 
-5.021676e-002 
-4.378782e-002 
-4.092011e-002 
-3.922723e-002 
-3.831927e-002 
-3.573037e-002 
-3.399411e-002 
-3.395531e-002 
-3.255920e-002 
-3.132837e-002 
-3.296256e-002 
-3.548303e-002 
-3.596606e-002 
-3.613257e-002 
-3.572537e-002 
-3.475432e-002 
-3.099083e-002 
-2.659906e-002 
-2.343385e-002 
-1.854152e-002 
-1.092971e-002 
-9.679283e-004 
7.721101e-003 
1.659521e-002 
2.724630e-002 
3.428603e-002 
3.806602e-002 
3.923290e-002 
3.997070e-002 
4.080466e-002 
4.007475e-002 
3.594899e-002 
3.183438e-002 
2.556668e-002 
1.723845e-002 
8.967522e-003 
-2.439112e-003 
-1.055280e-002 
-1.726113e-002 
-2.524595e-002 
-3.003813e-002 
-2.547118e-002 
1.099942e-002 
1.088880e-001 
2.335679e-001 
2.991786e-001 
2.835683e-001 
2.476453e-001 
2.363032e-001 
2.418622e-001 
2.644145e-001 
3.301037e-001 
4.097618e-001 
3.969905e-001 
2.663425e-001 
1.511937e-001 
1.384322e-001 
1.621573e-001 
1.631185e-001 
1.467965e-001 
1.075454e-001 
1.530921e-002 
-1.209927e-001 
-2.240792e-001 
-2.343468e-001 
-1.992299e-001 
-1.822948e-001 
-1.805618e-001 
-1.822239e-001 
-1.861060e-001 
-1.874591e-001 
-1.858822e-001 
-1.848089e-001 
-1.842654e-001 
-1.866737e-001 
-1.888300e-001 
-1.906294e-001 
-1.955620e-001 
-1.999731e-001 
-1.998814e-001 
-1.941187e-001 
-1.873296e-001 
-1.827741e-001 
-1.777302e-001 
-1.714972e-001 
-1.673849e-001 
-1.622958e-001 
-1.549430e-001 
-1.426535e-001 
-1.294450e-001 
-1.216744e-001 
-1.157362e-001 
-1.079058e-001 
-1.016054e-001 
-9.496134e-002 
-8.610140e-002 
-7.752944e-002 
-6.959776e-002 
-6.737715e-002 
-6.758849e-002 
-6.733923e-002 
-6.715046e-002 
-6.787546e-002 
-6.473907e-002 
-6.062206e-002 
-5.654449e-002 
-5.381488e-002 
-5.078331e-002 
-4.656491e-002 
-4.356959e-002 
-3.901658e-002 
-3.443127e-002 
-2.918321e-002 
-2.549395e-002 
-2.455581e-002 
-2.406116e-002 
-2.193417e-002 
-2.282380e-002 
-2.087277e-002 
-1.811903e-002 
-1.763173e-002 
-1.668292e-002 
-1.864120e-002 
-2.175458e-002 
-1.917468e-002 
-1.523213e-002 
-9.997164e-003 
-2.609124e-003 
3.268760e-003 
1.227117e-002 
2.098667e-002 
2.910298e-002 
4.004505e-002 
5.229680e-002 
5.969736e-002 
6.214630e-002 
6.170021e-002 
6.313824e-002 
6.386644e-002 
6.254920e-002 
6.025471e-002 
5.608122e-002 
4.935562e-002 
3.749917e-002 
2.756524e-002 
2.289445e-002 
1.839105e-002 
1.103316e-002 
5.415397e-003 
6.544330e-003 
3.655410e-002 
1.257820e-001 
2.587167e-001 
3.533178e-001 
3.549585e-001 
3.176033e-001 
3.015925e-001 
3.044778e-001 
3.237924e-001 
3.836029e-001 
4.709472e-001 
4.860888e-001 
3.697420e-001 
2.330116e-001 
1.973063e-001 
2.185532e-001 
2.225143e-001 
2.061331e-001 
1.702659e-001 
8.771461e-002 
-5.080396e-002 
-1.752144e-001 
-2.109500e-001 
-1.828280e-001 
-1.615129e-001 
-1.611940e-001 
-1.659519e-001 
-1.678831e-001 
-1.678672e-001 
-1.688114e-001 
-1.710825e-001 
-1.752117e-001 
-1.776437e-001 
-1.809972e-001 
-1.859246e-001 
-1.911744e-001 
-1.931034e-001 
-1.912836e-001 
-1.886826e-001 
-1.864737e-001 
-1.821855e-001 
-1.766125e-001 
-1.694169e-001 
-1.628879e-001 
-1.578106e-001 
-1.484325e-001 
-1.371813e-001 
-1.267002e-001 
-1.174980e-001 
-1.095417e-001 
-1.008487e-001 
-9.071509e-002 
-8.431079e-002 
-7.703936e-002 
-6.814543e-002 
-6.148042e-002 
-5.691586e-002 
-5.592614e-002 
-5.492312e-002 
-5.259195e-002 
-5.136140e-002 
-4.960505e-002 
-4.472251e-002 
-4.143565e-002 
-3.955167e-002 
-3.598952e-002 
-2.990084e-002 
-2.404341e-002 
-2.192798e-002 
-2.036866e-002 
-1.583121e-002 
-1.256313e-002 
-1.441881e-002 
-1.508148e-002 
-9.930366e-003 
-5.607597e-003 
-9.007788e-003 
-1.214060e-002 
-1.116210e-002 
-1.028773e-002 
-1.318642e-002 
-1.516138e-002 
-1.174214e-002 
-7.122826e-003 
-8.529706e-003 
-1.002032e-002 
-4.135110e-003 
6.935454e-004 
4.409379e-003 
1.129207e-002 
2.411721e-002 
3.571133e-002 
4.475273e-002 
5.223161e-002 
6.117853e-002 
6.935972e-002 
6.992394e-002 
6.906230e-002 
7.216647e-002 
7.330987e-002 
6.936078e-002 
6.620161e-002 
5.974631e-002 
5.368309e-002 
4.676271e-002 
3.576341e-002 
2.893302e-002 
2.564770e-002 
1.904505e-002 
1.625905e-002 
2.127880e-002 
5.804443e-002 
1.618777e-001 
2.890487e-001 
3.503901e-001 
3.310931e-001 
2.984502e-001 
2.917984e-001 
2.992136e-001 
3.240417e-001 
3.946818e-001 
4.768152e-001 
4.575684e-001 
3.230469e-001 
2.134743e-001 
2.087871e-001 
2.329535e-001 
2.323379e-001 
2.166860e-001 
1.768496e-001 
8.392512e-002 
-5.245640e-002 
-1.498241e-001 
-1.560208e-001 
-1.214433e-001 
-1.075195e-001 
-1.070454e-001 
-1.094963e-001 
-1.107112e-001 
-1.097040e-001 
-1.113561e-001 
-1.130667e-001 
-1.155666e-001 
-1.186078e-001 
-1.203662e-001 
-1.229770e-001 
-1.278953e-001 
-1.274350e-001 
-1.266263e-001 
-1.239220e-001 
-1.170766e-001 
-1.099390e-001 
-1.032603e-001 
-9.517779e-002 
-8.727905e-002 
-7.789273e-002 
-6.608472e-002 
-5.398162e-002 
-4.196079e-002 
-3.305164e-002 
-2.399551e-002 
-1.677817e-002 
-6.849295e-003 
3.329889e-003 
1.158197e-002 
1.976974e-002 
2.596835e-002 
2.530764e-002 
2.435157e-002 
2.554962e-002 
2.582995e-002 
2.869591e-002 
2.952061e-002 
3.102538e-002 
3.425469e-002 
3.678386e-002 
3.859984e-002 
4.322320e-002 
4.847312e-002 
5.285769e-002 
5.505914e-002 
5.702514e-002 
5.926440e-002 
5.980978e-002 
5.994145e-002 
6.019137e-002 
6.162438e-002 
6.275556e-002 
6.152168e-002 
5.980030e-002 
5.932554e-002 
5.626443e-002 
5.394899e-002 
5.324653e-002 
5.452972e-002 
5.860410e-002 
6.407039e-002 
6.927203e-002 
7.385285e-002 
7.838264e-002 
8.547013e-002 
9.667659e-002 
1.088276e-001 
1.197936e-001 
1.290141e-001 
1.358717e-001 
1.361629e-001 
1.344489e-001 
1.347383e-001 
1.362043e-001 
1.375228e-001 
1.365883e-001 
1.298095e-001 
1.232623e-001 
1.137812e-001 
1.014287e-001 
9.415262e-002 
8.932146e-002 
8.652852e-002 
8.623024e-002 
9.255450e-002 
1.325840e-001 
2.389605e-001 
3.662611e-001 
4.345500e-001 
4.193089e-001 
3.852060e-001 
3.764722e-001 
3.806112e-001 
4.045630e-001 
4.750962e-001 
5.546432e-001 
5.349520e-001 
4.044590e-001 
2.884215e-001 
2.773015e-001 
3.003362e-001 
2.991994e-001 
2.812091e-001 
2.387517e-001 
1.399211e-001 
5.581630e-005 
-1.011606e-001 
-1.131518e-001 
-7.875629e-002 
-6.257079e-002 
-6.281564e-002 
-6.702845e-002 
-6.961909e-002 
-7.071927e-002 
-6.969246e-002 
-7.249921e-002 
-7.942729e-002 
-8.492342e-002 
-8.970259e-002 
-9.736490e-002 
-1.035914e-001 
-1.060781e-001 
-1.047768e-001 
-1.015968e-001 
-9.983966e-002 
-9.442495e-002 
-8.728559e-002 
-8.251809e-002 
-7.767488e-002 
-6.977638e-002 
-5.933563e-002 
-4.603984e-002 
-3.574950e-002 
-2.604397e-002 
-1.672502e-002 
-1.023810e-002 
-4.154890e-003 
4.416109e-003 
1.475642e-002 
2.460823e-002 
2.898763e-002 
3.067820e-002 
3.230616e-002 
3.047739e-002 
2.939972e-002 
3.017621e-002 
3.447850e-002 
3.937663e-002 
4.107232e-002 
4.204541e-002 
4.712556e-002 
4.808115e-002 
4.882199e-002 
5.176362e-002 
5.542310e-002 
5.865940e-002 
5.956690e-002 
5.851516e-002 
5.849560e-002 
5.753868e-002 
5.441887e-002 
5.431844e-002 
5.498371e-002 
5.486829e-002 
5.116492e-002 
4.847618e-002 
4.721694e-002 
4.812540e-002 
5.032467e-002 
5.466078e-002 
6.045161e-002 
6.782746e-002 
7.368593e-002 
7.997276e-002 
8.956731e-002 
9.730331e-002 
1.038753e-001 
1.086268e-001 
1.095551e-001 
1.074953e-001 
1.053904e-001 
1.023214e-001 
9.926429e-002 
9.430313e-002 
8.724907e-002 
7.983268e-002 
6.952878e-002 
5.725844e-002 
4.804836e-002 
4.287575e-002 
3.742755e-002 
3.246665e-002 
4.191748e-002 
1.016181e-001 
2.237013e-001 
3.401556e-001 
3.764006e-001 
3.463679e-001 
3.195407e-001 
3.166202e-001 
3.234396e-001 
3.623359e-001 
4.511262e-001 
5.138697e-001 
4.500309e-001 
3.069810e-001 
2.248956e-001 
2.377274e-001 
2.579868e-001 
2.499927e-001 
2.309295e-001 
1.778074e-001 
6.025854e-002 
-7.844106e-002 
-1.523719e-001 
-1.415142e-001 
-1.080055e-001 
-1.015375e-001 
-1.043999e-001 
-1.049752e-001 
-1.072932e-001 
-1.099241e-001 
-1.118576e-001 
-1.161654e-001 
-1.193530e-001 
-1.232927e-001 
-1.277867e-001 
-1.306945e-001 
-1.353476e-001 
-1.380242e-001 
-1.368888e-001 
-1.336145e-001 
-1.289051e-001 
-1.222058e-001 
-1.158070e-001 
-1.082048e-001 
-1.034110e-001 
-9.704559e-002 
-8.708974e-002 
-7.763334e-002 
-6.898533e-002 
-6.063751e-002 
-5.271227e-002 
-4.533101e-002 
-4.093627e-002 
-3.715324e-002 
-2.829914e-002 
-2.249061e-002 
-2.046564e-002 
-2.069598e-002 
-2.100697e-002 
-2.118462e-002 
-2.297217e-002 
-2.564803e-002 
-2.260937e-002 
-1.823916e-002 
-1.828722e-002 
-1.671010e-002 
-1.351133e-002 
-8.990609e-003 
-7.325706e-003 
-6.119901e-003 
-4.022069e-003 
-4.417593e-004 
-3.017306e-003 
-5.039028e-003 
-2.063608e-003 
-5.783773e-004 
-3.134987e-003 
-6.696269e-003 
-7.244334e-003 
-8.256292e-003 
-1.092035e-002 
-1.575991e-002 
-1.216360e-002 
-6.745978e-003 
-5.174193e-003 
-3.819046e-003 
1.354364e-003 
8.747791e-003 
1.611792e-002 
2.273748e-002 
3.145182e-002 
4.221456e-002 
4.605207e-002 
4.473991e-002 
4.173058e-002 
3.900781e-002 
3.573067e-002 
3.157127e-002 
2.839446e-002 
2.257229e-002 
1.194901e-002 
4.237903e-005 
-1.207075e-002 
-2.252431e-002 
-3.183094e-002 
-3.929742e-002 
-4.024717e-002 
-2.819177e-002 
2.396914e-002 
1.352296e-001 
2.410950e-001 
2.671096e-001 
2.310577e-001 
2.009726e-001 
1.997834e-001 
2.107494e-001 
2.458684e-001 
3.243450e-001 
3.788813e-001 
3.122640e-001 
1.735885e-001 
9.794632e-002 
1.133364e-001 
1.343376e-001 
1.266844e-001 
1.037260e-001 
4.985579e-002 
-6.102491e-002 
-1.913613e-001 
-2.572146e-001 
-2.400976e-001 
-2.046297e-001 
-1.973488e-001 
-2.007225e-001 
-2.031128e-001 
-2.041383e-001 
-2.073544e-001 
-2.102691e-001 
-2.109763e-001 
-2.114820e-001 
-2.161636e-001 
-2.221767e-001 
-2.263331e-001 
-2.297860e-001 
-2.325156e-001 
-2.319712e-001 
-2.248543e-001 
-2.167284e-001 
-2.112902e-001 
-2.068236e-001 
-2.002192e-001 
-1.931414e-001 
-1.846723e-001 
-1.756669e-001 
-1.631789e-001 
-1.511062e-001 
-1.423382e-001 
-1.351827e-001 
-1.269874e-001 
-1.183025e-001 
-1.087147e-001 
-1.002208e-001 
-9.329129e-002 
-8.667680e-002 
-8.464202e-002 
-8.367786e-002 
-8.286466e-002 
-8.209941e-002 
-8.237171e-002 
-8.063716e-002 
-7.808814e-002 
-7.393540e-002 
-6.880942e-002 
-6.389589e-002 
-5.935038e-002 
-5.656694e-002 
-5.494256e-002 
-5.347194e-002 
-4.932189e-002 
-4.629603e-002 
-4.443801e-002 
-4.251956e-002 
-4.386597e-002 
-4.758120e-002 
-4.956474e-002 
-4.911622e-002 
-4.825029e-002 
-4.527906e-002 
-4.162045e-002 
-3.767529e-002 
-3.520242e-002 
-3.224826e-002 
-2.441709e-002 
-1.336313e-002 
-1.009934e-003 
8.114617e-003 
1.570646e-002 
2.221057e-002 
2.301673e-002 
2.067112e-002 
2.174722e-002 
2.253554e-002 
2.206226e-002 
1.942008e-002 
1.040258e-002 
1.616802e-003 
-8.300010e-003 
-2.236105e-002 
-3.138800e-002 
-3.778947e-002 
-4.562586e-002 
-5.175623e-002 
-5.460388e-002 
-3.861435e-002 
4.052705e-002 
1.751830e-001 
2.789756e-001 
2.848536e-001 
2.444628e-001 
2.276387e-001 
2.292047e-001 
2.404639e-001 
2.898530e-001 
3.860442e-001 
4.234664e-001 
3.141696e-001 
1.618737e-001 
1.194385e-001 
1.455675e-001 
1.537827e-001 
1.410940e-001 
1.136087e-001 
4.420828e-002 
-9.090543e-002 
-2.275880e-001 
-2.719074e-001 
-2.392128e-001 
-2.127495e-001 
-2.094052e-001 
-2.121609e-001 
-2.119926e-001 
-2.113883e-001 
-2.142923e-001 
-2.147668e-001 
-2.163650e-001 
-2.190597e-001 
-2.213594e-001 
-2.267627e-001 
-2.295826e-001 
-2.300539e-001 
-2.298064e-001 
-2.241876e-001 
-2.155206e-001 
-2.088941e-001 
-1.999836e-001 
-1.925311e-001 
-1.864815e-001 
-1.767603e-001 
-1.660652e-001 
-1.539402e-001 
-1.420785e-001 
-1.315695e-001 
-1.220679e-001 
-1.132701e-001 
-1.061323e-001 
-9.726317e-002 
-8.641845e-002 
-7.663533e-002 
-7.150782e-002 
-6.902070e-002 
-6.822942e-002 
-6.870154e-002 
-6.772102e-002 
-6.720526e-002 
-6.355572e-002 
-5.675514e-002 
-5.150828e-002 
-4.835368e-002 
-4.400587e-002 
-4.099033e-002 
-3.614069e-002 
-3.171211e-002 
-2.914008e-002 
-2.412466e-002 
-1.915196e-002 
-1.783805e-002 
-1.832751e-002 
-1.939518e-002 
-2.155366e-002 
-2.210165e-002 
-2.275573e-002 
-2.418021e-002 
-2.313113e-002 
-1.942625e-002 
-1.684483e-002 
-1.359123e-002 
-9.418133e-003 
-3.262812e-003 
7.260235e-003 
1.910663e-002 
2.899463e-002 
3.871231e-002 
4.572603e-002 
4.602448e-002 
4.311785e-002 
3.902345e-002 
3.796918e-002 
3.912108e-002 
3.631281e-002 
2.865095e-002 
1.774300e-002 
3.954838e-003 
-1.145805e-002 
-2.408954e-002 
-3.422845e-002 
-3.922698e-002 
-4.477708e-002 
-5.114960e-002 
-3.787041e-002 
3.273989e-002 
1.584277e-001 
2.579831e-001 
2.659495e-001 
2.304018e-001 
2.161176e-001 
2.167529e-001 
2.263379e-001 
2.738806e-001 
3.640688e-001 
4.006140e-001 
3.008851e-001 
1.605663e-001 
1.183249e-001 
1.410459e-001 
1.466204e-001 
1.321022e-001 
1.076194e-001 
4.082780e-002 
-8.658103e-002 
-2.133359e-001 
-2.564271e-001 
-2.293528e-001 
-2.062709e-001 
-2.039664e-001 
-2.050269e-001 
-2.058094e-001 
-2.042145e-001 
-2.024216e-001 
-2.037911e-001 
-2.063288e-001 
-2.092779e-001 
-2.112576e-001 
-2.133605e-001 
-2.154124e-001 
-2.129376e-001 
-2.061251e-001 
-2.024528e-001 
-1.955432e-001 
-1.878286e-001 
-1.814762e-001 
-1.739349e-001 
-1.669567e-001 
-1.581029e-001 
-1.476964e-001 
-1.393429e-001 
-1.318380e-001 
-1.233699e-001 
-1.184382e-001 
-1.121859e-001 
-1.031742e-001 
-9.556276e-002 
-8.981851e-002 
-8.646657e-002 
-8.263653e-002 
-8.087482e-002 
-8.337738e-002 
-8.680578e-002 
-8.608716e-002 
-8.223578e-002 
-7.982410e-002 
-7.781441e-002 
-7.382663e-002 
-6.754119e-002 
-6.446942e-002 
-6.293670e-002 
-5.908945e-002 
-5.285425e-002 
-4.675147e-002 
-4.625876e-002 
-4.777221e-002 
-4.662941e-002 
-4.606030e-002 
-4.799269e-002 
-4.768779e-002 
-4.484067e-002 
-4.321059e-002 
-4.598526e-002 
-5.058296e-002 
-5.241114e-002 
-5.417193e-002 
-5.698177e-002 
-5.650893e-002 
-5.131776e-002 
-4.668511e-002 
-4.501627e-002 
-4.079019e-002 
-3.218824e-002 
-2.269213e-002 
-1.372132e-002 
-3.951063e-003 
8.129142e-003 
1.691343e-002 
1.927605e-002 
1.853927e-002 
1.836717e-002 
1.772920e-002 
1.593153e-002 
1.094753e-002 
4.839027e-003 
-5.264147e-004 
-1.001695e-002 
-2.130283e-002 
-3.186105e-002 
-4.064389e-002 
-4.872227e-002 
-5.519945e-002 
-5.857233e-002 
-4.001483e-002 
3.370185e-002 
1.586898e-001 
2.529301e-001 
2.582448e-001 
2.211726e-001 
2.028104e-001 
2.071516e-001 
2.201868e-001 
2.683618e-001 
3.570634e-001 
3.907686e-001 
2.889083e-001 
1.527723e-001 
1.087511e-001 
1.325997e-001 
1.433714e-001 
1.288208e-001 
1.032837e-001 
3.800129e-002 
-8.887840e-002 
-2.143170e-001 
-2.551266e-001 
-2.267496e-001 
-1.984745e-001 
-1.950779e-001 
-1.962875e-001 
-1.949220e-001 
-1.959012e-001 
-1.980064e-001 
-1.994244e-001 
-1.996733e-001 
-1.986379e-001 
-2.017809e-001 
-2.061494e-001 
-2.078412e-001 
-2.096126e-001 
-2.100026e-001 
-2.064913e-001 
-1.996086e-001 
-1.899335e-001 
-1.816437e-001 
-1.775849e-001 
-1.696486e-001 
-1.598957e-001 
-1.502394e-001 
-1.381819e-001 
-1.254053e-001 
-1.138549e-001 
-1.024993e-001 
-9.423535e-002 
-8.671211e-002 
-7.596443e-002 
-6.726241e-002 
-5.962755e-002 
-5.383116e-002 
-5.085377e-002 
-4.907781e-002 
-4.894464e-002 
-5.043128e-002 
-4.915349e-002 
-4.778553e-002 
-4.602062e-002 
-4.308947e-002 
-4.024210e-002 
-3.505485e-002 
-3.068656e-002 
-2.911398e-002 
-2.584212e-002 
-2.307481e-002 
-2.173978e-002 
-1.788355e-002 
-1.575862e-002 
-1.499913e-002 
-1.425401e-002 
-1.663282e-002 
-1.913838e-002 
-2.008917e-002 
-2.230982e-002 
-2.187458e-002 
-2.126975e-002 
-2.306794e-002 
-2.192228e-002 
-1.841755e-002 
-1.505953e-002 
-9.887973e-003 
-3.704468e-003 
5.359142e-003 
1.770382e-002 
2.600472e-002 
3.273236e-002 
3.815403e-002 
3.909743e-002 
3.664368e-002 
3.358695e-002 
3.243597e-002 
3.264327e-002 
2.768245e-002 
1.881107e-002 
1.100140e-002 
-7.738058e-004 
-1.352076e-002 
-2.294752e-002 
-2.877812e-002 
-3.342186e-002 
-3.947580e-002 
-3.627453e-002 
1.406625e-002 
1.268313e-001 
2.466792e-001 
2.974036e-001 
2.724226e-001 
2.409030e-001 
2.356345e-001 
2.417310e-001 
2.750070e-001 
3.573944e-001 
4.282477e-001 
3.852064e-001 
2.446893e-001 
1.463617e-001 
1.508717e-001 
1.749723e-001 
1.726759e-001 
1.561092e-001 
1.088571e-001 
2.973905e-003 
-1.364416e-001 
-2.222537e-001 
-2.170291e-001 
-1.799913e-001 
-1.654719e-001 
-1.648188e-001 
-1.689799e-001 
-1.702103e-001 
-1.686622e-001 
-1.695633e-001 
-1.697693e-001 
-1.724820e-001 
-1.750629e-001 
-1.792176e-001 
-1.856857e-001 
-1.914262e-001 
-1.915057e-001 
-1.903260e-001 
-1.868530e-001 
-1.811358e-001 
-1.749706e-001 
-1.686560e-001 
-1.643457e-001 
-1.578041e-001 
-1.481739e-001 
-1.355515e-001 
-1.230599e-001 
-1.108949e-001 
-1.002614e-001 
-8.988914e-002 
-8.171810e-002 
-7.385774e-002 
-6.311089e-002 
-5.072651e-002 
-4.171477e-002 
-3.569004e-002 
-3.122540e-002 
-3.019127e-002 
-3.068101e-002 
-3.111494e-002 
-2.748106e-002 
-2.156750e-002 
-1.808929e-002 
-1.539854e-002 
-1.042479e-002 
-9.394311e-003 
-9.915519e-003 
-7.863946e-003 
-2.430512e-003 
3.142838e-003 
3.922934e-003 
3.194093e-003 
4.975728e-003 
2.627857e-003 
-1.976305e-003 
-2.869665e-003 
-1.406838e-003 
6.140617e-004 
-1.949906e-003 
-6.657663e-003 
-8.552554e-003 
-6.952684e-003 
-5.251587e-003 
5.002572e-004 
9.653566e-003 
2.033497e-002 
2.757544e-002 
3.415268e-002 
4.519608e-002 
5.741369e-002 
6.780952e-002 
7.528623e-002 
8.082022e-002 
8.140415e-002 
7.750935e-002 
7.246325e-002 
7.133195e-002 
6.939096e-002 
6.138385e-002 
5.185030e-002 
4.223983e-002 
2.884219e-002 
1.524262e-002 
6.596132e-003 
-2.346541e-004 
-5.948394e-003 
-1.964736e-003 
4.345706e-002 
1.534453e-001 
2.659667e-001 
3.060680e-001 
2.784842e-001 
2.491494e-001 
2.434363e-001 
2.503714e-001 
2.838197e-001 
3.646658e-001 
4.318968e-001 
3.822309e-001 
2.470054e-001 
1.584578e-001 
1.658416e-001 
1.868470e-001 
1.847620e-001 
1.680747e-001 
1.219159e-001 
1.687266e-002 
-1.157634e-001 
-1.923969e-001 
-1.849059e-001 
-1.508619e-001 
-1.387279e-001 
-1.376238e-001 
-1.391268e-001 
-1.379253e-001 
-1.379322e-001 
-1.375250e-001 
-1.388891e-001 
-1.418575e-001 
-1.420123e-001 
-1.411543e-001 
-1.451589e-001 
-1.466078e-001 
-1.454625e-001 
-1.427980e-001 
-1.360589e-001 
-1.294092e-001 
-1.198349e-001 
-1.081936e-001 
-1.005204e-001 
-9.473273e-002 
-8.267074e-002 
-6.952691e-002 
-5.570227e-002 
-4.332241e-002 
-3.163936e-002 
-1.971678e-002 
-8.322233e-003 
5.157874e-004 
9.705528e-003 
2.177201e-002 
3.126166e-002 
3.653338e-002 
3.969794e-002 
4.340708e-002 
4.476242e-002 
4.591467e-002 
4.643432e-002 
4.880564e-002 
5.369707e-002 
5.670559e-002 
5.895533e-002 
6.511841e-002 
6.916220e-002 
7.037479e-002 
7.395379e-002 
7.671948e-002 
7.927673e-002 
8.062479e-002 
7.932590e-002 
8.106962e-002 
8.437589e-002 
8.225157e-002 
8.140231e-002 
8.119200e-002 
7.926614e-002 
7.769894e-002 
7.480232e-002 
7.372167e-002 
7.569212e-002 
7.436513e-002 
7.176567e-002 
7.385093e-002 
7.640746e-002 
8.144478e-002 
8.880084e-002 
9.637819e-002 
1.061712e-001 
1.154016e-001 
1.209189e-001 
1.281293e-001 
1.348189e-001 
1.371245e-001 
1.388379e-001 
1.383280e-001 
1.354087e-001 
1.330436e-001 
1.274254e-001 
1.194370e-001 
1.128401e-001 
1.033710e-001 
9.233004e-002 
8.242540e-002 
7.406574e-002 
6.580184e-002 
5.944032e-002 
6.116666e-002 
9.748666e-002 
1.967593e-001 
3.278246e-001 
4.038439e-001 
3.874191e-001 
3.494416e-001 
3.368771e-001 
3.403335e-001 
3.640002e-001 
4.301909e-001 
5.123296e-001 
5.070355e-001 
3.754151e-001 
2.478437e-001 
2.323359e-001 
2.557620e-001 
2.547018e-001 
2.368701e-001 
1.957905e-001 
1.029498e-001 
-3.633618e-002 
-1.469956e-001 
-1.665337e-001 
-1.347979e-001 
-1.186410e-001 
-1.191439e-001 
-1.199718e-001 
-1.205821e-001 
-1.209745e-001 
-1.212534e-001 
-1.243489e-001 
-1.326661e-001 
-1.357326e-001 
-1.381593e-001 
-1.435026e-001 
-1.456481e-001 
-1.498737e-001 
-1.536338e-001 
-1.521471e-001 
-1.481361e-001 
-1.448019e-001 
-1.378605e-001 
-1.327571e-001 
-1.241394e-001 
-1.134207e-001 
-1.069343e-001 
-9.761306e-002 
-8.401847e-002 
-7.366052e-002 
-6.576384e-002 
-5.606365e-002 
-4.468647e-002 
-3.221286e-002 
-2.403763e-002 
-1.696283e-002 
-8.090786e-003 
-1.409534e-003 
1.864946e-003 
3.152977e-003 
6.419507e-003 
1.083260e-002 
1.171759e-002 
1.506189e-002 
2.168773e-002 
2.708852e-002 
3.136804e-002 
3.468172e-002 
3.979310e-002 
4.724989e-002 
5.071320e-002 
5.351210e-002 
5.866050e-002 
6.099163e-002 
6.131351e-002 
6.030121e-002 
6.156539e-002 
6.330654e-002 
6.164876e-002 
6.002630e-002 
6.048527e-002 
6.079252e-002 
6.122821e-002 
6.330252e-002 
6.922451e-002 
7.687549e-002 
8.110667e-002 
8.844299e-002 
9.897534e-002 
1.092922e-001 
1.187776e-001 
1.271405e-001 
1.355197e-001 
1.404849e-001 
1.377088e-001 
1.337445e-001 
1.327487e-001 
1.311152e-001 
1.276037e-001 
1.208463e-001 
1.126858e-001 
1.021980e-001 
8.809921e-002 
7.377263e-002 
6.427309e-002 
5.857178e-002 
5.448121e-002 
5.720312e-002 
9.591072e-002 
1.981557e-001 
3.201098e-001 
3.755978e-001 
3.520712e-001 
3.216326e-001 
3.152571e-001 
3.198718e-001 
3.446423e-001 
4.151665e-001 
4.914977e-001 
4.623566e-001 
3.241652e-001 
2.197828e-001 
2.167923e-001 
2.364276e-001 
2.336300e-001 
2.143510e-001 
1.702017e-001 
7.168663e-002 
-6.845365e-002 
-1.635776e-001 
-1.688433e-001 
-1.388456e-001 
-1.262545e-001 
-1.254474e-001 
-1.281106e-001 
-1.300519e-001 
-1.314906e-001 
-1.333603e-001 
-1.364314e-001 
-1.421075e-001 
-1.455068e-001 
-1.480578e-001 
-1.538180e-001 
-1.623718e-001 
-1.687485e-001 
-1.711272e-001 
-1.686513e-001 
-1.644369e-001 
-1.585453e-001 
-1.523259e-001 
-1.493250e-001 
-1.477606e-001 
-1.430306e-001 
-1.349400e-001 
-1.251551e-001 
-1.142750e-001 
-1.049483e-001 
-9.719886e-002 
-9.137232e-002 
-8.545810e-002 
-7.814932e-002 
-6.827757e-002 
-6.039364e-002 
-5.494703e-002 
-5.095000e-002 
-4.873476e-002 
-4.914894e-002 
-5.056344e-002 
-5.148678e-002 
-5.006446e-002 
-4.497135e-002 
-4.022430e-002 
-3.549958e-002 
-3.113515e-002 
-2.782277e-002 
-2.565872e-002 
-2.292135e-002 
-2.077991e-002 
-1.670753e-002 
-1.185781e-002 
-9.801510e-003 
-1.077465e-002 
-1.188008e-002 
-1.174437e-002 
-1.187507e-002 
-1.331445e-002 
-1.423291e-002 
-1.217222e-002 
-1.217371e-002 
-1.451134e-002 
-1.685844e-002 
-1.657544e-002 
-1.567860e-002 
-1.416210e-002 
-1.072730e-002 
-2.901094e-003 
4.791416e-003 
1.069324e-002 
1.849654e-002 
2.659667e-002 
3.585042e-002 
4.494768e-002 
5.282987e-002 
5.914069e-002 
6.177546e-002 
5.963955e-002 
5.744998e-002 
5.443215e-002 
5.055979e-002 
4.697512e-002 
4.207092e-002 
3.656650e-002 
2.781749e-002 
1.584558e-002 
7.671590e-003 
1.264254e-003 
-5.611793e-003 
-7.325180e-003 
5.871047e-003 
6.577207e-002 
1.835105e-001 
2.990283e-001 
3.421243e-001 
3.172649e-001 
2.874991e-001 
2.839648e-001 
2.950435e-001 
3.337815e-001 
4.165616e-001 
4.773370e-001 
4.229099e-001 
2.843546e-001 
1.955303e-001 
2.017474e-001 
2.244106e-001 
2.209733e-001 
2.014873e-001 
1.487808e-001 
3.700625e-002 
-1.001289e-001 
-1.802945e-001 
-1.729424e-001 
-1.383661e-001 
-1.260951e-001 
-1.264009e-001 
-1.282054e-001 
-1.288070e-001 
-1.284982e-001 
-1.308169e-001 
-1.325973e-001 
-1.338428e-001 
-1.352350e-001 
-1.364303e-001 
-1.404178e-001 
-1.458321e-001 
-1.477321e-001 
-1.470984e-001 
-1.446061e-001 
-1.383016e-001 
-1.305036e-001 
-1.215309e-001 
-1.148277e-001 
-1.093165e-001 
-1.015553e-001 
-9.079268e-002 
-8.056655e-002 
-7.122167e-002 
-6.131374e-002 
-5.056308e-002 
-4.207156e-002 
-3.522889e-002 
-2.615100e-002 
-1.714314e-002 
-1.082560e-002 
-8.805486e-003 
-6.660312e-003 
-2.687160e-003 
-1.032328e-003 
-3.464273e-003 
-3.241266e-003 
-1.307155e-003 
-1.045656e-003 
-1.191550e-003 
8.514151e-004 
8.168156e-003 
1.351684e-002 
1.421345e-002 
1.579136e-002 
1.960587e-002 
2.154754e-002 
2.240539e-002 
2.282812e-002 
2.625643e-002 
2.974479e-002 
2.764425e-002 
2.559630e-002 
2.502952e-002 
2.382796e-002 
2.239461e-002 
2.025919e-002 
1.970682e-002 
2.094405e-002 
1.828651e-002 
1.449164e-002 
1.382696e-002 
1.337439e-002 
1.338322e-002 
1.448868e-002 
1.844476e-002 
2.519553e-002 
2.963035e-002 
3.460020e-002 
4.294092e-002 
5.327085e-002 
6.313348e-002 
7.102888e-002 
7.835813e-002 
8.634379e-002 
8.643357e-002 
8.383990e-002 
8.247377e-002 
8.020415e-002 
7.637470e-002 
7.077357e-002 
6.311836e-002 
5.518162e-002 
4.348137e-002 
2.815414e-002 
1.868469e-002 
9.519246e-003 
1.213994e-003 
-4.032475e-003 
3.868586e-003 
4.955997e-002 
1.557678e-001 
2.740737e-001 
3.278477e-001 
3.051245e-001 
2.720724e-001 
2.661694e-001 
2.729020e-001 
3.016869e-001 
3.729052e-001 
4.412453e-001 
4.051514e-001 
2.723895e-001 
1.700420e-001 
1.685002e-001 
1.914241e-001 
1.864194e-001 
1.636754e-001 
1.161678e-001 
1.514337e-002 
-1.183777e-001 
-2.082098e-001 
-2.124863e-001 
-1.763345e-001 
-1.634681e-001 
-1.662478e-001 
-1.658322e-001 
-1.600342e-001 
-1.561899e-001 
-1.554681e-001 
-1.570251e-001 
-1.557730e-001 
-1.552658e-001 
-1.577095e-001 
-1.588356e-001 
-1.578645e-001 
-1.579229e-001 
-1.575315e-001 
-1.518770e-001 
-1.434501e-001 
-1.355640e-001 
-1.295019e-001 
-1.226649e-001 
-1.156085e-001 
-1.069686e-001 
-9.888054e-002 
-8.727541e-002 
-7.447834e-002 
-6.565956e-002 
-6.035301e-002 
-5.386691e-002 
-4.751777e-002 
-4.148437e-002 
-3.554927e-002 
-2.925950e-002 
-2.146792e-002 
-1.912168e-002 
-2.146727e-002 
-2.404871e-002 
-2.353764e-002 
-2.574295e-002 
-2.773952e-002 
-2.604182e-002 
-2.048906e-002 
-1.824487e-002 
-2.035864e-002 
-2.304946e-002 
-2.241232e-002 
-2.103123e-002 
-2.128438e-002 
-1.797147e-002 
-1.379852e-002 
-1.268504e-002 
-1.741214e-002 
-2.272937e-002 
-2.500365e-002 
-2.494966e-002 
-2.742042e-002 
-2.774776e-002 
-2.642877e-002 
-2.724595e-002 
-3.154723e-002 
-3.651996e-002 
-3.606904e-002 
-2.967044e-002 
-2.455181e-002 
-2.084122e-002 
-1.373971e-002 
-6.266121e-003 
-1.911200e-003 
5.765608e-004 
7.103354e-003 
1.747442e-002 
2.558455e-002 
2.557055e-002 
2.313297e-002 
2.068773e-002 
1.635975e-002 
7.716954e-003 
8.303895e-004 
-4.208276e-003 
-1.176579e-002 
-2.327604e-002 
-3.735607e-002 
-4.968978e-002 
-5.884513e-002 
-6.802152e-002 
-7.503523e-002 
-6.960310e-002 
-2.986615e-002 
7.259460e-002 
1.967377e-001 
2.528030e-001 
2.277790e-001 
1.942209e-001 
1.853495e-001 
1.917921e-001 
2.170292e-001 
2.876750e-001 
3.656630e-001 
3.383220e-001 
1.981168e-001 
9.033753e-002 
8.636155e-002 
1.076535e-001 
1.032289e-001 
8.268670e-002 
4.038349e-002 
-5.972057e-002 
-2.010404e-001 
-3.000852e-001 
-3.058617e-001 
-2.738282e-001 
-2.636572e-001 
-2.655724e-001 
-2.661607e-001 
-2.683881e-001 
-2.711910e-001 
-2.740515e-001 
-2.781798e-001 
-2.805024e-001 
-2.856990e-001 
-2.900516e-001 
-2.926504e-001 
-3.002601e-001 
-3.070845e-001 
-3.079709e-001 
-3.059117e-001 
-3.014335e-001 
-2.961661e-001 
-2.912836e-001 
-2.843436e-001 
-2.811049e-001 
-2.769534e-001 
-2.663063e-001 
-2.552345e-001 
-2.454253e-001 
-2.370849e-001 
-2.294657e-001 
-2.207740e-001 
-2.123021e-001 
-2.047580e-001 
-1.953465e-001 
-1.861902e-001 
-1.807164e-001 
-1.774500e-001 
-1.757347e-001 
-1.737216e-001 
-1.715916e-001 
-1.708531e-001 
-1.714366e-001 
-1.691616e-001 
-1.634852e-001 
-1.602543e-001 
-1.572542e-001 
-1.518699e-001 
-1.464790e-001 
-1.443714e-001 
-1.428562e-001 
-1.411158e-001 
-1.381078e-001 
-1.366761e-001 
-1.386578e-001 
-1.377063e-001 
-1.357456e-001 
-1.378915e-001 
-1.415288e-001 
-1.422023e-001 
-1.433804e-001 
-1.450669e-001 
-1.457646e-001 
-1.430179e-001 
-1.374293e-001 
-1.332151e-001 
-1.312826e-001 
-1.272729e-001 
-1.190652e-001 
-1.106491e-001 
-1.013528e-001 
-9.155478e-002 
-8.388255e-002 
-7.907311e-002 
-7.833859e-002 
-8.147019e-002 
-8.231870e-002 
-8.254262e-002 
-8.441998e-002 
-8.693354e-002 
-9.161428e-002 
-9.896998e-002 
-1.082601e-001 
-1.188200e-001 
-1.265061e-001 
-1.304631e-001 
-1.331650e-001 
-1.317036e-001 
-1.075220e-001 
-2.576211e-002 
1.097439e-001 
2.184911e-001 
2.366283e-001 
1.987880e-001 
1.739391e-001 
1.755764e-001 
1.916787e-001 
2.468922e-001 
3.422785e-001 
3.831807e-001 
2.870248e-001 
1.386727e-001 
7.661752e-002 
9.984042e-002 
1.192682e-001 
1.088349e-001 
8.259671e-002 
1.293655e-002 
-1.219631e-001 
-2.617207e-001 
-3.174874e-001 
-2.901430e-001 
-2.536974e-001 
-2.465285e-001 
-2.492935e-001 
-2.472093e-001 
-2.479894e-001 
-2.513262e-001 
-2.551142e-001 
-2.570852e-001 
-2.570986e-001 
-2.599696e-001 
-2.659619e-001 
-2.703774e-001 
-2.741373e-001 
-2.788311e-001 
-2.797965e-001 
-2.751467e-001 
-2.668079e-001 
-2.589196e-001 
-2.530358e-001 
-2.464498e-001 
-2.379293e-001 
-2.296608e-001 
-2.194730e-001 
-2.041847e-001 
-1.880650e-001 
-1.767927e-001 
-1.665359e-001 
-1.565566e-001 
-1.455456e-001 
-1.354178e-001 
-1.266381e-001 
-1.142566e-001 
-1.020979e-001 
-9.910840e-002 
-9.879790e-002 
-9.563877e-002 
-9.363489e-002 
-9.167235e-002 
-9.022466e-002 
-8.521424e-002 
-7.641041e-002 
-7.259035e-002 
-7.268695e-002 
-6.821629e-002 
-6.319890e-002 
-5.989737e-002 
-5.827469e-002 
-5.488965e-002 
-4.887904e-002 
-4.578776e-002 
-4.730296e-002 
-4.745917e-002 
-4.674267e-002 
-4.623713e-002 
-4.516884e-002 
-4.216724e-002 
-3.499510e-002 
-2.861324e-002 
-2.447387e-002 
-1.758941e-002 
-6.913528e-003 
3.201837e-003 
1.504089e-002 
2.548269e-002 
3.393882e-002 
3.859805e-002 
3.746591e-002 
3.401085e-002 
3.377416e-002 
3.273916e-002 
3.055920e-002 
2.650456e-002 
1.865773e-002 
1.014568e-002 
-1.325593e-003 
-1.314570e-002 
-2.065443e-002 
-2.506707e-002 
-2.846912e-002 
-2.341575e-002 
9.660231e-003 
1.077957e-001 
2.433447e-001 
3.283561e-001 
3.241167e-001 
2.887662e-001 
2.764684e-001 
2.839288e-001 
3.080555e-001 
3.736061e-001 
4.622107e-001 
4.667044e-001 
3.443722e-001 
2.113007e-001 
1.822120e-001 
2.072416e-001 
2.142075e-001 
1.969604e-001 
1.570859e-001 
6.654023e-002 
-7.439606e-002 
-1.954302e-001 
-2.244338e-001 
-1.901172e-001 
-1.666436e-001 
-1.643484e-001 
-1.676701e-001 
-1.687430e-001 
-1.687404e-001 
-1.687604e-001 
-1.705791e-001 
-1.695667e-001 
-1.704368e-001 
-1.741156e-001 
-1.785664e-001 
-1.816536e-001 
-1.838405e-001 
-1.822480e-001 
-1.760692e-001 
-1.692277e-001 
-1.629028e-001 
-1.577769e-001 
-1.526989e-001 
-1.462616e-001 
-1.373440e-001 
-1.275282e-001 
-1.139687e-001 
-1.021299e-001 
-9.495155e-002 
-8.710931e-002 
-7.929502e-002 
-7.335480e-002 
-6.431740e-002 
-5.501317e-002 
-4.634110e-002 
-3.968146e-002 
-3.937493e-002 
-3.888129e-002 
-3.653427e-002 
-3.718990e-002 
-3.569293e-002 
-3.108215e-002 
-2.692723e-002 
-2.272656e-002 
-2.076904e-002 
-1.681153e-002 
-1.159550e-002 
-8.680266e-003 
-6.048136e-003 
-5.430826e-004 
3.987114e-003 
6.561991e-003 
7.370279e-003 
9.201956e-003 
1.107325e-002 
8.800430e-003 
7.038722e-003 
6.749165e-003 
8.734771e-003 
8.413790e-003 
6.973018e-003 
8.371370e-003 
1.244662e-002 
1.551925e-002 
2.053382e-002 
2.734657e-002 
3.629203e-002 
4.861261e-002 
5.879319e-002 
6.781623e-002 
7.558358e-002 
8.098242e-002 
8.349641e-002 
8.352163e-002 
8.109305e-002 
8.198294e-002 
8.320545e-002 
7.715211e-002 
6.648535e-002 
5.533487e-002 
4.393032e-002 
3.187705e-002 
2.077991e-002 
1.322035e-002 
8.700482e-003 
1.454086e-003 
-2.180815e-003 
1.906410e-002 
9.770983e-002 
2.295009e-001 
3.305636e-001 
3.420560e-001 
3.094528e-001 
2.898113e-001 
2.898385e-001 
3.064345e-001 
3.573224e-001 
4.461275e-001 
4.781732e-001 
3.758988e-001 
2.381051e-001 
1.903582e-001 
2.072861e-001 
2.164272e-001 
2.031809e-001 
1.713448e-001 
9.753521e-002 
-3.490129e-002 
-1.615434e-001 
-2.042775e-001 
-1.795842e-001 
-1.567547e-001 
-1.521988e-001 
-1.536222e-001 
-1.555238e-001 
-1.549211e-001 
-1.524863e-001 
-1.511736e-001 
-1.526804e-001 
-1.583510e-001 
-1.626744e-001 
-1.638994e-001 
-1.676245e-001 
-1.669433e-001 
-1.636704e-001 
-1.609526e-001 
-1.545453e-001 
-1.482871e-001 
-1.437707e-001 
-1.354451e-001 
-1.282564e-001 
-1.185118e-001 
-1.068063e-001 
-9.915970e-002 
-9.025871e-002 
-8.004263e-002 
-7.381987e-002 
-6.713337e-002 
-5.912837e-002 
-5.119074e-002 
-4.376870e-002 
-3.914337e-002 
-3.587454e-002 
-3.421616e-002 
-3.500778e-002 
-3.569069e-002 
-3.493358e-002 
-3.395981e-002 
-3.227680e-002 
-3.069766e-002 
-2.785739e-002 
-2.540169e-002 
-2.304416e-002 
-1.982101e-002 
-1.389208e-002 
-9.211944e-003 
-7.010573e-003 
-5.281854e-003 
-5.210158e-003 
-5.378122e-003 
-4.490583e-003 
-5.289676e-003 
-4.821233e-003 
-3.719521e-003 
-6.812943e-003 
-1.008342e-002 
-1.340108e-002 
-1.733108e-002 
-1.851744e-002 
-1.915433e-002 
-1.718395e-002 
-1.090880e-002 
-7.155005e-003 
-3.041126e-003 
2.610489e-003 
9.494095e-003 
1.908204e-002 
2.785815e-002 
3.598120e-002 
4.703371e-002 
5.052253e-002 
4.771022e-002 
4.414199e-002 
3.888737e-002 
3.738540e-002 
3.446092e-002 
2.726388e-002 
2.123718e-002 
1.254257e-002 
-2.441442e-003 
-1.553298e-002 
-2.838888e-002 
-3.635746e-002 
-4.020330e-002 
-4.240109e-002 
-2.388993e-002 
4.965276e-002 
1.769659e-001 
2.826971e-001 
3.018855e-001 
2.644744e-001 
2.407761e-001 
2.396770e-001 
2.544049e-001 
3.053228e-001 
3.939310e-001 
4.353282e-001 
3.474980e-001 
2.033937e-001 
1.373875e-001 
1.536412e-001 
1.720739e-001 
1.683710e-001 
1.434570e-001 
7.562755e-002 
-5.040346e-002 
-1.832021e-001 
-2.402860e-001 
-2.167798e-001 
-1.804111e-001 
-1.646091e-001 
-1.623866e-001 
-1.625026e-001 
-1.624338e-001 
-1.617227e-001 
-1.621140e-001 
-1.603414e-001 
-1.566233e-001 
-1.543450e-001 
-1.557136e-001 
-1.596756e-001 
-1.612738e-001 
-1.618002e-001 
-1.583100e-001 
-1.519730e-001 
-1.409467e-001 
-1.326101e-001 
-1.289774e-001 
-1.256942e-001 
-1.171541e-001 
-1.057463e-001 
-9.487756e-002 
-8.328288e-002 
-6.993320e-002 
-5.867161e-002 
-5.464668e-002 
-5.025844e-002 
-4.094260e-002 
-2.850138e-002 
-2.019219e-002 
-1.536086e-002 
-9.583006e-003 
-4.626363e-003 
-5.918044e-003 
-8.894040e-003 
-6.924781e-003 
-1.959783e-003 
1.646125e-003 
4.049665e-003 
7.951212e-003 
1.348632e-002 
1.748492e-002 
1.829545e-002 
2.046552e-002 
2.392948e-002 
2.774529e-002 
3.135928e-002 
3.486812e-002 
3.631892e-002 
3.697503e-002 
3.670437e-002 
3.664185e-002 
3.631530e-002 
3.694090e-002 
3.897974e-002 
4.027950e-002 
4.030873e-002 
3.840833e-002 
3.942178e-002 
4.593050e-002 
5.381886e-002 
6.016432e-002 
6.871537e-002 
7.978377e-002 
9.041218e-002 
9.855733e-002 
1.062034e-001 
1.162164e-001 
1.257070e-001 
1.261281e-001 
1.243494e-001 
1.248230e-001 
1.240542e-001 
1.204951e-001 
1.145326e-001 
1.079113e-001 
1.026261e-001 
9.253477e-002 
7.943259e-002 
7.260032e-002 
6.498185e-002 
5.726602e-002 
5.218578e-002 
6.006679e-002 
1.124461e-001 
2.260099e-001 
3.408451e-001 
3.864651e-001 
3.628949e-001 
3.332279e-001 
3.284231e-001 
3.358385e-001 
3.698486e-001 
4.482183e-001 
5.138249e-001 
4.658633e-001 
3.311854e-001 
2.421650e-001 
2.452420e-001 
2.632348e-001 
2.587220e-001 
2.397003e-001 
1.925854e-001 
8.798844e-002 
-4.819763e-002 
-1.293482e-001 
-1.255695e-001 
-9.506869e-002 
-8.447175e-002 
-8.288919e-002 
-8.216532e-002 
-8.158741e-002 
-8.377339e-002 
-8.526974e-002 
-8.613207e-002 
-8.827916e-002 
-9.112006e-002 
-9.319982e-002 
-9.460724e-002 
-9.624632e-002 
-9.741207e-002 
-9.694825e-002 
-9.305015e-002 
-8.748485e-002 
-8.069321e-002 
-7.563298e-002 
-6.875557e-002 
-5.899134e-002 
-5.056790e-002 
-4.480464e-002 
-3.899039e-002 
-2.918965e-002 
-1.841518e-002 
-1.188599e-002 
-5.650505e-003 
4.882985e-003 
1.267293e-002 
1.567630e-002 
1.752271e-002 
2.055140e-002 
2.419388e-002 
2.459561e-002 
2.368360e-002 
2.549725e-002 
2.659151e-002 
2.444469e-002 
2.484257e-002 
2.882210e-002 
3.340497e-002 
3.876692e-002 
4.373079e-002 
4.711892e-002 
4.895904e-002 
4.945888e-002 
4.966725e-002 
5.430489e-002 
5.827217e-002 
5.952146e-002 
6.122645e-002 
6.192022e-002 
6.055046e-002 
5.995913e-002 
5.952817e-002 
6.041476e-002 
6.339299e-002 
6.181717e-002 
6.117422e-002 
6.418985e-002 
6.796645e-002 
7.183440e-002 
7.791154e-002 
8.428457e-002 
9.382774e-002 
1.030076e-001 
1.120123e-001 
1.242240e-001 
1.331679e-001 
1.371565e-001 
1.380748e-001 
1.386167e-001 
1.386775e-001 
1.383731e-001 
1.355068e-001 
1.338251e-001 
1.283252e-001 
1.181434e-001 
1.077901e-001 
9.906549e-002 
9.313276e-002 
8.728655e-002 
8.212622e-002 
7.971689e-002 
9.267352e-002 
1.557144e-001 
2.824115e-001 
4.050914e-001 
4.500671e-001 
4.193308e-001 
3.852994e-001 
3.791971e-001 
3.874431e-001 
4.307826e-001 
5.215200e-001 
5.825472e-001 
5.187438e-001 
3.719343e-001 
2.784517e-001 
2.859332e-001 
3.078675e-001 
3.039030e-001 
2.821754e-001 
2.226634e-001 
9.881990e-002 
-4.809584e-002 
-1.283384e-001 
-1.170817e-001 
-8.195325e-002 
-7.239526e-002 
-7.277742e-002 
-7.456635e-002 
-7.589646e-002 
-7.694262e-002 
-7.751341e-002 
-7.750460e-002 
-7.981364e-002 
-8.624629e-002 
-8.989585e-002 
-9.258672e-002 
-9.637426e-002 
-9.810666e-002 
-9.569622e-002 
-9.185665e-002 
-8.599108e-002 
-7.965100e-002 
-7.387399e-002 
-6.754831e-002 
-6.094244e-002 
-5.209329e-002 
-4.193098e-002 
-3.155903e-002 
-2.165540e-002 
-1.259979e-002 
-6.773099e-003 
-1.043672e-003 
6.052818e-003 
1.535472e-002 
2.436473e-002 
3.079313e-002 
3.501373e-002 
3.881452e-002 
3.831013e-002 
3.403050e-002 
3.619102e-002 
4.060368e-002 
4.399866e-002 
4.831603e-002 
5.222218e-002 
5.708286e-002 
6.163366e-002 
6.240818e-002 
6.688667e-002 
7.509438e-002 
7.815192e-002 
8.026141e-002 
8.193432e-002 
8.252245e-002 
8.303952e-002 
8.264257e-002 
8.313919e-002 
8.435332e-002 
8.395998e-002 
8.265379e-002 
8.191394e-002 
7.981420e-002 
7.776964e-002 
7.758907e-002 
7.808262e-002 
8.009909e-002 
8.444593e-002 
9.165702e-002 
9.903015e-002 
1.063302e-001 
1.144158e-001 
1.248995e-001 
1.355810e-001 
1.401428e-001 
1.461641e-001 
1.534381e-001 
1.546925e-001 
1.503296e-001 
1.469742e-001 
1.441527e-001 
1.410181e-001 
1.315824e-001 
1.193822e-001 
1.143687e-001 
1.053204e-001 
8.922640e-002 
7.564142e-002 
6.816276e-002 
6.049895e-002 
5.389910e-002 
5.674103e-002 
1.046552e-001 
2.197941e-001 
3.467376e-001 
4.087756e-001 
3.889878e-001 
3.548941e-001 
3.464451e-001 
3.508668e-001 
3.804019e-001 
4.596348e-001 
5.374838e-001 
5.092955e-001 
3.735652e-001 
2.600447e-001 
2.542746e-001 
2.783142e-001 
2.765904e-001 
2.616432e-001 
2.175968e-001 
1.135498e-001 
-2.965460e-002 
-1.289669e-001 
-1.371717e-001 
-1.012403e-001 
-8.451981e-002 
-8.177242e-002 
-8.266221e-002 
-8.569329e-002 
-8.571290e-002 
-8.502698e-002 
-8.596803e-002 
-8.978178e-002 
-9.036868e-002 
-9.320951e-002 
-9.851343e-002 
-1.030297e-001 
-1.040577e-001 
-1.015129e-001 
-1.002017e-001 
-9.687411e-002 
-8.978017e-002 
-8.499700e-002 
-8.450219e-002 
-7.963689e-002 
-7.359421e-002 
-6.703991e-002 
-6.302710e-002 
-5.762768e-002 
-4.830054e-002 
-4.174512e-002 
-4.108861e-002 
-3.982502e-002 
-3.512474e-002 
-3.097216e-002 
-2.877571e-002 
-2.877407e-002 
-2.552457e-002 
-2.619974e-002 
-3.168390e-002 
-3.795131e-002 
-3.928405e-002 
-3.779716e-002 
-3.666493e-002 
-3.575742e-002 
-3.310910e-002 
-2.997887e-002 
-2.958209e-002 
-3.033862e-002 
-2.943511e-002 
-2.653701e-002 
-2.614477e-002 
-2.472068e-002 
-2.224037e-002 
-2.138234e-002 
-2.034984e-002 
-2.184629e-002 
-2.515801e-002 
-2.537147e-002 
-2.618436e-002 
-2.750033e-002 
-2.681519e-002 
-2.656890e-002 
-2.783296e-002 
-2.983405e-002 
-3.379929e-002 
-3.333353e-002 
-2.930941e-002 
-2.435209e-002 
-1.936619e-002 
-1.407046e-002 
-7.378658e-003 
-1.227350e-003 
4.487016e-003 
1.298927e-002 
2.349270e-002 
3.193703e-002 
3.854523e-002 
3.953185e-002 
3.974088e-002 
3.977838e-002 
3.771296e-002 
3.468210e-002 
3.214300e-002 
2.762129e-002 
2.133057e-002 
1.173304e-002 
-9.224338e-004 
-1.073119e-002 
-1.879813e-002 
-2.619252e-002 
-3.193607e-002 
-2.886796e-002 
2.153586e-003 
8.502781e-002 
1.932218e-001 
2.534536e-001 
2.409072e-001 
2.101273e-001 
1.985081e-001 
2.012959e-001 
2.211298e-001 
2.770178e-001 
3.451764e-001 
3.359582e-001 
2.237549e-001 
1.197081e-001 
1.035554e-001 
1.229782e-001 
1.268349e-001 
1.121020e-001 
7.453182e-002 
-8.241036e-003 
-1.289934e-001 
-2.221187e-001 
-2.380916e-001 
-2.109314e-001 
-1.927264e-001 
-1.920116e-001 
-1.991148e-001 
-2.042657e-001 
-2.054526e-001 
-2.055133e-001 
-2.083716e-001 
-2.120406e-001 
-2.140851e-001 
-2.157994e-001 
-2.212823e-001 
-2.267811e-001 
-2.277344e-001 
-2.257136e-001 
-2.225976e-001 
-2.164650e-001 
-2.074918e-001 
-2.006681e-001 
-1.949014e-001 
-1.918356e-001 
-1.854796e-001 
-1.757063e-001 
-1.663882e-001 
-1.559903e-001 
-1.428552e-001 
-1.344188e-001 
-1.299098e-001 
-1.263048e-001 
-1.218774e-001 
-1.134908e-001 
-1.067246e-001 
-1.027690e-001 
-9.799545e-002 
-9.540163e-002 
-9.767754e-002 
-9.967952e-002 
-1.006528e-001 
-9.748514e-002 
-9.215173e-002 
-8.530404e-002 
-8.051373e-002 
-7.593760e-002 
-7.430973e-002 
-7.281908e-002 
-6.985808e-002 
-6.528474e-002 
-6.022186e-002 
-5.518100e-002 
-5.126779e-002 
-5.235350e-002 
-5.415687e-002 
-5.541057e-002 
-5.352055e-002 
-5.139868e-002 
-5.056772e-002 
-5.132835e-002 
-5.106902e-002 
-5.211103e-002 
-5.273805e-002 
-5.188763e-002 
-4.786390e-002 
-4.110468e-002 
-3.590445e-002 
-3.190438e-002 
-2.374276e-002 
-1.299093e-002 
-2.407770e-003 
7.392698e-003 
1.288611e-002 
1.956173e-002 
2.351120e-002 
2.067694e-002 
1.891620e-002 
1.907109e-002 
1.552486e-002 
1.123397e-002 
3.995757e-003 
-6.480182e-003 
-1.582574e-002 
-2.818182e-002 
-3.937368e-002 
-4.696414e-002 
-5.557052e-002 
-6.258902e-002 
-6.267568e-002 
-4.011891e-002 
4.468019e-002 
1.756372e-001 
2.574358e-001 
2.460694e-001 
2.092310e-001 
1.988810e-001 
2.028108e-001 
2.180586e-001 
2.745303e-001 
3.651888e-001 
3.786530e-001 
2.536311e-001 
1.231764e-001 
1.066772e-001 
1.333041e-001 
1.351720e-001 
1.199027e-001 
8.858649e-002 
1.118645e-002 
-1.224254e-001 
-2.404885e-001 
-2.604682e-001 
-2.241729e-001 
-2.072807e-001 
-2.081728e-001 
-2.100673e-001 
-2.084404e-001 
-2.062368e-001 
-2.083565e-001 
-2.111486e-001 
-2.104478e-001 
-2.126361e-001 
-2.150600e-001 
-2.171826e-001 
-2.165654e-001 
-2.164678e-001 
-2.181917e-001 
-2.166790e-001 
-2.094897e-001 
-2.017690e-001 
-1.966287e-001 
-1.923245e-001 
-1.867384e-001 
-1.784616e-001 
-1.722883e-001 
-1.638052e-001 
-1.535374e-001 
-1.433540e-001 
-1.355815e-001 
-1.306090e-001 
-1.249050e-001 
-1.171800e-001 
-1.106225e-001 
-1.070787e-001 
-1.029465e-001 
-1.007953e-001 
-9.880944e-002 
-9.827479e-002 
-9.623658e-002 
-9.289575e-002 
-9.109731e-002 
-8.896760e-002 
-8.424327e-002 
-7.795921e-002 
-7.304981e-002 
-6.830680e-002 
-6.340996e-002 
-5.783096e-002 
-5.523557e-002 
-5.400807e-002 
-4.885813e-002 
-4.233674e-002 
-3.926809e-002 
-3.681021e-002 
-3.453718e-002 
-3.340529e-002 
-3.220036e-002 
-3.318859e-002 
-3.360688e-002 
-3.039785e-002 
-3.052985e-002 
-3.281371e-002 
-3.265622e-002 
-3.311569e-002 
-3.173594e-002 
-2.683801e-002 
-2.179041e-002 
-1.518400e-002 
-7.867978e-003 
-3.570084e-003 
4.339637e-003 
1.508512e-002 
2.333209e-002 
3.188625e-002 
3.975615e-002 
4.227198e-002 
4.074212e-002 
3.598230e-002 
3.274463e-002 
3.324255e-002 
2.970726e-002 
2.241109e-002 
1.422163e-002 
3.633217e-003 
-1.150485e-002 
-2.685910e-002 
-3.624699e-002 
-4.014307e-002 
-4.627811e-002 
-4.908822e-002 
-2.892647e-002 
4.667413e-002 
1.717516e-001 
2.619846e-001 
2.663298e-001 
2.352416e-001 
2.190941e-001 
2.173011e-001 
2.290433e-001 
2.776010e-001 
3.644140e-001 
3.921955e-001 
2.866768e-001 
1.520515e-001 
1.111207e-001 
1.284051e-001 
1.315171e-001 
1.167965e-001 
8.876101e-002 
1.784339e-002 
-1.113963e-001 
-2.357119e-001 
-2.758894e-001 
-2.514139e-001 
-2.303229e-001 
-2.269538e-001 
-2.265181e-001 
-2.263056e-001 
-2.246493e-001 
-2.213858e-001 
-2.211348e-001 
-2.236600e-001 
-2.263472e-001 
-2.258057e-001 
-2.246059e-001 
-2.254515e-001 
-2.240708e-001 
-2.183278e-001 
-2.131029e-001 
-2.092499e-001 
-2.044994e-001 
-1.959741e-001 
-1.858511e-001 
-1.776058e-001 
-1.685142e-001 
-1.577596e-001 
-1.475637e-001 
-1.420606e-001 
-1.362036e-001 
-1.267106e-001 
-1.183118e-001 
-1.151092e-001 
-1.088234e-001 
-1.039252e-001 
-1.004453e-001 
-9.865370e-002 
-1.025857e-001 
-1.016267e-001 
-9.983483e-002 
-1.031277e-001 
-1.053638e-001 
-1.028254e-001 
-1.048218e-001 
-1.034712e-001 
-1.028041e-001 
-1.017318e-001 
-9.385658e-002 
-8.850280e-002 
-8.506189e-002 
-8.091887e-002 
-7.656715e-002 
-7.534341e-002 
-7.323303e-002 
-6.976971e-002 
-6.575492e-002 
-6.171782e-002 
-6.090010e-002 
-6.148727e-002 
-6.014283e-002 
-5.855483e-002 
-5.666655e-002 
-4.762900e-002 
-3.604193e-002 
-2.809533e-002 
-1.819685e-002 
-8.431355e-003 
4.350054e-003 
1.653299e-002 
2.492993e-002 
3.569705e-002 
4.545562e-002 
4.727872e-002 
4.628163e-002 
4.582199e-002 
4.571437e-002 
4.541328e-002 
3.950971e-002 
3.130837e-002 
2.264320e-002 
1.111961e-002 
-5.100540e-004 
-1.026561e-002 
-1.894615e-002 
-2.605172e-002 
-2.551577e-002 
1.522198e-002 
1.260748e-001 
2.698894e-001 
3.455182e-001 
3.207329e-001 
2.795779e-001 
2.675893e-001 
2.696051e-001 
2.968348e-001 
3.760720e-001 
4.656327e-001 
4.489329e-001 
2.954863e-001 
1.637085e-001 
1.543331e-001 
1.775889e-001 
1.755383e-001 
1.575615e-001 
1.132663e-001 
6.909844e-003 
-1.515196e-001 
-2.707580e-001 
-2.821865e-001 
-2.476532e-001 
-2.327945e-001 
-2.318780e-001 
-2.314212e-001 
-2.293995e-001 
-2.309262e-001 
-2.318935e-001 
-2.282374e-001 
-2.269861e-001 
-2.321711e-001 
-2.364177e-001 
-2.393766e-001 
-2.402093e-001 
-2.408417e-001 
-2.352007e-001 
-2.168202e-001 
-2.063173e-001 
-2.142451e-001 
-2.215175e-001 
-2.201807e-001 
-2.137613e-001 
-2.042892e-001 
-1.929667e-001 
-1.769473e-001 
-1.689168e-001 
-1.826884e-001 
-1.906780e-001 
-1.811064e-001 
-1.702770e-001 
-1.572349e-001 
-1.461141e-001 
-1.393278e-001 
-1.407877e-001 
-1.536008e-001 
-1.604627e-001 
-1.543915e-001 
-1.456669e-001 
-1.350486e-001 
-1.236613e-001 
-1.189341e-001 
-1.157041e-001 
-1.177079e-001 
-1.142445e-001 
-1.024118e-001 
-9.495964e-002 
-8.689521e-002 
-7.858383e-002 
-7.416138e-002 
-7.434968e-002 
-7.529713e-002 
-7.237671e-002 
-6.625263e-002 
-6.307827e-002 
-6.367151e-002 
-6.274408e-002 
-5.859664e-002 
-5.370775e-002 
-5.021716e-002 
-4.067441e-002 
-3.001019e-002 
-2.186363e-002 
-8.575355e-003 
6.144230e-003 
2.238114e-002 
3.284400e-002 
3.604117e-002 
3.659783e-002 
3.452646e-002 
3.154325e-002 
3.396878e-002 
3.511933e-002 
3.370274e-002 
2.628844e-002 
9.682184e-003 
-3.123135e-003 
-1.572887e-002 
-2.478718e-002 
-2.864808e-002 
-3.545706e-002 
-4.501593e-002 
-4.205958e-002 
2.461737e-003 
1.202552e-001 
2.503773e-001 
2.957351e-001 
2.708129e-001 
2.454892e-001 
2.401391e-001 
2.430704e-001 
2.745189e-001 
3.582802e-001 
4.346072e-001 
3.837556e-001 
2.342417e-001 
1.509814e-001 
1.623181e-001 
1.750112e-001 
1.674780e-001 
1.520369e-001 
1.059008e-001 
-2.369139e-004 
-1.403164e-001 
-2.230179e-001 
-2.144187e-001 
-1.908510e-001 
-1.843731e-001 
-1.792564e-001 
-1.799809e-001 
-1.776152e-001 
-1.735343e-001 
-1.757496e-001 
-1.825961e-001 
-1.907514e-001 
-1.922974e-001 
-1.872170e-001 
-1.938745e-001 
-2.003862e-001 
-1.956464e-001 
-1.916644e-001 
-1.855002e-001 
-1.793582e-001 
-1.702673e-001 
-1.556613e-001 
-1.492083e-001 
-1.459212e-001 
-1.332337e-001 
-1.203041e-001 
-1.116241e-001 
-1.046447e-001 
-1.009436e-001 
-9.425888e-002 
-8.635746e-002 
-7.828836e-002 
-7.022141e-002 
-6.215868e-002 
-5.697776e-002 
-5.878415e-002 
-6.179127e-002 
-6.355444e-002 
-6.506559e-002 
-6.191622e-002 
-5.773263e-002 
-5.666122e-002 
-5.211637e-002 
-5.042437e-002 
-4.815409e-002 
-4.027023e-002 
-3.614568e-002 
-3.187269e-002 
-2.240449e-002 
-1.963512e-002 
-1.713874e-002 
-1.444995e-002 
-1.700982e-002 
-1.566382e-002 
-1.249633e-002 
-1.364442e-002 
-1.046966e-002 
-7.990082e-003 
-7.538062e-003 
2.297234e-003 
5.967344e-003 
3.770824e-003 
1.044813e-002 
2.334931e-002 
3.658717e-002 
5.138489e-002 
6.396666e-002 
7.563995e-002 
8.298324e-002 
7.662120e-002 
7.136836e-002 
7.678459e-002 
8.480665e-002 
8.329983e-002 
7.796163e-002 
7.146609e-002 
5.763005e-002 
4.562180e-002 
3.268776e-002 
2.477779e-002 
2.582966e-002 
2.233881e-002 
1.203650e-002 
3.826250e-002 
1.346148e-001 
2.764636e-001 
3.741275e-001 
3.614975e-001 
3.132924e-001 
2.920045e-001 
2.840552e-001 
2.957290e-001 
3.684326e-001 
4.718782e-001 
4.904166e-001 
3.584953e-001 
2.028092e-001 
1.674320e-001 
1.925141e-001 
1.989722e-001 
1.874624e-001 
1.587345e-001 
7.126663e-002 
-7.939235e-002 
-2.156610e-001 
-2.472910e-001 
-2.061484e-001 
-1.766763e-001 
-1.685589e-001 
-1.661026e-001 
-1.647907e-001 
-1.655074e-001 
-1.663894e-001 
-1.709362e-001 
-1.771435e-001 
-1.822245e-001 
-1.826832e-001 
-1.814659e-001 
-1.799306e-001 
-1.786621e-001 
-1.749161e-001 
-1.713051e-001 
-1.690740e-001 
-1.598555e-001 
-1.488163e-001 
-1.415412e-001 
-1.355211e-001 
-1.268248e-001 
-1.161666e-001 
-1.047443e-001 
-9.429831e-002 
-8.601645e-002 
-7.275943e-002 
-6.547005e-002 
-6.414739e-002 
-5.400061e-002 
-4.119485e-002 
-3.425531e-002 
-2.460543e-002 
-2.640988e-002 
-3.167574e-002 
-2.430908e-002 
-2.722754e-002 
-2.642137e-002 
-1.596597e-002 
-1.169412e-002 
-7.600941e-003 
-2.097500e-003 
-2.913945e-003 
7.496236e-003 
1.701586e-002 
1.992310e-002 
2.958508e-002 
3.674070e-002 
4.204537e-002 
4.516412e-002 
4.591686e-002 
4.770533e-002 
4.898351e-002 
5.223116e-002 
6.278966e-002 
7.228778e-002 
8.259856e-002 
9.146267e-002 
9.782950e-002 
1.122047e-001 
1.273980e-001 
1.386732e-001 
1.506363e-001 
1.571296e-001 
1.553932e-001 
1.513796e-001 
1.445292e-001 
1.423927e-001 
1.463744e-001 
1.418020e-001 
1.311882e-001 
1.232008e-001 
1.096603e-001 
9.535894e-002 
8.477462e-002 
7.375603e-002 
6.888162e-002 
6.152095e-002 
6.395120e-002 
1.342034e-001 
2.831003e-001 
4.206222e-001 
4.592966e-001 
4.233492e-001 
3.996036e-001 
4.001273e-001 
4.038936e-001 
4.542460e-001 
5.641775e-001 
6.313921e-001 
5.431176e-001 
3.689102e-001 
2.865789e-001 
3.077018e-001 
3.225514e-001 
3.142805e-001 
2.938354e-001 
2.210939e-001 
7.525976e-002 
-8.779733e-002 
-1.649702e-001 
-1.430892e-001 
-1.093682e-001 
-1.043368e-001 
-1.096607e-001 
-1.153642e-001 
-1.137827e-001 
-1.083587e-001 
-1.030723e-001 
-1.005259e-001 
-1.010544e-001 
-1.028335e-001 
-1.073518e-001 
-1.142748e-001 
-1.140029e-001 
-1.084079e-001 
-1.067156e-001 
-1.012515e-001 
-9.270432e-002 
-8.601865e-002 
-8.078487e-002 
-7.714474e-002 
-7.200420e-002 
-5.849445e-002 
-4.880168e-002 
-4.218071e-002 
-3.168582e-002 
-2.555482e-002 
-2.271094e-002 
-1.969474e-002 
-1.570559e-002 
-8.375994e-003 
-2.615411e-003 
8.156213e-004 
4.335433e-003 
3.880938e-003 
1.689364e-003 
-1.113022e-004 
-2.675135e-003 
-1.136273e-003 
2.932490e-004 
4.208890e-003 
1.199792e-002 
1.437314e-002 
2.160113e-002 
2.829761e-002 
3.004999e-002 
3.361834e-002 
3.960466e-002 
4.429023e-002 
5.193023e-002 
5.384554e-002 
5.446030e-002 
5.750840e-002 
5.026884e-002 
4.518667e-002 
4.599435e-002 
4.897805e-002 
5.632238e-002 
6.354152e-002 
6.584197e-002 
7.280901e-002 
7.623519e-002 
7.956983e-002 
9.247861e-002 
1.055253e-001 
1.157235e-001 
1.248154e-001 
1.262368e-001 
1.272286e-001 
1.273360e-001 
1.215823e-001 
1.211623e-001 
1.205777e-001 
1.132423e-001 
1.042100e-001 
9.427034e-002 
8.049934e-002 
6.769215e-002 
5.213045e-002 
4.289932e-002 
3.992881e-002 
3.307371e-002 
4.437547e-002 
1.260171e-001 
2.806718e-001 
4.256262e-001 
4.689297e-001 
4.386122e-001 
4.203675e-001 
4.143531e-001 
4.143434e-001 
4.678988e-001 
5.842349e-001 
6.554559e-001 
5.717252e-001 
3.968660e-001 
3.113411e-001 
3.225246e-001 
3.265864e-001 
3.161541e-001 
2.981409e-001 
2.248211e-001 
7.053638e-002 
-1.045125e-001 
-1.952014e-001 
-1.809964e-001 
-1.535194e-001 
-1.507548e-001 
-1.474521e-001 
-1.464789e-001 
-1.512551e-001 
-1.490193e-001 
-1.464152e-001 
-1.485931e-001 
-1.536171e-001 
-1.602285e-001 
-1.609084e-001 
-1.578588e-001 
-1.600198e-001 
-1.587847e-001 
-1.486654e-001 
-1.455279e-001 
-1.438812e-001 
-1.350524e-001 
-1.228696e-001 
-1.151733e-001 
-1.115002e-001 
-1.032594e-001 
-9.075329e-002 
-8.198312e-002 
-7.673200e-002 
-6.464500e-002 
-5.169504e-002 
-4.651717e-002 
-4.566772e-002 
-3.688417e-002 
-2.789516e-002 
-2.764357e-002 
-2.705837e-002 
-2.312736e-002 
-2.447447e-002 
-2.829564e-002 
-3.135665e-002 
-3.180127e-002 
-2.682022e-002 
-2.483554e-002 
-2.348583e-002 
-1.688760e-002 
-1.262202e-002 
-1.239073e-002 
-6.297251e-003 
-3.168009e-003 
-1.715661e-003 
2.421895e-003 
3.681407e-003 
3.658910e-003 
6.514032e-003 
6.714579e-003 
7.312926e-003 
1.242669e-002 
1.134550e-002 
7.289171e-003 
5.763748e-003 
4.640266e-003 
4.401803e-003 
4.322637e-003 
3.342320e-003 
6.478526e-003 
1.105900e-002 
1.316720e-002 
1.837997e-002 
3.044427e-002 
4.008946e-002 
4.786547e-002 
6.092470e-002 
7.448611e-002 
8.480585e-002 
9.384137e-002 
9.537895e-002 
9.306026e-002 
9.142289e-002 
8.658363e-002 
8.680757e-002 
8.827158e-002 
8.195811e-002 
7.369255e-002 
6.366494e-002 
4.347988e-002 
2.883984e-002 
1.885494e-002 
8.388397e-003 
4.120909e-004 
-3.973411e-003 
9.023164e-004 
5.236763e-002 
1.803505e-001 
3.318684e-001 
4.108865e-001 
3.901753e-001 
3.544203e-001 
3.492824e-001 
3.585259e-001 
3.868909e-001 
4.753852e-001 
5.721810e-001 
5.414631e-001 
3.787918e-001 
2.504427e-001 
2.452091e-001 
2.699782e-001 
2.685509e-001 
2.453210e-001 
1.955280e-001 
7.903994e-002 
-9.327636e-002 
-2.161457e-001 
-2.268480e-001 
-1.898661e-001 
-1.717294e-001 
-1.702146e-001 
-1.788096e-001 
-1.810326e-001 
-1.814085e-001 
-1.860534e-001 
-1.867881e-001 
-1.873309e-001 
-1.897613e-001 
-1.908041e-001 
-1.970846e-001 
-2.052378e-001 
-2.055941e-001 
-2.023928e-001 
-1.952204e-001 
-1.840974e-001 
-1.796311e-001 
-1.747001e-001 
-1.657898e-001 
-1.592560e-001 
-1.491687e-001 
-1.346146e-001 
-1.161602e-001 
-9.675564e-002 
-8.387695e-002 
-7.592370e-002 
-6.553132e-002 
-5.314172e-002 
-4.122074e-002 
-3.090611e-002 
-1.859338e-002 
-6.604650e-003 
-3.765442e-003 
-2.542226e-003 
-1.895999e-003 
-2.067267e-003 
1.438631e-003 
5.636625e-003 
1.120315e-002 
1.917617e-002 
1.881744e-002 
1.691109e-002 
2.371591e-002 
2.869269e-002 
2.884598e-002 
3.230624e-002 
4.053055e-002 
4.462715e-002 
4.337638e-002 
4.001875e-002 
4.073626e-002 
4.516430e-002 
4.148601e-002 
3.350521e-002 
3.885968e-002 
4.510319e-002 
4.143618e-002 
3.831887e-002 
3.670084e-002 
3.646557e-002 
3.339616e-002 
2.637561e-002 
3.088802e-002 
4.059084e-002 
4.326200e-002 
4.549407e-002 
4.963508e-002 
5.994640e-002 
7.240687e-002 
7.779197e-002 
9.391962e-002 
1.132052e-001 
1.178889e-001 
1.249684e-001 
1.286431e-001 
1.259142e-001 
1.317277e-001 
1.323911e-001 
1.262650e-001 
1.313543e-001 
1.235558e-001 
1.088603e-001 
1.005456e-001 
8.386407e-002 
7.370051e-002 
7.572552e-002 
6.458460e-002 
5.113280e-002 
5.686178e-002 
9.603842e-002 
2.055616e-001 
3.459439e-001 
4.309811e-001 
4.354617e-001 
4.109695e-001 
3.921853e-001 
3.916082e-001 
4.252423e-001 
5.084054e-001 
5.988522e-001 
5.906839e-001 
4.641787e-001 
3.425654e-001 
3.199168e-001 
3.331435e-001 
3.358367e-001 
3.263334e-001 
2.876352e-001 
1.828226e-001 
2.716038e-002 
-9.501582e-002 
-1.167394e-001 
-8.843126e-002 
-7.792776e-002 
-7.761403e-002 
-7.889948e-002 
-7.613939e-002 
-7.671989e-002 
-7.840442e-002 
-7.372662e-002 
-7.029404e-002 
-7.710397e-002 
-8.784284e-002 
-9.569190e-002 
-9.911868e-002 
-9.883546e-002 
-9.891624e-002 
-9.984101e-002 
-9.923647e-002 
-9.454677e-002 
-9.065608e-002 
-8.878255e-002 
-8.104757e-002 
-7.064353e-002 
-5.924732e-002 
-5.532076e-002 
-5.211468e-002 
-4.108892e-002 
-3.017315e-002 
-2.382418e-002 
-1.335762e-002 
-1.881958e-003 
9.425107e-003 
1.703464e-002 
1.893820e-002 
2.934535e-002 
3.372261e-002 
2.865734e-002 
2.847914e-002 
3.079360e-002 
3.017959e-002 
3.042869e-002 
2.960462e-002 
3.318059e-002 
3.415673e-002 
2.734605e-002 
2.664493e-002 
3.020527e-002 
3.228118e-002 
3.196366e-002 
2.855108e-002 
2.493271e-002 
1.839109e-002 
8.985118e-003 
1.181471e-002 
1.264740e-002 
7.199328e-003 
7.754454e-003 
2.968649e-003 
-9.279012e-003 
-1.598833e-002 
-2.195008e-002 
-1.922467e-002 
-1.528954e-002 
-2.504392e-002 
-2.897047e-002 
-3.056098e-002 
-3.747421e-002 
-3.857552e-002 
-2.986294e-002 
-2.179013e-002 
-1.122442e-002 
-4.018676e-003 
8.244596e-004 
9.830711e-003 
2.156101e-002 
3.313290e-002 
3.892016e-002 
3.929035e-002 
3.511165e-002 
3.265270e-002 
2.868136e-002 
2.369785e-002 
2.399253e-002 
2.380823e-002 
1.030604e-002 
-9.270974e-003 
-2.184297e-002 
-2.828987e-002 
-3.429106e-002 
-3.683871e-002 
-2.039826e-002 
5.376378e-002 
1.869979e-001 
2.894788e-001 
2.994123e-001 
2.692363e-001 
2.536339e-001 
2.506772e-001 
2.713544e-001 
3.213817e-001 
4.151177e-001 
4.607762e-001 
3.519621e-001 
1.982328e-001 
1.502221e-001 
1.668357e-001 
1.747061e-001 
1.693808e-001 
1.314412e-001 
5.727048e-002 
-8.013198e-002 
-2.237714e-001 
-2.733346e-001 
-2.466139e-001 
-2.269796e-001 
-2.281276e-001 
-2.337189e-001 
-2.387846e-001 
-2.367044e-001 
-2.336685e-001 
-2.313625e-001 
-2.368528e-001 
-2.455909e-001 
-2.575244e-001 
-2.647798e-001 
-2.650856e-001 
-2.730660e-001 
-2.849855e-001 
-2.866123e-001 
-2.880045e-001 
-2.878980e-001 
-2.837805e-001 
-2.747806e-001 
-2.583612e-001 
-2.479076e-001 
-2.468803e-001 
-2.362419e-001 
-2.180187e-001 
-2.026592e-001 
-1.856860e-001 
-1.697723e-001 
-1.509339e-001 
-1.349222e-001 
-1.262758e-001 
-1.152994e-001 
-9.949066e-002 
-8.755121e-002 
-7.694617e-002 
-7.396553e-002 
-7.465705e-002 
-7.217484e-002 
-7.148878e-002 
-7.406480e-002 
-7.378266e-002 
-7.089404e-002 
-6.486227e-002 
-6.032050e-002 
-6.248104e-002 
-6.278799e-002 
-6.028632e-002 
-6.151745e-002 
-6.678533e-002 
-6.684472e-002 
-6.489782e-002 
-6.512047e-002 
-7.032763e-002 
-7.542288e-002 
-7.609594e-002 
-7.587785e-002 
-7.950545e-002 
-8.119031e-002 
-7.980421e-002 
-7.970265e-002 
-8.526214e-002 
-8.839573e-002 
-8.084442e-002 
-7.322025e-002 
-6.823919e-002 
-6.144742e-002 
-5.330208e-002 
-4.019906e-002 
-2.938350e-002 
-2.630850e-002 
-1.434264e-002 
-4.038511e-003 
-4.827994e-003 
-1.011498e-002 
-1.790081e-002 
-2.226677e-002 
-2.341030e-002 
-3.636856e-002 
-4.916218e-002 
-5.437213e-002 
-6.691603e-002 
-8.517626e-002 
-1.035053e-001 
-1.138515e-001 
-1.177809e-001 
-1.147424e-001 
-6.737409e-002 
5.164627e-002 
1.729615e-001 
2.027745e-001 
1.644365e-001 
1.393234e-001 
1.408603e-001 
1.466178e-001 
1.816631e-001 
2.701248e-001 
3.437064e-001 
2.823269e-001 
1.274469e-001 
4.860822e-002 
6.584997e-002 
8.270935e-002 
7.353750e-002 
6.155575e-002 
1.385026e-002 
-1.066271e-001 
-2.575455e-001 
-3.351022e-001 
-3.208356e-001 
-2.913503e-001 
-2.879711e-001 
-2.874540e-001 
-2.831873e-001 
-2.945550e-001 
-3.034155e-001 
-3.005831e-001 
-3.008554e-001 
-3.064700e-001 
-3.163421e-001 
-3.282900e-001 
-3.367450e-001 
-3.486917e-001 
-3.606762e-001 
-3.596101e-001 
-3.537203e-001 
-3.469724e-001 
-3.401706e-001 
-3.362726e-001 
-3.267655e-001 
-3.158270e-001 
-3.026190e-001 
-2.913587e-001 
-2.792720e-001 
-2.644864e-001 
-2.498442e-001 
-2.367518e-001 
-2.226334e-001 
-2.049829e-001 
-1.873819e-001 
-1.718744e-001 
-1.642127e-001 
-1.555770e-001 
-1.475364e-001 
-1.414701e-001 
-1.426949e-001 
-1.465061e-001 
-1.475088e-001 
-1.465556e-001 
-1.470031e-001 
-1.469582e-001 
-1.437357e-001 
-1.395680e-001 
-1.389701e-001 
-1.402560e-001 
-1.361286e-001 
-1.301310e-001 
-1.292215e-001 
-1.319386e-001 
-1.338031e-001 
-1.374677e-001 
-1.393266e-001 
-1.370467e-001 
-1.305829e-001 
-1.249834e-001 
-1.221218e-001 
-1.218047e-001 
-1.150353e-001 
-1.074583e-001 
-1.025287e-001 
-9.042340e-002 
-7.528859e-002 
-6.522407e-002 
-5.805496e-002 
-5.057895e-002 
-4.208216e-002 
-3.461100e-002 
-3.664673e-002 
-3.955955e-002 
-3.627747e-002 
-4.055573e-002 
-5.141869e-002 
-5.884588e-002 
-6.837639e-002 
-8.242643e-002 
-9.748542e-002 
-1.119107e-001 
-1.174556e-001 
-1.248320e-001 
-1.390591e-001 
-1.286493e-001 
-6.378352e-002 
4.693480e-002 
1.257641e-001 
1.203966e-001 
8.390962e-002 
6.532119e-002 
5.744905e-002 
6.608679e-002 
1.168004e-001 
2.048498e-001 
2.365378e-001 
1.369815e-001 
1.299553e-002 
-1.853738e-002 
9.441330e-004 
1.019318e-002 
5.987798e-003 
-1.207705e-002 
-7.111941e-002 
-1.854140e-001 
-2.941836e-001 
-3.214169e-001 
-2.895933e-001 
-2.643411e-001 
-2.561307e-001 
-2.553138e-001 
-2.587621e-001 
-2.619120e-001 
-2.625927e-001 
-2.660589e-001 
-2.705812e-001 
-2.770619e-001 
-2.837904e-001 
-2.858439e-001 
-2.943133e-001 
-3.026758e-001 
-3.033159e-001 
-3.015492e-001 
-2.976634e-001 
-2.917508e-001 
-2.889022e-001 
-2.824324e-001 
-2.725586e-001 
-2.648867e-001 
-2.475167e-001 
-2.281400e-001 
-2.111581e-001 
-1.918244e-001 
-1.746785e-001 
-1.603849e-001 
-1.438425e-001 
-1.290163e-001 
-1.165443e-001 
-9.957483e-002 
-8.784783e-002 
-7.759153e-002 
-7.006502e-002 
-6.649455e-002 
-6.337195e-002 
-6.248911e-002 
-6.260369e-002 
-5.879491e-002 
-5.307351e-002 
-5.157313e-002 
-4.828414e-002 
-4.757978e-002 
-4.749330e-002 
-4.614950e-002 
-4.556464e-002 
-4.525512e-002 
-4.282605e-002 
-4.188244e-002 
-4.113039e-002 
-3.699935e-002 
-3.682054e-002 
-3.596182e-002 
-2.990680e-002 
-2.531567e-002 
-1.871109e-002 
-6.233889e-003 
6.461819e-003 
2.016238e-002 
2.961339e-002 
3.162382e-002 
3.383847e-002 
3.642349e-002 
3.591649e-002 
3.434369e-002 
3.374554e-002 
3.151107e-002 
2.405516e-002 
1.506686e-002 
5.302248e-003 
-7.466807e-003 
-1.744294e-002 
-2.805089e-002 
-3.915293e-002 
-4.593691e-002 
-4.914843e-002 
-1.369929e-002 
8.675305e-002 
1.948884e-001 
2.415353e-001 
2.188965e-001 
1.852946e-001 
1.771087e-001 
1.783301e-001 
2.044055e-001 
2.807235e-001 
3.519200e-001 
3.202378e-001 
1.935772e-001 
9.838888e-002 
9.955509e-002 
1.198645e-001 
1.199119e-001 
1.122000e-001 
7.558791e-002 
-1.671153e-002 
-1.453967e-001 
-2.311945e-001 
-2.265826e-001 
-1.918505e-001 
-1.817844e-001 
-1.802343e-001 
-1.795515e-001 
-1.833594e-001 
-1.872389e-001 
-1.881651e-001 
-1.887793e-001 
-1.906443e-001 
-2.008434e-001 
-2.123316e-001 
-2.182343e-001 
-2.226084e-001 
-2.274965e-001 
-2.232117e-001 
-2.181742e-001 
-2.172905e-001 
-2.122771e-001 
-2.089671e-001 
-2.063152e-001 
-1.965489e-001 
-1.805141e-001 
-1.613187e-001 
-1.444300e-001 
-1.342510e-001 
-1.204571e-001 
-1.088564e-001 
-1.021496e-001 
-9.458530e-002 
-7.560923e-002 
-5.478291e-002 
-4.147996e-002 
-3.813640e-002 
-3.586882e-002 
-3.197356e-002 
-3.013439e-002 
-2.662482e-002 
-2.293937e-002 
-1.220961e-002 
-6.961334e-003 
-7.668971e-003 
-1.135601e-002 
-7.474594e-003 
1.711008e-003 
5.461156e-003 
3.218888e-003 
4.884190e-003 
1.334695e-002 
1.471443e-002 
1.258729e-002 
1.493174e-002 
2.337907e-002 
2.592532e-002 
2.195679e-002 
2.733878e-002 
4.542682e-002 
6.110333e-002 
6.772390e-002 
7.325450e-002 
8.045093e-002 
8.213346e-002 
7.889097e-002 
7.889761e-002 
8.844188e-002 
9.315099e-002 
8.831047e-002 
8.078174e-002 
7.207399e-002 
6.317746e-002 
5.517579e-002 
4.987477e-002 
4.699936e-002 
4.505105e-002 
3.724963e-002 
3.875376e-002 
7.144129e-002 
1.548045e-001 
2.511840e-001 
2.934106e-001 
2.755988e-001 
2.541204e-001 
2.511876e-001 
2.560543e-001 
2.812712e-001 
3.398662e-001 
3.954842e-001 
3.628693e-001 
2.528924e-001 
1.792667e-001 
1.818804e-001 
1.912967e-001 
1.853705e-001 
1.691823e-001 
1.262693e-001 
4.342935e-002 
-6.712775e-002 
-1.360103e-001 
-1.347392e-001 
-1.181388e-001 
-1.158924e-001 
-1.152958e-001 
-1.192693e-001 
-1.217586e-001 
-1.199165e-001 
-1.209317e-001 
-1.217778e-001 
-1.259458e-001 
-1.316103e-001 
-1.345321e-001 
-1.393667e-001 
-1.441655e-001 
-1.456191e-001 
-1.439542e-001 
-1.390701e-001 
-1.338387e-001 
-1.282364e-001 
-1.205195e-001 
-1.130614e-001 
-1.070793e-001 
-9.831163e-002 
-8.923045e-002 
-7.811028e-002 
-6.625988e-002 
-6.020209e-002 
-5.324612e-002 
-4.147645e-002 
-3.247296e-002 
-2.278960e-002 
-9.215897e-003 
-5.539572e-004 
8.887217e-003 
1.252887e-002 
7.806071e-003 
1.145532e-002 
1.622727e-002 
1.757586e-002 
2.445307e-002 
3.011734e-002 
3.440835e-002 
4.283900e-002 
4.484914e-002 
4.919367e-002 
6.151588e-002 
6.819185e-002 
7.207433e-002 
7.517850e-002 
7.536380e-002 
7.817591e-002 
8.331760e-002 
8.670031e-002 
9.627918e-002 
1.046595e-001 
1.078958e-001 
1.129429e-001 
1.223103e-001 
1.305645e-001 
1.359444e-001 
1.402930e-001 
1.423668e-001 
1.408157e-001 
1.330561e-001 
1.269671e-001 
1.256457e-001 
1.226334e-001 
1.113241e-001 
9.799642e-002 
8.683232e-002 
7.300614e-002 
5.624420e-002 
4.349316e-002 
3.637644e-002 
2.932932e-002 
2.189948e-002 
2.743048e-002 
8.374799e-002 
1.927818e-001 
2.763937e-001 
2.840345e-001 
2.524721e-001 
2.325346e-001 
2.293376e-001 
2.346327e-001 
2.708045e-001 
3.506055e-001 
3.854449e-001 
3.006096e-001 
1.793109e-001 
1.318773e-001 
1.454474e-001 
1.522680e-001 
1.392793e-001 
1.157722e-001 
5.776940e-002 
-5.593740e-002 
-1.708618e-001 
-2.160050e-001 
-1.981584e-001 
-1.773726e-001 
-1.747508e-001 
-1.765109e-001 
-1.768725e-001 
-1.794970e-001 
-1.814780e-001 
-1.840504e-001 
-1.863238e-001 
-1.888664e-001 
-1.943440e-001 
-1.965012e-001 
-1.954269e-001 
-1.962394e-001 
-1.969843e-001 
-1.899053e-001 
-1.827563e-001 
-1.741225e-001 
-1.663288e-001 
-1.587311e-001 
-1.497717e-001 
-1.394945e-001 
-1.315919e-001 
-1.234274e-001 
-1.134258e-001 
-1.061647e-001 
-9.666156e-002 
-8.873606e-002 
-8.370186e-002 
-7.681223e-002 
-6.832303e-002 
-6.711159e-002 
-6.532925e-002 
-6.336210e-002 
-6.129257e-002 
-5.992875e-002 
-6.372587e-002 
-6.638928e-002 
-6.380726e-002 
-6.244902e-002 
-5.798496e-002 
-5.070241e-002 
-4.633718e-002 
-3.809582e-002 
-3.282065e-002 
-2.916528e-002 
-2.354314e-002 
-1.823580e-002 
-1.379500e-002 
-8.127317e-003 
-4.441893e-003 
2.576726e-003 
1.112683e-002 
1.892846e-002 
3.109357e-002 
4.323346e-002 
5.532253e-002 
6.753918e-002 
7.967640e-002 
8.899193e-002 
9.232144e-002 
9.387110e-002 
9.628065e-002 
9.575226e-002 
9.210841e-002 
8.913216e-002 
8.661927e-002 
8.158248e-002 
7.148759e-002 
6.043349e-002 
5.254469e-002 
4.329174e-002 
3.341872e-002 
2.449023e-002 
1.950883e-002 
3.011423e-002 
8.866311e-002 
2.053817e-001 
3.145416e-001 
3.407185e-001 
3.043920e-001 
2.759767e-001 
2.720998e-001 
2.834913e-001 
3.244134e-001 
4.085904e-001 
4.631820e-001 
3.904559e-001 
2.462710e-001 
1.750567e-001 
1.924926e-001 
2.156758e-001 
2.151878e-001 
1.941514e-001 
1.372874e-001 
2.058456e-002 
-1.132392e-001 
-1.748361e-001 
-1.522409e-001 
-1.143357e-001 
-1.013577e-001 
-1.044838e-001 
-1.113925e-001 
-1.125465e-001 
-1.068384e-001 
-1.021380e-001 
-1.024284e-001 
-1.048348e-001 
-1.099178e-001 
-1.167087e-001 
-1.229111e-001 
-1.238950e-001 
-1.146529e-001 
-1.026808e-001 
-9.882257e-002 
-9.562392e-002 
-9.118669e-002 
-8.363340e-002 
-7.496237e-002 
-6.483634e-002 
-5.367405e-002 
-4.352199e-002 
-3.745301e-002 
-3.277826e-002 
-2.790744e-002 
-2.090087e-002 
-9.846737e-003 
-8.914683e-004 
7.545408e-003 
1.080673e-002 
1.247789e-002 
1.572053e-002 
1.585630e-002 
1.189163e-002 
1.435945e-002 
1.815728e-002 
1.887368e-002 
2.028474e-002 
2.378611e-002 
3.029721e-002 
3.729126e-002 
4.368725e-002 
4.988647e-002 
5.753499e-002 
6.080372e-002 
6.242389e-002 
6.654210e-002 
7.147941e-002 
7.605927e-002 
8.368825e-002 
9.167181e-002 
9.654951e-002 
1.021927e-001 
1.090922e-001 
1.190101e-001 
1.316248e-001 
1.459815e-001 
1.577580e-001 
1.669883e-001 
1.690096e-001 
1.671640e-001 
1.673333e-001 
1.692809e-001 
1.703916e-001 
1.695584e-001 
1.675443e-001 
1.590429e-001 
1.468964e-001 
1.318466e-001 
1.220817e-001 
1.170354e-001 
1.104078e-001 
9.961583e-002 
9.417970e-002 
1.056063e-001 
1.657321e-001 
2.864692e-001 
3.966297e-001 
4.215538e-001 
3.898488e-001 
3.678093e-001 
3.652694e-001 
3.764992e-001 
4.200265e-001 
5.089307e-001 
5.614058e-001 
4.822711e-001 
3.386855e-001 
2.790513e-001 
2.956107e-001 
3.069282e-001 
2.980092e-001 
2.768180e-001 
2.166671e-001 
9.498774e-002 
-3.913607e-002 
-9.872503e-002 
-7.975180e-002 
-5.421080e-002 
-5.026114e-002 
-5.152884e-002 
-4.978581e-002 
-4.820042e-002 
-4.560740e-002 
-4.362824e-002 
-4.335324e-002 
-4.345288e-002 
-4.295891e-002 
-4.279898e-002 
-3.722040e-002 
-3.258601e-002 
-2.730658e-002 
-2.045613e-002 
-1.384073e-002 
-7.158858e-003 
-1.254634e-003 
2.681813e-003 
9.340025e-003 
1.671816e-002 
2.207766e-002 
2.865855e-002 
3.120343e-002 
3.352742e-002 
3.685245e-002 
3.753482e-002 
3.838346e-002 
4.212411e-002 
4.470521e-002 
4.616487e-002 
4.262133e-002 
3.806319e-002 
3.534020e-002 
3.310096e-002 
3.109795e-002 
3.223373e-002 
3.544064e-002 
3.938543e-002 
4.227758e-002 
4.524375e-002 
4.890571e-002 
5.109849e-002 
5.685616e-002 
6.203303e-002 
6.664067e-002 
7.061480e-002 
7.367389e-002 
7.486921e-002 
7.662744e-002 
7.780131e-002 
8.129001e-002 
8.516705e-002 
8.546251e-002 
8.585664e-002 
8.503993e-002 
8.291997e-002 
8.387853e-002 
8.979710e-002 
9.652626e-002 
1.033060e-001 
1.089931e-001 
1.173912e-001 
1.288593e-001 
1.391282e-001 
1.478801e-001 
1.568067e-001 
1.605108e-001 
1.590922e-001 
1.543930e-001 
1.491275e-001 
1.478058e-001 
1.457096e-001 
1.377542e-001 
1.259587e-001 
1.126510e-001 
9.896605e-002 
8.642932e-002 
7.361114e-002 
6.437256e-002 
5.747085e-002 
4.915107e-002 
5.148756e-002 
9.516978e-002 
2.054357e-001 
3.278779e-001 
3.790035e-001 
3.545137e-001 
3.239628e-001 
3.171491e-001 
3.228016e-001 
3.525978e-001 
4.291757e-001 
5.016701e-001 
4.591153e-001 
3.197694e-001 
2.209893e-001 
2.212179e-001 
2.409212e-001 
2.346491e-001 
2.149271e-001 
1.709834e-001 
6.448160e-002 
-7.758655e-002 
-1.656379e-001 
-1.639044e-001 
-1.311061e-001 
-1.211968e-001 
-1.218720e-001 
-1.186884e-001 
-1.193950e-001 
-1.256112e-001 
-1.262918e-001 
-1.240617e-001 
-1.244819e-001 
-1.273411e-001 
-1.270337e-001 
-1.242416e-001 
-1.224777e-001 
-1.248176e-001 
-1.211500e-001 
-1.109742e-001 
-1.046458e-001 
-1.024450e-001 
-9.728050e-002 
-9.059120e-002 
-8.684149e-002 
-8.524798e-002 
-8.057655e-002 
-7.244569e-002 
-6.915388e-002 
-6.926208e-002 
-6.593313e-002 
-6.186381e-002 
-6.221235e-002 
-6.422956e-002 
-6.469505e-002 
-6.296968e-002 
-6.661323e-002 
-7.196446e-002 
-7.295217e-002 
-7.326491e-002 
-7.600971e-002 
-7.733520e-002 
-7.591221e-002 
-7.202731e-002 
-6.883157e-002 
-6.812432e-002 
-6.232774e-002 
-5.559425e-002 
-5.230301e-002 
-5.051611e-002 
-4.877465e-002 
-4.588599e-002 
-4.117686e-002 
-3.949646e-002 
-3.622566e-002 
-3.058538e-002 
-3.070976e-002 
-3.315881e-002 
-3.400289e-002 
-3.374998e-002 
-3.149026e-002 
-3.196692e-002 
-3.341347e-002 
-3.220062e-002 
-3.425298e-002 
-3.789598e-002 
-3.844615e-002 
-3.588913e-002 
-3.511158e-002 
-3.845473e-002 
-4.122415e-002 
-3.705025e-002 
-3.171567e-002 
-2.598901e-002 
-1.894835e-002 
-9.347669e-003 
2.251788e-003 
1.087145e-002 
2.145390e-002 
3.648918e-002 
4.734434e-002 
5.190422e-002 
5.275343e-002 
4.931799e-002 
4.550153e-002 
4.273227e-002 
4.100988e-002 
3.792015e-002 
2.990690e-002 
1.764246e-002 
6.641327e-003 
-6.994273e-003 
-2.169855e-002 
-2.988243e-002 
-3.520574e-002 
-4.251110e-002 
-4.057486e-002 
-4.650506e-004 
9.611533e-002 
2.080670e-001 
2.595347e-001 
2.433044e-001 
2.181328e-001 
2.120342e-001 
2.193200e-001 
2.494684e-001 
3.168268e-001 
3.785600e-001 
3.477851e-001 
2.266058e-001 
1.321432e-001 
1.280392e-001 
1.495020e-001 
1.476953e-001 
1.296375e-001 
8.565613e-002 
-9.407857e-003 
-1.348389e-001 
-2.167112e-001 
-2.188313e-001 
-1.869895e-001 
-1.740919e-001 
-1.746316e-001 
-1.757183e-001 
-1.761139e-001 
-1.760946e-001 
-1.739339e-001 
-1.695980e-001 
-1.695404e-001 
-1.684175e-001 
-1.661213e-001 
-1.652293e-001 
-1.646627e-001 
-1.603920e-001 
-1.535070e-001 
-1.429603e-001 
-1.327008e-001 
-1.230051e-001 
-1.123402e-001 
-1.057679e-001 
-1.002742e-001 
-9.153260e-002 
-7.830995e-002 
-6.834872e-002 
-6.126823e-002 
-5.441266e-002 
-4.780863e-002 
-4.558125e-002 
-4.453310e-002 
-4.168958e-002 
-3.708652e-002 
-3.517580e-002 
-3.898067e-002 
-3.968841e-002 
-3.933067e-002 
-4.154210e-002 
-4.481738e-002 
-4.506780e-002 
-4.276765e-002 
-3.883062e-002 
-3.550280e-002 
-3.045157e-002 
-2.558101e-002 
-2.169191e-002 
-1.747213e-002 
-1.380292e-002 
-7.779693e-003 
-2.797468e-004 
5.343697e-003 
1.004346e-002 
1.344611e-002 
1.485669e-002 
1.926959e-002 
2.177064e-002 
2.461621e-002 
2.923297e-002 
3.118127e-002 
3.197529e-002 
3.398769e-002 
3.393805e-002 
3.591828e-002 
3.864652e-002 
3.947334e-002 
4.325672e-002 
4.482657e-002 
4.474508e-002 
4.824664e-002 
4.975094e-002 
5.253640e-002 
5.926295e-002 
6.595975e-002 
7.584452e-002 
8.710928e-002 
9.638815e-002 
1.076157e-001 
1.205838e-001 
1.301246e-001 
1.394295e-001 
1.443887e-001 
1.460571e-001 
1.455091e-001 
1.429876e-001 
1.394785e-001 
1.367798e-001 
1.340965e-001 
1.278911e-001 
1.173158e-001 
1.046990e-001 
9.319644e-002 
8.015510e-002 
6.836849e-002 
6.024360e-002 
5.993460e-002 
8.126835e-002 
1.555759e-001 
2.835227e-001 
3.932210e-001 
4.180116e-001 
3.839655e-001 
3.589086e-001 
3.589864e-001 
3.724471e-001 
4.196489e-001 
5.051393e-001 
5.422018e-001 
4.507414e-001 
3.040203e-001 
2.316385e-001 
2.408878e-001 
2.529023e-001 
2.386134e-001 
2.064202e-001 
1.309578e-001 
-7.001986e-003 
-1.517575e-001 
-2.180638e-001 
-2.057741e-001 
-1.785439e-001 
-1.714758e-001 
-1.756187e-001 
-1.776643e-001 
-1.788352e-001 
-1.795480e-001 
-1.781001e-001 
-1.748642e-001 
-1.741342e-001 
-1.709479e-001 
-1.714952e-001 
-1.742919e-001 
-1.703597e-001 
-1.663469e-001 
-1.626156e-001 
-1.555616e-001 
-1.480152e-001 
-1.407080e-001 
-1.324079e-001 
-1.292483e-001 
-1.231974e-001 
-1.154236e-001 
-1.108777e-001 
-1.063230e-001 
-1.009883e-001 
-9.613897e-002 
-9.213059e-002 
-9.221208e-002 
-9.371092e-002 
-9.301464e-002 
-9.267834e-002 
-9.241046e-002 
-9.443250e-002 
-9.488941e-002 
-9.566185e-002 
