70
1.8229
529.8571 
1.0071
4.235270e-003 
1.250108e-002 
1.986927e-002 
2.639377e-002 
3.364590e-002 
4.054960e-002 
4.834938e-002 
5.665548e-002 
6.738563e-002 
8.518757e-002 
9.972597e-002 
1.069185e-001 
1.147551e-001 
1.247921e-001 
1.349925e-001 
1.454123e-001 
1.544926e-001 
1.654056e-001 
1.763229e-001 
1.790313e-001 
1.798738e-001 
1.851442e-001 
1.918971e-001 
1.938108e-001 
1.915603e-001 
1.889179e-001 
1.862270e-001 
1.814059e-001 
1.739196e-001 
1.688792e-001 
1.651700e-001 
1.574394e-001 
1.452861e-001 
1.370937e-001 
1.303847e-001 
1.232538e-001 
1.159984e-001 
1.088292e-001 
1.038925e-001 
9.632918e-002 
8.696833e-002 
8.196401e-002 
7.916297e-002 
7.384546e-002 
7.066277e-002 
6.739963e-002 
6.670153e-002 
6.428573e-002 
5.734425e-002 
5.346352e-002 
4.978323e-002 
4.157082e-002 
3.417574e-002 
2.947708e-002 
2.505917e-002 
1.951452e-002 
8.644579e-003 
1.842989e-004 
-4.870987e-003 
-1.326638e-002 
-2.166160e-002 
-2.603229e-002 
-2.674063e-002 
-2.978329e-002 
-3.430170e-002 
-3.326087e-002 
-2.907442e-002 
-2.787707e-002 
-3.019155e-002 
-3.435581e-002 
-3.648258e-002 
-3.947932e-002 
-4.893739e-002 
-5.157729e-002 
-4.989516e-002 
-5.429337e-002 
-6.090140e-002 
-6.725415e-002 
-7.197673e-002 
-7.456747e-002 
-8.065917e-002 
-8.577837e-002 
-8.505093e-002 
-8.438019e-002 
-7.149823e-002 
-4.329955e-002 
-6.297023e-002 
-1.732570e-001 
-2.773728e-001 
-3.370616e-001 
-3.701744e-001 
-3.670656e-001 
-3.373032e-001 
-2.922678e-001 
-2.871763e-001 
-3.896426e-001 
-4.756916e-001 
-4.227693e-001 
-3.504859e-001 
-2.887494e-001 
-2.260152e-001 
-1.946179e-001 
-1.930943e-001 
-2.134169e-001 
-2.111301e-001 
-1.117778e-001 
2.178017e-002 
1.069466e-001 
1.684373e-001 
2.001111e-001 
2.088904e-001 
2.108721e-001 
2.134721e-001 
2.196683e-001 
2.282282e-001 
2.331326e-001 
2.382608e-001 
2.466907e-001 
2.582843e-001 
2.668603e-001 
2.745071e-001 
2.855959e-001 
2.941595e-001 
2.962769e-001 
2.934059e-001 
2.901678e-001 
2.875533e-001 
2.806260e-001 
2.668238e-001 
2.555405e-001 
2.418451e-001 
2.215691e-001 
1.996032e-001 
1.793557e-001 
1.635759e-001 
1.467334e-001 
1.246635e-001 
1.073911e-001 
9.361505e-002 
7.712144e-002 
6.226211e-002 
5.118043e-002 
4.416104e-002 
3.967250e-002 
3.347434e-002 
3.216442e-002 
3.547383e-002 
3.436818e-002 
3.388831e-002 
3.372156e-002 
3.197968e-002 
2.935495e-002 
2.501595e-002 
2.160160e-002 
1.885678e-002 
1.101686e-002 
2.446664e-003 
-2.307615e-003 
-9.042211e-003 
-1.618633e-002 
-2.462460e-002 
-3.292611e-002 
-3.901784e-002 
-4.929577e-002 
-5.921927e-002 
-6.370172e-002 
-6.640676e-002 
-7.099871e-002 
-7.467694e-002 
-7.818365e-002 
-7.860889e-002 
-8.100178e-002 
-8.250650e-002 
-7.603382e-002 
-6.981754e-002 
-6.727982e-002 
-6.761923e-002 
-6.733909e-002 
-6.722674e-002 
-7.019953e-002 
-7.398659e-002 
-6.811022e-002 
-6.373735e-002 
-6.829517e-002 
-7.420227e-002 
-7.899126e-002 
-8.255840e-002 
-8.869125e-002 
-9.639442e-002 
-9.841709e-002 
-9.759393e-002 
-9.789688e-002 
-9.100790e-002 
-8.368862e-002 
-1.255275e-001 
-2.214124e-001 
-3.047735e-001 
-3.564362e-001 
-3.794261e-001 
-3.735536e-001 
-3.511327e-001 
-3.271836e-001 
-3.459576e-001 
-4.259437e-001 
-4.626328e-001 
-4.150547e-001 
-3.544288e-001 
-2.940984e-001 
-2.452299e-001 
-2.217103e-001 
-2.173578e-001 
-2.213963e-001 
-1.898371e-001 
-9.115389e-002 
1.814218e-002 
9.630334e-002 
1.493997e-001 
1.762733e-001 
1.876727e-001 
1.927901e-001 
1.981780e-001 
2.082977e-001 
2.222877e-001 
2.334017e-001 
2.403944e-001 
2.514795e-001 
2.627456e-001 
2.699438e-001 
2.767533e-001 
2.864063e-001 
2.972143e-001 
3.008401e-001 
2.955808e-001 
2.902360e-001 
2.836953e-001 
2.704356e-001 
2.550146e-001 
2.402172e-001 
2.258201e-001 
2.061826e-001 
1.807853e-001 
1.577898e-001 
1.361808e-001 
1.104356e-001 
8.740742e-002 
6.853018e-002 
5.131242e-002 
3.440299e-002 
1.742200e-002 
5.438030e-003 
-3.277938e-003 
-1.392080e-002 
-2.048591e-002 
-1.864802e-002 
-1.663089e-002 
-1.703162e-002 
-1.707265e-002 
-1.452584e-002 
-1.231486e-002 
-1.442116e-002 
-1.748522e-002 
-1.586193e-002 
-1.244836e-002 
-1.527569e-002 
-1.986405e-002 
-2.151515e-002 
-2.496189e-002 
-3.230481e-002 
-4.115845e-002 
-4.807585e-002 
-5.021413e-002 
-5.400874e-002 
-6.183137e-002 
-6.548809e-002 
-6.928893e-002 
-7.707157e-002 
-8.379683e-002 
-8.738902e-002 
-8.774948e-002 
-8.756829e-002 
-9.037274e-002 
-9.303898e-002 
-9.174207e-002 
-8.993453e-002 
-8.875548e-002 
-8.504896e-002 
-8.140297e-002 
-8.268004e-002 
-8.481028e-002 
-8.733366e-002 
-9.088592e-002 
-9.073025e-002 
-9.310672e-002 
-9.912488e-002 
-1.022312e-001 
-1.081009e-001 
-1.153024e-001 
-1.178926e-001 
-1.223558e-001 
-1.273009e-001 
-1.310005e-001 
-1.278216e-001 
-1.090212e-001 
-8.803394e-002 
-1.372341e-001 
-2.439225e-001 
-3.248826e-001 
-3.832357e-001 
-4.178599e-001 
-4.113715e-001 
-3.761183e-001 
-3.381086e-001 
-3.627169e-001 
-4.681708e-001 
-5.008872e-001 
-4.440971e-001 
-3.936293e-001 
-3.318658e-001 
-2.702885e-001 
-2.432659e-001 
-2.487877e-001 
-2.682375e-001 
-2.381272e-001 
-1.292670e-001 
-2.417689e-002 
5.319906e-002 
1.137069e-001 
1.399409e-001 
1.440017e-001 
1.441767e-001 
1.494327e-001 
1.524086e-001 
1.529442e-001 
1.579648e-001 
1.646163e-001 
1.700085e-001 
1.751399e-001 
1.827996e-001 
1.910131e-001 
1.959456e-001 
1.973533e-001 
2.028974e-001 
2.092161e-001 
2.107215e-001 
2.069854e-001 
2.006921e-001 
1.919316e-001 
1.794484e-001 
1.674806e-001 
1.562029e-001 
1.467814e-001 
1.353971e-001 
1.205068e-001 
1.033390e-001 
8.905001e-002 
7.598362e-002 
6.573078e-002 
5.707086e-002 
4.783697e-002 
3.995489e-002 
3.087722e-002 
2.112233e-002 
1.486470e-002 
1.179816e-002 
8.528492e-003 
7.951884e-003 
7.465741e-003 
5.397988e-003 
-8.109471e-004 
-9.766693e-003 
-1.691606e-002 
-2.334690e-002 
-3.149240e-002 
-3.783280e-002 
-4.068693e-002 
-4.672868e-002 
-5.532426e-002 
-6.262899e-002 
-6.686736e-002 
-7.142310e-002 
-7.559407e-002 
-7.625799e-002 
-7.446264e-002 
-7.473102e-002 
-7.925732e-002 
-7.569215e-002 
-6.781105e-002 
-6.616516e-002 
-6.542017e-002 
-6.111781e-002 
-5.885321e-002 
-5.939825e-002 
-6.331812e-002 
-6.464332e-002 
-5.857427e-002 
-6.116489e-002 
-6.921049e-002 
-7.263212e-002 
-7.661359e-002 
-8.169397e-002 
-8.579961e-002 
-8.963286e-002 
-9.066370e-002 
-9.311402e-002 
-9.637413e-002 
-8.219451e-002 
-5.243551e-002 
-4.675846e-002 
-1.302915e-001 
-2.312471e-001 
-2.946859e-001 
-3.419409e-001 
-3.524386e-001 
-3.252312e-001 
-2.810886e-001 
-2.587030e-001 
-3.293593e-001 
-4.286034e-001 
-4.025470e-001 
-3.422835e-001 
-2.886148e-001 
-2.191570e-001 
-1.763907e-001 
-1.724297e-001 
-1.917322e-001 
-2.007080e-001 
-1.298016e-001 
-9.095061e-003 
7.839839e-002 
1.513566e-001 
1.953576e-001 
2.073116e-001 
2.084684e-001 
2.147734e-001 
2.221671e-001 
2.232444e-001 
2.265934e-001 
2.352112e-001 
2.431654e-001 
2.497132e-001 
2.555338e-001 
2.634674e-001 
2.706287e-001 
2.708653e-001 
2.713310e-001 
2.746913e-001 
2.746956e-001 
2.706382e-001 
2.635399e-001 
2.556385e-001 
2.461298e-001 
2.312176e-001 
2.152191e-001 
2.010642e-001 
1.879387e-001 
1.716559e-001 
1.544313e-001 
1.411407e-001 
1.296810e-001 
1.152271e-001 
1.013061e-001 
9.077677e-002 
8.387909e-002 
7.709132e-002 
6.823763e-002 
6.555599e-002 
6.530861e-002 
6.134706e-002 
5.772591e-002 
5.738800e-002 
5.827722e-002 
5.867820e-002 
5.491798e-002 
5.328100e-002 
5.329230e-002 
4.688708e-002 
3.914571e-002 
3.477991e-002 
3.126456e-002 
2.505597e-002 
1.553289e-002 
7.880460e-003 
3.770234e-003 
-4.337096e-003 
-1.474903e-002 
-2.039688e-002 
-2.362148e-002 
-2.928851e-002 
-3.724999e-002 
-4.082953e-002 
-4.090698e-002 
-4.474873e-002 
-4.928219e-002 
-4.651688e-002 
-3.945437e-002 
-3.740403e-002 
-3.932524e-002 
-3.988911e-002 
-4.110732e-002 
-4.568233e-002 
-5.072015e-002 
-5.080750e-002 
-4.496264e-002 
-4.586301e-002 
-5.505335e-002 
-6.035823e-002 
-6.628467e-002 
-7.504392e-002 
-8.035638e-002 
-8.525405e-002 
-8.571796e-002 
-8.831071e-002 
-8.876801e-002 
-6.917225e-002 
-4.854400e-002 
-1.162454e-001 
-2.410431e-001 
-3.255710e-001 
-3.758131e-001 
-3.919005e-001 
-3.756139e-001 
-3.370830e-001 
-2.982825e-001 
-3.400640e-001 
-4.657083e-001 
-4.870886e-001 
-4.074108e-001 
-3.356953e-001 
-2.620970e-001 
-2.088294e-001 
-1.935535e-001 
-2.042452e-001 
-2.228429e-001 
-1.761976e-001 
-3.969710e-002 
8.094428e-002 
1.608930e-001 
2.131959e-001 
2.297809e-001 
2.325547e-001 
2.375071e-001 
2.476435e-001 
2.592431e-001 
2.683726e-001 
2.764683e-001 
2.870092e-001 
2.991740e-001 
3.091140e-001 
3.173163e-001 
3.278140e-001 
3.390844e-001 
3.470049e-001 
3.479426e-001 
3.483510e-001 
3.469493e-001 
3.378103e-001 
3.241809e-001 
3.110370e-001 
2.998575e-001 
2.841766e-001 
2.615190e-001 
2.384565e-001 
2.183716e-001 
1.940105e-001 
1.698038e-001 
1.504591e-001 
1.359063e-001 
1.203328e-001 
1.015221e-001 
8.728360e-002 
7.732738e-002 
6.693995e-002 
5.773422e-002 
5.524376e-002 
5.639926e-002 
5.635537e-002 
5.356426e-002 
5.434502e-002 
5.439559e-002 
4.890725e-002 
4.279000e-002 
3.947131e-002 
3.828054e-002 
3.201392e-002 
2.231530e-002 
1.785300e-002 
1.207496e-002 
-1.339033e-003 
-1.239119e-002 
-1.984135e-002 
-2.558035e-002 
-3.344138e-002 
-4.429203e-002 
-4.842947e-002 
-5.031909e-002 
-6.028216e-002 
-6.812579e-002 
-6.992162e-002 
-7.180602e-002 
-7.355682e-002 
-7.654764e-002 
-7.467233e-002 
-6.937199e-002 
-7.267440e-002 
-7.600809e-002 
-6.966376e-002 
-6.485040e-002 
-6.230441e-002 
-6.200136e-002 
-6.212218e-002 
-5.909237e-002 
-6.308818e-002 
-7.104495e-002 
-6.810788e-002 
-6.390470e-002 
-6.847276e-002 
-7.421598e-002 
-7.936919e-002 
-8.318940e-002 
-8.679730e-002 
-9.387443e-002 
-9.697374e-002 
-9.544248e-002 
-9.876058e-002 
-9.058309e-002 
-6.480599e-002 
-5.476255e-002 
-1.328814e-001 
-2.444953e-001 
-3.158304e-001 
-3.562166e-001 
-3.635298e-001 
-3.407307e-001 
-3.006543e-001 
-2.765418e-001 
-3.387630e-001 
-4.522209e-001 
-4.472438e-001 
-3.742516e-001 
-3.096600e-001 
-2.454276e-001 
-2.061570e-001 
-2.016474e-001 
-2.203786e-001 
-2.365568e-001 
-1.771121e-001 
-4.551074e-002 
5.640250e-002 
1.239056e-001 
1.623850e-001 
1.732529e-001 
1.726019e-001 
1.737472e-001 
1.831269e-001 
1.959880e-001 
2.076222e-001 
2.152184e-001 
2.234945e-001 
2.350906e-001 
2.436696e-001 
2.481568e-001 
2.570587e-001 
2.666972e-001 
2.733007e-001 
2.733076e-001 
2.690660e-001 
2.649481e-001 
2.561177e-001 
2.413890e-001 
2.252361e-001 
2.124448e-001 
1.964335e-001 
1.759013e-001 
1.538896e-001 
1.332216e-001 
1.096255e-001 
8.599429e-002 
6.513459e-002 
4.789989e-002 
3.313161e-002 
1.485403e-002 
7.297875e-004 
-8.993762e-003 
-2.057363e-002 
-2.990767e-002 
-3.350616e-002 
-3.420886e-002 
-3.326305e-002 
-3.482322e-002 
-3.619803e-002 
-3.449993e-002 
-3.812484e-002 
-4.396593e-002 
-4.710810e-002 
-4.878807e-002 
-5.076448e-002 
-5.657430e-002 
-6.277971e-002 
-6.714780e-002 
-7.456259e-002 
-8.337810e-002 
-8.981867e-002 
-9.310783e-002 
-9.662184e-002 
-1.043833e-001 
-1.106585e-001 
-1.143828e-001 
-1.216891e-001 
-1.275132e-001 
-1.281872e-001 
-1.294938e-001 
-1.295053e-001 
-1.298657e-001 
-1.279254e-001 
-1.235817e-001 
-1.248539e-001 
-1.293419e-001 
-1.281799e-001 
-1.257507e-001 
-1.284408e-001 
-1.283304e-001 
-1.255154e-001 
-1.245839e-001 
-1.286168e-001 
-1.349930e-001 
-1.385815e-001 
-1.356058e-001 
-1.350625e-001 
-1.392977e-001 
-1.384822e-001 
-1.368374e-001 
-1.267524e-001 
-1.041617e-001 
-9.473596e-002 
-1.645585e-001 
-2.544837e-001 
-3.163201e-001 
-3.621310e-001 
-3.721931e-001 
-3.521716e-001 
-3.151421e-001 
-2.910228e-001 
-3.447927e-001 
-4.385550e-001 
-4.218070e-001 
-3.668256e-001 
-3.158239e-001 
-2.522790e-001 
-2.114191e-001 
-2.018047e-001 
-2.112707e-001 
-2.204825e-001 
-1.655901e-001 
-5.110538e-002 
3.472850e-002 
1.013915e-001 
1.418730e-001 
1.569796e-001 
1.638449e-001 
1.689271e-001 
1.706491e-001 
1.768912e-001 
1.859293e-001 
1.894267e-001 
1.943239e-001 
2.025217e-001 
2.105710e-001 
2.180998e-001 
2.221861e-001 
2.286957e-001 
2.385309e-001 
2.411791e-001 
2.414654e-001 
2.416232e-001 
2.383424e-001 
2.328591e-001 
2.250560e-001 
2.157427e-001 
2.075435e-001 
1.937178e-001 
1.783205e-001 
1.642500e-001 
1.506527e-001 
1.399967e-001 
1.300274e-001 
1.196949e-001 
1.089965e-001 
9.617755e-002 
8.383582e-002 
7.535001e-002 
6.933226e-002 
6.611777e-002 
6.413092e-002 
6.248328e-002 
5.989805e-002 
5.711487e-002 
5.650011e-002 
5.636953e-002 
5.666425e-002 
5.619559e-002 
5.185875e-002 
4.716315e-002 
4.110977e-002 
3.300567e-002 
2.802229e-002 
2.418602e-002 
2.066968e-002 
1.783695e-002 
1.276921e-002 
8.565717e-003 
6.496055e-003 
1.507964e-003 
-7.135410e-004 
-7.911703e-004 
1.945354e-003 
7.860615e-003 
9.553980e-003 
1.142980e-002 
1.429944e-002 
1.145148e-002 
7.885793e-003 
8.273995e-003 
8.131578e-003 
1.210878e-002 
1.146140e-002 
5.598505e-003 
2.675650e-003 
-4.299225e-003 
-1.330197e-002 
-1.528404e-002 
-1.595375e-002 
-1.763967e-002 
-1.959716e-002 
-2.038406e-002 
-7.210616e-003 
1.381756e-002 
-1.091727e-002 
-1.092832e-001 
-2.035873e-001 
-2.657047e-001 
-3.065292e-001 
-3.094461e-001 
-2.813753e-001 
-2.442089e-001 
-2.442456e-001 
-3.296249e-001 
-3.988431e-001 
-3.574892e-001 
-2.970213e-001 
-2.363966e-001 
-1.708487e-001 
-1.380753e-001 
-1.367910e-001 
-1.488714e-001 
-1.353300e-001 
-4.332744e-002 
7.613399e-002 
1.646720e-001 
2.333686e-001 
2.659394e-001 
2.732853e-001 
2.781075e-001 
2.847126e-001 
2.910254e-001 
2.965840e-001 
3.039581e-001 
3.141682e-001 
3.207923e-001 
3.270357e-001 
3.384542e-001 
3.505375e-001 
3.596919e-001 
3.668956e-001 
3.726643e-001 
3.734411e-001 
3.676396e-001 
3.577336e-001 
3.493181e-001 
3.413974e-001 
3.281206e-001 
3.112541e-001 
2.946502e-001 
2.742222e-001 
2.474902e-001 
2.219906e-001 
2.017608e-001 
1.856358e-001 
1.683729e-001 
1.494521e-001 
1.350758e-001 
1.214314e-001 
1.047680e-001 
9.196032e-002 
8.630361e-002 
8.556376e-002 
8.533754e-002 
8.263265e-002 
8.302876e-002 
8.505831e-002 
8.155491e-002 
7.739990e-002 
7.629969e-002 
7.517824e-002 
7.271397e-002 
6.569594e-002 
5.820915e-002 
5.290085e-002 
4.449919e-002 
3.351300e-002 
2.549686e-002 
1.930753e-002 
1.179024e-002 
3.139869e-003 
-5.429546e-003 
-1.169337e-002 
-1.855181e-002 
-2.530753e-002 
-3.038139e-002 
-3.320225e-002 
-3.474667e-002 
-3.619348e-002 
-3.358069e-002 
-2.836611e-002 
-2.572353e-002 
-2.457656e-002 
-2.249487e-002 
-2.135876e-002 
-2.052967e-002 
-2.030842e-002 
-1.966543e-002 
-1.690206e-002 
-1.835830e-002 
-2.384806e-002 
-2.830378e-002 
-3.088495e-002 
-3.396584e-002 
-3.681147e-002 
-3.967739e-002 
-4.264668e-002 
-4.809759e-002 
-5.509421e-002 
-4.430432e-002 
-1.774345e-002 
-3.177294e-002 
-1.358754e-001 
-2.417762e-001 
-3.060404e-001 
-3.480651e-001 
-3.545431e-001 
-3.276934e-001 
-2.797900e-001 
-2.707035e-001 
-3.629205e-001 
-4.514849e-001 
-4.096714e-001 
-3.414767e-001 
-2.804704e-001 
-2.125262e-001 
-1.725017e-001 
-1.685541e-001 
-1.892977e-001 
-1.843652e-001 
-9.173771e-002 
3.855479e-002 
1.299094e-001 
1.983125e-001 
2.345193e-001 
2.414876e-001 
2.414472e-001 
2.479186e-001 
2.575021e-001 
2.634758e-001 
2.726349e-001 
2.848715e-001 
2.965298e-001 
3.073187e-001 
3.172343e-001 
3.304473e-001 
3.432077e-001 
3.506465e-001 
3.578359e-001 
3.639305e-001 
3.650363e-001 
3.596229e-001 
3.486352e-001 
3.379254e-001 
3.268044e-001 
3.097058e-001 
2.886693e-001 
2.661775e-001 
2.422344e-001 
2.164734e-001 
1.869856e-001 
1.622108e-001 
1.422582e-001 
1.210751e-001 
9.888418e-002 
7.795225e-002 
6.129686e-002 
4.892334e-002 
3.638266e-002 
2.931307e-002 
2.903603e-002 
2.597634e-002 
2.259089e-002 
2.062976e-002 
2.012023e-002 
2.118860e-002 
1.995169e-002 
1.845841e-002 
1.933410e-002 
1.415942e-002 
5.560149e-003 
8.898541e-004 
-3.645269e-003 
-8.602404e-003 
-1.614553e-002 
-2.591048e-002 
-3.320358e-002 
-4.180404e-002 
-5.432270e-002 
-6.141618e-002 
-6.298949e-002 
-6.768532e-002 
-7.437782e-002 
-8.124852e-002 
-8.527749e-002 
-8.717350e-002 
-9.261653e-002 
-9.418158e-002 
-8.646149e-002 
-8.338599e-002 
-8.618413e-002 
-8.680547e-002 
-8.843838e-002 
-8.912088e-002 
-9.209233e-002 
-9.607715e-002 
-8.978141e-002 
-8.717070e-002 
-9.566034e-002 
-1.000522e-001 
-1.038107e-001 
-1.094185e-001 
-1.107088e-001 
-1.140848e-001 
-1.144804e-001 
-1.121866e-001 
-1.126687e-001 
-9.781882e-002 
-7.078250e-002 
-8.569711e-002 
-1.774858e-001 
-2.659109e-001 
-3.211379e-001 
-3.542776e-001 
-3.518398e-001 
-3.218712e-001 
-2.844696e-001 
-2.840723e-001 
-3.699146e-001 
-4.467948e-001 
-4.073141e-001 
-3.500083e-001 
-2.937345e-001 
-2.329781e-001 
-2.058411e-001 
-2.118743e-001 
-2.304457e-001 
-2.254190e-001 
-1.400564e-001 
-2.455644e-002 
5.478759e-002 
1.198957e-001 
1.502964e-001 
1.533145e-001 
1.530364e-001 
1.578954e-001 
1.656324e-001 
1.714137e-001 
1.742764e-001 
1.820133e-001 
1.891309e-001 
1.896903e-001 
1.925619e-001 
1.987565e-001 
2.063999e-001 
2.125180e-001 
2.132728e-001 
2.151325e-001 
2.167673e-001 
2.103623e-001 
2.013732e-001 
1.946578e-001 
1.884502e-001 
1.801008e-001 
1.674551e-001 
1.545524e-001 
1.438282e-001 
1.282238e-001 
1.109283e-001 
9.847450e-002 
8.985654e-002 
7.914621e-002 
6.630679e-002 
5.557595e-002 
4.600540e-002 
3.515742e-002 
2.525814e-002 
2.122622e-002 
2.229974e-002 
2.318894e-002 
2.159858e-002 
2.128639e-002 
1.962096e-002 
1.434161e-002 
9.926957e-003 
6.951836e-003 
4.594583e-003 
7.077701e-004 
-6.429734e-003 
-1.238222e-002 
-1.944281e-002 
-2.867666e-002 
-3.533996e-002 
-4.017314e-002 
-4.455083e-002 
-4.767321e-002 
-5.125400e-002 
-5.375354e-002 
-5.276597e-002 
-5.255700e-002 
-5.051885e-002 
-4.671274e-002 
-4.429334e-002 
-4.332065e-002 
-4.178744e-002 
-4.042090e-002 
-4.267097e-002 
-4.450160e-002 
-4.517555e-002 
-4.732095e-002 
-5.078110e-002 
-5.549088e-002 
-6.107667e-002 
-6.369288e-002 
-6.999926e-002 
-8.091280e-002 
-8.493178e-002 
-8.669375e-002 
-7.798058e-002 
-5.445612e-002 
-4.197975e-002 
-1.117283e-001 
-2.146755e-001 
-2.864083e-001 
-3.377185e-001 
-3.522627e-001 
-3.291577e-001 
-2.868109e-001 
-2.558206e-001 
-3.026240e-001 
-4.060143e-001 
-4.028393e-001 
-3.437599e-001 
-2.894850e-001 
-2.166482e-001 
-1.635357e-001 
-1.521192e-001 
-1.635146e-001 
-1.773843e-001 
-1.297457e-001 
-1.486711e-002 
7.990947e-002 
1.565456e-001 
2.058379e-001 
2.180322e-001 
2.179880e-001 
2.189268e-001 
2.189431e-001 
2.190770e-001 
2.243474e-001 
2.346361e-001 
2.404581e-001 
2.419585e-001 
2.460553e-001 
2.524214e-001 
2.562306e-001 
2.603624e-001 
2.670733e-001 
2.748476e-001 
2.784542e-001 
2.735784e-001 
2.691501e-001 
2.640616e-001 
2.533685e-001 
2.407918e-001 
2.291505e-001 
2.158454e-001 
2.010783e-001 
1.833738e-001 
1.638348e-001 
1.475091e-001 
1.295714e-001 
1.118720e-001 
9.704404e-002 
8.392490e-002 
7.189291e-002 
6.162232e-002 
5.090154e-002 
4.201850e-002 
3.654138e-002 
3.166151e-002 
2.948934e-002 
3.200434e-002 
3.499195e-002 
3.647604e-002 
3.688538e-002 
3.542385e-002 
3.450309e-002 
3.246065e-002 
3.031141e-002 
3.051457e-002 
3.062214e-002 
2.620838e-002 
2.218807e-002 
1.761498e-002 
1.244282e-002 
8.669081e-003 
4.134463e-003 
-5.610459e-006 
-3.475109e-003 
-8.742521e-003 
-1.286080e-002 
-1.444747e-002 
-1.585254e-002 
-1.332201e-002 
-1.050597e-002 
-1.085843e-002 
-1.146109e-002 
-1.400179e-002 
-1.674266e-002 
-1.884239e-002 
-2.443246e-002 
-2.622611e-002 
-2.656161e-002 
-3.178681e-002 
-3.713102e-002 
-4.271973e-002 
-4.824229e-002 
-5.035739e-002 
-5.638510e-002 
-6.232871e-002 
-6.265128e-002 
-6.125982e-002 
-4.478544e-002 
-1.653648e-002 
-4.091784e-002 
-1.552345e-001 
-2.624462e-001 
-3.269407e-001 
-3.590094e-001 
-3.486918e-001 
-3.137141e-001 
-2.680048e-001 
-2.680528e-001 
-3.749143e-001 
-4.610240e-001 
-4.078598e-001 
-3.328333e-001 
-2.607231e-001 
-1.941162e-001 
-1.676091e-001 
-1.691858e-001 
-1.906362e-001 
-1.850115e-001 
-8.139054e-002 
5.577093e-002 
1.486973e-001 
2.152093e-001 
2.407069e-001 
2.453231e-001 
2.483896e-001 
2.511446e-001 
2.587448e-001 
2.689422e-001 
2.791865e-001 
2.886186e-001 
2.961918e-001 
3.044234e-001 
3.143385e-001 
3.216012e-001 
3.293184e-001 
3.378075e-001 
3.433950e-001 
3.431257e-001 
3.378421e-001 
3.331506e-001 
3.249201e-001 
3.099358e-001 
2.944430e-001 
2.784315e-001 
2.601115e-001 
2.388897e-001 
2.128615e-001 
1.909136e-001 
1.699626e-001 
1.440601e-001 
1.224930e-001 
1.066524e-001 
9.091326e-002 
7.618428e-002 
5.969283e-002 
4.736584e-002 
4.137450e-002 
3.309012e-002 
2.871300e-002 
2.907038e-002 
2.921909e-002 
2.845584e-002 
2.530598e-002 
2.093706e-002 
2.030978e-002 
1.613352e-002 
1.036367e-002 
6.362228e-003 
3.747061e-004 
-5.685522e-003 
-1.411275e-002 
-2.403521e-002 
-3.284401e-002 
-4.225156e-002 
-5.327123e-002 
-6.106023e-002 
-6.830884e-002 
-7.556241e-002 
-8.291338e-002 
-9.048255e-002 
-9.635213e-002 
-1.017677e-001 
-1.067810e-001 
-1.081408e-001 
-1.081101e-001 
-1.090616e-001 
-1.088170e-001 
-1.079397e-001 
-1.079354e-001 
-1.104033e-001 
-1.150047e-001 
-1.170129e-001 
-1.170856e-001 
-1.194593e-001 
-1.197105e-001 
-1.184646e-001 
-1.208749e-001 
-1.260786e-001 
-1.318505e-001 
-1.349254e-001 
-1.330415e-001 
-1.336860e-001 
-1.367597e-001 
-1.363516e-001 
-1.335787e-001 
-1.243822e-001 
-1.142205e-001 
-1.432434e-001 
-2.255781e-001 
-3.068381e-001 
-3.647785e-001 
-3.946048e-001 
-3.919143e-001 
-3.716093e-001 
-3.481900e-001 
-3.590115e-001 
-4.290837e-001 
-4.781616e-001 
-4.463331e-001 
-3.901101e-001 
-3.290031e-001 
-2.777785e-001 
-2.534559e-001 
-2.483488e-001 
-2.504103e-001 
-2.272022e-001 
-1.437049e-001 
-3.752291e-002 
4.482071e-002 
1.018364e-001 
1.281157e-001 
1.381346e-001 
1.461320e-001 
1.531221e-001 
1.584817e-001 
1.664371e-001 
1.766032e-001 
1.847992e-001 
1.916774e-001 
1.999523e-001 
2.104660e-001 
2.213328e-001 
2.279943e-001 
2.335598e-001 
2.381102e-001 
2.377034e-001 
2.325040e-001 
2.247790e-001 
2.161555e-001 
2.038896e-001 
1.842040e-001 
1.620246e-001 
1.412986e-001 
1.145338e-001 
8.600423e-002 
5.933969e-002 
3.487272e-002 
1.280539e-002 
-1.254592e-002 
-3.802813e-002 
-5.643150e-002 
-7.709877e-002 
-9.999078e-002 
-1.131079e-001 
-1.219210e-001 
-1.299151e-001 
-1.369621e-001 
-1.422394e-001 
-1.423559e-001 
-1.427648e-001 
-1.473275e-001 
-1.451415e-001 
-1.388142e-001 
-1.388044e-001 
-1.433212e-001 
-1.440905e-001 
-1.435699e-001 
-1.469990e-001 
-1.522069e-001 
-1.542876e-001 
-1.520548e-001 
-1.547255e-001 
-1.635038e-001 
-1.671139e-001 
-1.664314e-001 
-1.725818e-001 
-1.796887e-001 
-1.820490e-001 
-1.796276e-001 
-1.811134e-001 
-1.865557e-001 
-1.854176e-001 
-1.809909e-001 
-1.821289e-001 
-1.855879e-001 
-1.869958e-001 
-1.838772e-001 
-1.826053e-001 
-1.888713e-001 
-1.858432e-001 
-1.813778e-001 
-1.861263e-001 
-1.894416e-001 
-1.905349e-001 
-1.914758e-001 
-1.896394e-001 
-1.932229e-001 
-1.951421e-001 
-1.921280e-001 
-1.910739e-001 
-1.744325e-001 
-1.438486e-001 
-1.634795e-001 
-2.585017e-001 
-3.435620e-001 
-3.980126e-001 
-4.313802e-001 
-4.307985e-001 
-4.019525e-001 
-3.600848e-001 
-3.598578e-001 
-4.512966e-001 
-5.145485e-001 
-4.652960e-001 
-4.074473e-001 
-3.502595e-001 
-2.902853e-001 
-2.611303e-001 
-2.612050e-001 
-2.780308e-001 
-2.689869e-001 
-1.749823e-001 
-6.040630e-002 
1.555538e-002 
7.466174e-002 
1.033897e-001 
1.112742e-001 
1.150933e-001 
1.175453e-001 
1.223897e-001 
1.289576e-001 
1.300551e-001 
1.310852e-001 
1.366024e-001 
1.457397e-001 
1.536166e-001 
1.589747e-001 
1.679748e-001 
1.786907e-001 
1.837346e-001 
1.852712e-001 
1.870620e-001 
1.906192e-001 
1.903046e-001 
1.838190e-001 
1.812158e-001 
1.769318e-001 
1.651706e-001 
1.521243e-001 
1.406126e-001 
1.304082e-001 
1.202429e-001 
1.069685e-001 
9.585130e-002 
8.592048e-002 
6.922055e-002 
5.679195e-002 
5.035627e-002 
4.497970e-002 
3.988189e-002 
3.488876e-002 
3.292210e-002 
3.296238e-002 
3.113143e-002 
3.040111e-002 
3.570766e-002 
3.886737e-002 
3.874147e-002 
3.623165e-002 
3.571174e-002 
3.593467e-002 
3.188448e-002 
2.794530e-002 
2.630313e-002 
2.458269e-002 
2.000920e-002 
1.337100e-002 
7.637914e-003 
3.906258e-003 
-3.059807e-003 
-9.040518e-003 
-1.121566e-002 
-1.188388e-002 
-1.012151e-002 
-7.804173e-003 
-5.641162e-003 
-3.573854e-003 
-6.865810e-003 
-1.138849e-002 
-1.224187e-002 
-1.345837e-002 
-1.349442e-002 
-1.094236e-002 
-1.022670e-002 
-1.327681e-002 
-1.987955e-002 
-2.751442e-002 
-2.959600e-002 
-2.908054e-002 
-3.244905e-002 
-3.611823e-002 
-3.720327e-002 
-2.931142e-002 
-1.048756e-002 
6.306428e-003 
-5.566446e-002 
-1.688438e-001 
-2.512835e-001 
-3.096256e-001 
-3.320736e-001 
-3.132245e-001 
-2.760107e-001 
-2.437967e-001 
-2.841079e-001 
-4.026331e-001 
-4.248475e-001 
-3.612694e-001 
-2.998819e-001 
-2.288565e-001 
-1.782906e-001 
-1.672399e-001 
-1.803528e-001 
-2.002467e-001 
-1.591781e-001 
-3.616380e-002 
7.693791e-002 
1.585243e-001 
2.086316e-001 
2.255985e-001 
2.322934e-001 
2.395338e-001 
2.492195e-001 
2.560047e-001 
2.644209e-001 
2.755745e-001 
2.832373e-001 
2.937452e-001 
3.075536e-001 
3.211415e-001 
3.330777e-001 
3.407680e-001 
3.464692e-001 
3.527857e-001 
3.524186e-001 
3.491673e-001 
3.439513e-001 
3.340842e-001 
3.215467e-001 
3.068462e-001 
2.903448e-001 
2.735263e-001 
2.520129e-001 
2.255230e-001 
2.037535e-001 
1.835662e-001 
1.630650e-001 
1.435115e-001 
1.269291e-001 
1.106864e-001 
9.338152e-002 
7.559751e-002 
6.510620e-002 
6.285648e-002 
5.978110e-002 
5.645566e-002 
5.518027e-002 
5.508631e-002 
5.258275e-002 
4.944682e-002 
4.859649e-002 
5.089875e-002 
5.026021e-002 
4.593769e-002 
4.262651e-002 
3.959263e-002 
3.500554e-002 
2.883041e-002 
2.329992e-002 
1.836826e-002 
1.283273e-002 
4.494150e-003 
-2.006425e-003 
-7.022428e-003 
-1.473644e-002 
-2.247593e-002 
-2.757402e-002 
-3.084373e-002 
-3.376034e-002 
-3.816171e-002 
-4.030816e-002 
-3.953076e-002 
-4.246398e-002 
-4.223859e-002 
-3.636755e-002 
-3.268606e-002 
-3.292931e-002 
-3.534202e-002 
-3.737808e-002 
-3.579558e-002 
-3.893111e-002 
-4.300918e-002 
-3.850326e-002 
-3.677368e-002 
-4.321735e-002 
-4.934121e-002 
-5.194777e-002 
-5.440035e-002 
-5.920546e-002 
-6.700868e-002 
-7.014965e-002 
-7.163251e-002 
-7.026807e-002 
-5.344590e-002 
-2.474765e-002 
-5.855010e-002 
-1.857367e-001 
-2.930503e-001 
-3.543476e-001 
-3.883408e-001 
-3.825630e-001 
-3.504100e-001 
-3.097402e-001 
-3.217586e-001 
-4.429937e-001 
-5.210406e-001 
-4.559813e-001 
-3.827187e-001 
-3.154904e-001 
-2.525300e-001 
-2.278043e-001 
-2.325438e-001 
-2.563279e-001 
-2.436952e-001 
-1.271921e-001 
1.344767e-002 
1.038941e-001 
1.689003e-001 
1.982064e-001 
2.048630e-001 
2.074316e-001 
2.125956e-001 
2.229311e-001 
2.371806e-001 
2.511219e-001 
2.627678e-001 
2.781287e-001 
2.918578e-001 
3.015519e-001 
3.122476e-001 
3.241159e-001 
3.374068e-001 
3.473057e-001 
3.505756e-001 
3.523371e-001 
3.506796e-001 
3.391612e-001 
3.262592e-001 
3.138168e-001 
3.003098e-001 
2.852880e-001 
2.631783e-001 
2.390609e-001 
2.165528e-001 
1.886015e-001 
1.616005e-001 
1.407109e-001 
1.212871e-001 
1.036313e-001 
8.558549e-002 
6.690090e-002 
5.304241e-002 
4.130996e-002 
3.056017e-002 
2.629904e-002 
2.540964e-002 
2.421366e-002 
2.285349e-002 
2.189434e-002 
2.091065e-002 
1.895034e-002 
1.586017e-002 
1.400342e-002 
1.486218e-002 
1.333151e-002 
7.429738e-003 
2.627004e-003 
-1.060745e-003 
-9.200778e-003 
-1.918340e-002 
-2.495641e-002 
-2.779193e-002 
-3.256479e-002 
-4.136646e-002 
-4.809888e-002 
-5.196372e-002 
-5.717861e-002 
-6.365801e-002 
-6.691967e-002 
-6.514926e-002 
-6.569364e-002 
-7.029963e-002 
-7.254205e-002 
-7.339899e-002 
-7.541713e-002 
-7.640414e-002 
-7.799628e-002 
-7.635094e-002 
-7.087572e-002 
-7.010378e-002 
-6.931246e-002 
-6.891044e-002 
-7.481546e-002 
-8.075690e-002 
-8.541995e-002 
-9.038537e-002 
-9.030471e-002 
-9.228102e-002 
-9.970081e-002 
-1.062441e-001 
-1.148532e-001 
-1.226563e-001 
-1.249152e-001 
-1.256444e-001 
-1.274525e-001 
-1.289299e-001 
-1.276658e-001 
-1.126571e-001 
-8.689135e-002 
-1.008736e-001 
-1.943361e-001 
-2.798711e-001 
-3.322437e-001 
-3.705931e-001 
-3.702583e-001 
-3.395818e-001 
-3.000610e-001 
-2.954266e-001 
-3.808050e-001 
-4.534401e-001 
-4.048488e-001 
-3.485904e-001 
-2.947207e-001 
-2.297175e-001 
-1.989679e-001 
-2.005185e-001 
-2.158667e-001 
-2.091716e-001 
-1.206937e-001 
-4.307131e-003 
7.450633e-002 
1.406899e-001 
1.725140e-001 
1.766358e-001 
1.794921e-001 
1.856891e-001 
1.911488e-001 
1.950386e-001 
1.996829e-001 
2.075300e-001 
2.121505e-001 
2.131169e-001 
2.184470e-001 
2.274754e-001 
2.353216e-001 
2.404542e-001 
2.438019e-001 
2.474101e-001 
2.475436e-001 
2.421085e-001 
2.356694e-001 
2.304529e-001 
2.237839e-001 
2.123799e-001 
1.997187e-001 
1.871008e-001 
1.723489e-001 
1.552464e-001 
1.370605e-001 
1.204094e-001 
1.076202e-001 
9.305072e-002 
7.857170e-002 
6.824597e-002 
5.516000e-002 
4.222306e-002 
3.191179e-002 
2.354685e-002 
1.875141e-002 
1.553984e-002 
1.172818e-002 
1.127193e-002 
8.448490e-003 
2.003255e-003 
-2.318682e-003 
-6.229782e-003 
-1.243484e-002 
-1.888379e-002 
-2.315755e-002 
-2.771109e-002 
-3.502959e-002 
-4.615818e-002 
-5.577906e-002 
-6.125498e-002 
-6.703808e-002 
-7.439935e-002 
-7.634436e-002 
-7.859895e-002 
-8.636606e-002 
-9.357672e-002 
-9.888320e-002 
-9.889063e-002 
-9.630111e-002 
-9.749632e-002 
-9.655257e-002 
-9.104787e-002 
-8.847522e-002 
-8.642516e-002 
-8.164840e-002 
-7.719337e-002 
-7.449649e-002 
-7.474545e-002 
-7.599746e-002 
-7.552560e-002 
-7.309062e-002 
-7.405165e-002 
-7.799889e-002 
-7.973977e-002 
-8.388851e-002 
-8.831335e-002 
-8.840605e-002 
-9.177140e-002 
-9.717489e-002 
-9.714647e-002 
-8.686602e-002 
-6.264636e-002 
-5.333472e-002 
-1.327634e-001 
-2.267841e-001 
-2.862921e-001 
-3.385750e-001 
-3.519997e-001 
-3.267181e-001 
-2.852715e-001 
-2.571423e-001 
-3.161356e-001 
-4.135825e-001 
-3.875689e-001 
-3.315852e-001 
-2.853080e-001 
-2.147848e-001 
-1.664706e-001 
-1.547350e-001 
-1.663089e-001 
-1.785348e-001 
-1.164368e-001 
1.543721e-003 
8.216323e-002 
1.519461e-001 
1.994895e-001 
2.124879e-001 
2.129854e-001 
2.134247e-001 
2.153524e-001 
2.176310e-001 
2.190655e-001 
2.238289e-001 
2.327837e-001 
2.384096e-001 
2.411579e-001 
2.478353e-001 
2.554248e-001 
2.617691e-001 
2.682604e-001 
2.744883e-001 
2.816762e-001 
2.829094e-001 
2.773091e-001 
2.731346e-001 
2.692478e-001 
2.598110e-001 
2.479606e-001 
2.351755e-001 
2.232558e-001 
2.098415e-001 
1.903604e-001 
1.742921e-001 
1.608648e-001 
1.435567e-001 
1.267154e-001 
1.122216e-001 
1.028544e-001 
9.524802e-002 
8.231612e-002 
7.291172e-002 
7.049001e-002 
6.407392e-002 
5.802696e-002 
5.913114e-002 
6.368776e-002 
6.580982e-002 
5.981713e-002 
5.430837e-002 
5.325498e-002 
4.781215e-002 
3.888790e-002 
3.623840e-002 
3.950598e-002 
3.698656e-002 
2.848422e-002 
2.355247e-002 
2.108099e-002 
1.379993e-002 
6.823295e-003 
4.875064e-003 
6.577671e-003 
6.014309e-003 
1.993000e-004 
-1.475013e-003 
-4.752192e-004 
-3.477831e-003 
-3.892362e-003 
3.904357e-003 
1.368194e-002 
1.943368e-002 
1.939357e-002 
1.832932e-002 
1.773084e-002 
1.501206e-002 
1.171645e-002 
1.418705e-002 
2.079811e-002 
2.083995e-002 
1.368797e-002 
7.965070e-003 
3.973324e-003 
-2.465425e-004 
-3.503265e-003 
-7.558866e-003 
-8.215735e-003 
-8.498447e-003 
-3.856302e-004 
2.672662e-002 
2.514281e-002 
-7.241602e-002 
-1.868507e-001 
-2.582158e-001 
-3.080194e-001 
-3.186680e-001 
-2.945146e-001 
-2.491897e-001 
-2.290014e-001 
-3.125397e-001 
-4.195772e-001 
-3.932877e-001 
-3.220041e-001 
-2.629474e-001 
-1.921430e-001 
-1.487064e-001 
-1.448907e-001 
-1.682881e-001 
-1.787363e-001 
-1.008310e-001 
3.469954e-002 
1.334271e-001 
2.060471e-001 
2.509283e-001 
2.614272e-001 
2.612608e-001 
2.658214e-001 
2.755588e-001 
2.860926e-001 
2.964462e-001 
3.066493e-001 
3.180656e-001 
3.318042e-001 
3.436741e-001 
3.573805e-001 
3.721310e-001 
3.848378e-001 
3.939209e-001 
3.983377e-001 
3.987740e-001 
3.954883e-001 
3.872317e-001 
3.738106e-001 
3.588183e-001 
3.427562e-001 
3.236014e-001 
3.007876e-001 
2.774617e-001 
2.521667e-001 
2.245388e-001 
1.983560e-001 
1.731653e-001 
1.516965e-001 
1.330397e-001 
1.133782e-001 
9.777899e-002 
8.454635e-002 
7.056322e-002 
6.230677e-002 
5.936680e-002 
5.777451e-002 
5.892983e-002 
5.885702e-002 
5.861201e-002 
5.912424e-002 
5.564179e-002 
5.138632e-002 
4.985029e-002 
4.886807e-002 
4.712876e-002 
4.284275e-002 
3.910554e-002 
3.496358e-002 
2.723165e-002 
1.938038e-002 
1.271201e-002 
8.873089e-003 
5.539546e-003 
-2.473189e-003 
-9.051147e-003 
-1.221317e-002 
-1.952677e-002 
-2.585906e-002 
-3.030742e-002 
-3.475479e-002 
-3.813643e-002 
-4.350285e-002 
-4.608843e-002 
-4.155844e-002 
-3.965598e-002 
-4.121820e-002 
-3.939206e-002 
-3.871380e-002 
-4.091604e-002 
-4.352004e-002 
-4.370194e-002 
-4.260752e-002 
-4.341164e-002 
-5.013354e-002 
-5.540027e-002 
-5.624567e-002 
-5.991157e-002 
-6.453670e-002 
-6.586728e-002 
-6.936348e-002 
-7.620679e-002 
-8.182227e-002 
-7.745355e-002 
-5.479317e-002 
-3.133626e-002 
-7.255354e-002 
-1.917210e-001 
-2.895078e-001 
-3.510302e-001 
-3.908665e-001 
-3.851254e-001 
-3.476648e-001 
-3.105333e-001 
-3.294865e-001 
-4.402666e-001 
-5.022924e-001 
-4.406065e-001 
-3.806531e-001 
-3.221089e-001 
-2.550770e-001 
-2.282537e-001 
-2.372825e-001 
-2.567686e-001 
-2.363264e-001 
-1.266703e-001 
-1.715181e-003 
8.171404e-002 
1.487288e-001 
1.812747e-001 
1.863470e-001 
1.876733e-001 
1.925452e-001 
1.971196e-001 
2.020551e-001 
2.120898e-001 
2.234297e-001 
2.323212e-001 
2.400123e-001 
2.493396e-001 
2.602932e-001 
2.708697e-001 
2.769644e-001 
2.807645e-001 
2.844733e-001 
2.821472e-001 
2.734778e-001 
2.655149e-001 
2.569667e-001 
2.432730e-001 
2.254545e-001 
2.056142e-001 
1.868542e-001 
1.666212e-001 
1.423458e-001 
1.215753e-001 
1.028374e-001 
7.937724e-002 
5.651132e-002 
4.005161e-002 
2.765744e-002 
1.443795e-002 
1.519479e-003 
-6.077047e-003 
-9.358681e-003 
-1.599388e-002 
-2.051222e-002 
-1.880886e-002 
-1.521297e-002 
-1.624144e-002 
-2.060652e-002 
-2.063396e-002 
-1.876311e-002 
-2.065014e-002 
-2.573432e-002 
-2.905094e-002 
-3.077381e-002 
-3.520708e-002 
-4.395234e-002 
-4.995312e-002 
-5.416700e-002 
-6.190833e-002 
-7.172947e-002 
-7.950798e-002 
-8.224300e-002 
-8.338970e-002 
-8.835978e-002 
-9.171279e-002 
-8.951548e-002 
-8.891528e-002 
-9.227749e-002 
-9.264802e-002 
-9.050219e-002 
-9.002324e-002 
-9.119846e-002 
-9.307135e-002 
-9.145078e-002 
-8.817966e-002 
-9.184719e-002 
-9.714267e-002 
-9.762234e-002 
-1.020103e-001 
-1.061369e-001 
-1.069558e-001 
-1.107862e-001 
-1.164252e-001 
-1.243410e-001 
-1.245365e-001 
-1.052779e-001 
-8.036719e-002 
-1.137332e-001 
-2.077488e-001 
-2.877282e-001 
-3.457918e-001 
-3.866721e-001 
-3.867218e-001 
-3.508366e-001 
-3.099220e-001 
-3.216118e-001 
-4.146768e-001 
-4.603580e-001 
-4.132219e-001 
-3.654402e-001 
-3.119527e-001 
-2.470162e-001 
-2.134276e-001 
-2.179016e-001 
-2.369540e-001 
-2.186053e-001 
-1.248651e-001 
-2.063506e-002 
5.479390e-002 
1.160730e-001 
1.480073e-001 
1.518824e-001 
1.503767e-001 
1.542442e-001 
1.561009e-001 
1.571500e-001 
1.604552e-001 
1.646111e-001 
1.688762e-001 
1.712265e-001 
1.755747e-001 
1.827393e-001 
1.868867e-001 
1.886385e-001 
1.935414e-001 
1.975527e-001 
1.981457e-001 
1.941123e-001 
1.893707e-001 
1.830849e-001 
1.726230e-001 
1.612715e-001 
1.511648e-001 
1.428495e-001 
1.311982e-001 
1.160972e-001 
1.028062e-001 
9.221580e-002 
7.884550e-002 
6.676668e-002 
5.797719e-002 
5.037329e-002 
4.390037e-002 
3.488207e-002 
2.739823e-002 
2.493974e-002 
2.431968e-002 
2.225783e-002 
2.282814e-002 
2.468607e-002 
2.479237e-002 
2.181893e-002 
1.604450e-002 
1.220258e-002 
8.137675e-003 
2.458583e-003 
-4.047476e-003 
-9.715218e-003 
-1.624968e-002 
-2.485322e-002 
-3.419868e-002 
-4.210889e-002 
-4.905455e-002 
-5.634953e-002 
-5.996464e-002 
-5.853733e-002 
-5.512894e-002 
-5.383793e-002 
-4.952565e-002 
-4.518994e-002 
-4.604419e-002 
-4.495123e-002 
-4.418552e-002 
-4.139482e-002 
-3.789039e-002 
-4.158403e-002 
-4.554479e-002 
-4.543866e-002 
-5.412698e-002 
-6.276367e-002 
-6.498861e-002 
-6.959643e-002 
-7.342960e-002 
-8.125038e-002 
-7.641869e-002 
-5.370912e-002 
-4.474780e-002 
-1.275797e-001 
-2.464691e-001 
-3.234707e-001 
-3.752522e-001 
-3.926249e-001 
-3.706773e-001 
-3.265188e-001 
-2.942312e-001 
-3.440645e-001 
-4.590647e-001 
-4.581771e-001 
-3.847139e-001 
-3.210830e-001 
-2.458568e-001 
-1.941960e-001 
-1.837131e-001 
-1.947094e-001 
-2.081630e-001 
-1.535154e-001 
-2.214576e-002 
8.503310e-002 
1.654203e-001 
2.157447e-001 
2.272945e-001 
2.289052e-001 
2.354880e-001 
2.467406e-001 
2.549536e-001 
2.622881e-001 
2.748179e-001 
2.869259e-001 
2.933076e-001 
2.999382e-001 
3.108323e-001 
3.239067e-001 
3.327788e-001 
3.356225e-001 
3.418977e-001 
3.460361e-001 
3.395750e-001 
3.294781e-001 
3.203235e-001 
3.100470e-001 
2.954148e-001 
2.755148e-001 
2.574669e-001 
2.400575e-001 
2.143853e-001 
1.881602e-001 
1.667010e-001 
1.473852e-001 
1.289689e-001 
1.087044e-001 
9.295994e-002 
8.137633e-002 
6.662681e-002 
5.296390e-002 
4.584252e-002 
4.223156e-002 
4.027287e-002 
3.711869e-002 
3.634018e-002 
3.937584e-002 
3.653826e-002 
3.170250e-002 
3.036095e-002 
3.023727e-002 
2.920170e-002 
2.369858e-002 
1.862039e-002 
1.797606e-002 
1.210773e-002 
2.157114e-003 
-3.704345e-003 
-7.662781e-003 
-1.302437e-002 
-2.225491e-002 
-3.030174e-002 
-3.175821e-002 
-3.620899e-002 
-4.370316e-002 
-4.479417e-002 
-3.978337e-002 
-3.350345e-002 
-3.134282e-002 
-2.693693e-002 
-2.095785e-002 
-2.293765e-002 
-2.691434e-002 
-2.610415e-002 
-2.269353e-002 
-1.890276e-002 
-2.084775e-002 
-2.362580e-002 
-2.394308e-002 
-3.373658e-002 
-4.156651e-002 
-4.121244e-002 
-4.334902e-002 
-4.904739e-002 
-5.736305e-002 
-6.298865e-002 
-4.794902e-002 
-2.264334e-002 
-3.255805e-002 
-1.292272e-001 
-2.383493e-001 
-3.063954e-001 
-3.519412e-001 
-3.547314e-001 
-3.195367e-001 
-2.718709e-001 
-2.571581e-001 
-3.405364e-001 
-4.392146e-001 
-4.026776e-001 
-3.300965e-001 
-2.658550e-001 
-1.892193e-001 
-1.494437e-001 
-1.492050e-001 
-1.667560e-001 
-1.673421e-001 
-8.105476e-002 
5.464029e-002 
1.502243e-001 
2.243980e-001 
2.651867e-001 
2.713080e-001 
2.747564e-001 
2.843557e-001 
2.945704e-001 
3.013640e-001 
3.098667e-001 
3.219772e-001 
3.343100e-001 
3.444314e-001 
3.544318e-001 
3.675710e-001 
3.790261e-001 
3.863245e-001 
3.913849e-001 
3.962484e-001 
3.967720e-001 
3.917461e-001 
3.823251e-001 
3.706375e-001 
3.566299e-001 
3.384323e-001 
3.191074e-001 
2.972962e-001 
2.726587e-001 
2.459987e-001 
2.194624e-001 
1.943628e-001 
1.706469e-001 
1.466252e-001 
1.263412e-001 
1.092281e-001 
9.029426e-002 
7.347272e-002 
6.177528e-002 
5.429393e-002 
4.784401e-002 
4.227501e-002 
4.061077e-002 
4.120742e-002 
3.800248e-002 
3.358054e-002 
3.187858e-002 
3.276896e-002 
3.067624e-002 
2.505143e-002 
2.160388e-002 
1.842833e-002 
1.049110e-002 
1.033361e-003 
-5.339088e-003 
-8.770148e-003 
-1.422894e-002 
-2.379231e-002 
-3.094786e-002 
-3.654395e-002 
-4.487085e-002 
-5.269089e-002 
-5.642384e-002 
-5.691210e-002 
-6.053457e-002 
-6.792536e-002 
-6.954903e-002 
-6.915220e-002 
-6.958180e-002 
-6.832517e-002 
-6.669786e-002 
-6.390960e-002 
-6.574507e-002 
-7.393445e-002 
-7.473615e-002 
-7.405902e-002 
-8.016354e-002 
-8.256402e-002 
-8.620586e-002 
-9.221813e-002 
-9.767105e-002 
-1.078194e-001 
-1.128138e-001 
-1.134284e-001 
-1.236595e-001 
-1.335919e-001 
-1.376050e-001 
-1.401096e-001 
-1.264150e-001 
-9.917685e-002 
-1.189186e-001 
-2.222388e-001 
-3.190741e-001 
-3.796478e-001 
-4.133249e-001 
-4.076826e-001 
-3.799706e-001 
-3.381028e-001 
-3.324822e-001 
-4.302495e-001 
-5.095345e-001 
-4.594700e-001 
-3.972467e-001 
-3.340384e-001 
-2.724438e-001 
-2.475474e-001 
-2.450683e-001 
-2.632962e-001 
-2.630767e-001 
-1.711172e-001 
-4.873926e-002 
3.499650e-002 
9.783000e-002 
1.215556e-001 
1.277411e-001 
1.316401e-001 
1.307846e-001 
1.336128e-001 
1.411703e-001 
1.507527e-001 
1.592024e-001 
1.642527e-001 
1.725826e-001 
1.833460e-001 
1.896594e-001 
1.968269e-001 
2.068248e-001 
2.136668e-001 
2.151651e-001 
2.112792e-001 
2.079317e-001 
2.015343e-001 
1.904277e-001 
1.793521e-001 
1.685729e-001 
1.548005e-001 
1.370091e-001 
1.158659e-001 
9.806259e-002 
8.010495e-002 
5.885953e-002 
4.131716e-002 
2.562489e-002 
1.035332e-002 
-4.742936e-003 
-1.785438e-002 
-2.530476e-002 
-2.921026e-002 
-3.543328e-002 
-3.863756e-002 
-3.743899e-002 
-3.506476e-002 
-3.432475e-002 
-3.547063e-002 
-3.373218e-002 
-3.380971e-002 
-3.934779e-002 
-4.455125e-002 
-4.616829e-002 
-4.721895e-002 
-5.243881e-002 
-6.160435e-002 
-6.771718e-002 
-7.292054e-002 
-8.245090e-002 
-9.127375e-002 
-9.619504e-002 
-9.881412e-002 
-1.033736e-001 
-1.107071e-001 
-1.131289e-001 
-1.120084e-001 
-1.103227e-001 
-1.073459e-001 
-1.044430e-001 
-9.936198e-002 
-9.493978e-002 
-9.539246e-002 
-9.422832e-002 
-9.196546e-002 
-9.353116e-002 
-9.315249e-002 
-9.487316e-002 
-9.758802e-002 
-9.941230e-002 
-1.062250e-001 
-1.117435e-001 
-1.141415e-001 
-1.215460e-001 
-1.287686e-001 
-1.326179e-001 
-1.327150e-001 
-1.183044e-001 
-9.674518e-002 
-1.171017e-001 
-2.061708e-001 
-2.940614e-001 
-3.535760e-001 
-3.898429e-001 
-3.890336e-001 
-3.602983e-001 
-3.220573e-001 
-3.206220e-001 
-4.031669e-001 
-4.687829e-001 
-4.307091e-001 
-3.767290e-001 
-3.200205e-001 
-2.583296e-001 
-2.285705e-001 
-2.285501e-001 
-2.458815e-001 
-2.421064e-001 
-1.611001e-001 
-5.374423e-002 
2.338414e-002 
8.226911e-002 
1.089105e-001 
1.133588e-001 
1.142029e-001 
1.126859e-001 
1.135255e-001 
1.171744e-001 
1.208746e-001 
1.237028e-001 
1.255062e-001 
1.295564e-001 
1.358694e-001 
1.388850e-001 
1.421782e-001 
1.501731e-001 
1.566100e-001 
1.583861e-001 
1.571530e-001 
1.573502e-001 
1.552505e-001 
1.465455e-001 
1.360351e-001 
1.279098e-001 
1.186832e-001 
1.057022e-001 
9.101864e-002 
7.974190e-002 
6.889142e-002 
5.302088e-002 
3.832904e-002 
2.770129e-002 
1.787380e-002 
9.086878e-003 
4.418431e-004 
-5.588895e-003 
-9.650327e-003 
-1.617993e-002 
-2.138701e-002 
-2.189175e-002 
-2.114478e-002 
-1.987626e-002 
-1.986945e-002 
-2.141908e-002 
-2.292984e-002 
-2.842048e-002 
-3.519648e-002 
-3.919057e-002 
-4.103662e-002 
-4.428370e-002 
-5.050997e-002 
-5.641033e-002 
-6.080619e-002 
-6.797946e-002 
-7.637283e-002 
-8.101820e-002 
-8.337241e-002 
-8.566318e-002 
-9.032215e-002 
-9.232470e-002 
-9.119126e-002 
-8.908024e-002 
-8.552431e-002 
-8.160163e-002 
-7.769965e-002 
-7.479195e-002 
-7.496882e-002 
-7.576604e-002 
-7.555250e-002 
-7.797703e-002 
-7.745109e-002 
-7.747421e-002 
-8.218319e-002 
-8.554874e-002 
-8.893486e-002 
-9.245906e-002 
-9.420983e-002 
-9.938886e-002 
-1.048456e-001 
-1.055276e-001 
-1.056592e-001 
-8.997888e-002 
-5.768620e-002 
-5.606380e-002 
-1.500032e-001 
-2.630714e-001 
-3.314700e-001 
-3.666070e-001 
-3.599574e-001 
-3.246504e-001 
-2.767532e-001 
-2.546195e-001 
-3.329894e-001 
-4.412597e-001 
-4.110014e-001 
-3.303814e-001 
-2.557397e-001 
-1.831738e-001 
-1.515516e-001 
-1.510829e-001 
-1.661964e-001 
-1.772335e-001 
-1.003741e-001 
4.035371e-002 
1.413088e-001 
2.106896e-001 
2.389880e-001 
2.434863e-001 
2.490151e-001 
2.499816e-001 
2.524916e-001 
2.629297e-001 
2.741720e-001 
2.835901e-001 
2.885269e-001 
2.969826e-001 
3.103388e-001 
3.154284e-001 
3.189959e-001 
3.285684e-001 
3.350618e-001 
3.357861e-001 
3.295448e-001 
3.205381e-001 
3.123160e-001 
2.965368e-001 
2.755685e-001 
2.587826e-001 
2.415999e-001 
2.181629e-001 
1.905748e-001 
1.642520e-001 
1.398076e-001 
1.133474e-001 
8.793774e-002 
6.712229e-002 
5.078788e-002 
3.408586e-002 
1.566715e-002 
2.673304e-003 
-6.041010e-003 
-1.561889e-002 
-2.081860e-002 
-2.036907e-002 
-1.837585e-002 
-1.664168e-002 
-1.899149e-002 
-1.997144e-002 
-2.022650e-002 
-2.443649e-002 
-2.825096e-002 
-2.964178e-002 
-3.062275e-002 
-3.383452e-002 
-4.005008e-002 
-4.530111e-002 
-4.841046e-002 
-5.603125e-002 
-6.274082e-002 
-6.718542e-002 
-7.086156e-002 
-7.538915e-002 
-8.152802e-002 
-8.453664e-002 
-8.561839e-002 
-9.029444e-002 
-9.536765e-002 
-9.438578e-002 
-9.192782e-002 
-8.967247e-002 
-8.919228e-002 
-8.266852e-002 
-7.277697e-002 
-6.889887e-002 
-6.750879e-002 
-6.294770e-002 
-5.864354e-002 
-5.721556e-002 
-5.770714e-002 
-5.773920e-002 
-5.221639e-002 
-5.263750e-002 
-6.010848e-002 
-6.407048e-002 
-6.564000e-002 
-7.003859e-002 
-7.522615e-002 
-7.986458e-002 
-8.358376e-002 
-8.928764e-002 
-9.509786e-002 
-8.196042e-002 
-5.217247e-002 
-6.408876e-002 
-1.676564e-001 
-2.763263e-001 
-3.409697e-001 
-3.876428e-001 
-3.957879e-001 
-3.621370e-001 
-3.139063e-001 
-3.058484e-001 
-3.982729e-001 
-4.910051e-001 
-4.520920e-001 
-3.840505e-001 
-3.260282e-001 
-2.515191e-001 
-2.074739e-001 
-2.088365e-001 
-2.311461e-001 
-2.282049e-001 
-1.372187e-001 
-6.772966e-003 
8.429741e-002 
1.573762e-001 
2.003413e-001 
2.076915e-001 
2.080000e-001 
2.169785e-001 
2.267097e-001 
2.329876e-001 
2.395173e-001 
2.498296e-001 
2.636982e-001 
2.743395e-001 
2.831076e-001 
2.954921e-001 
3.061340e-001 
3.112209e-001 
3.157403e-001 
3.179694e-001 
3.180656e-001 
3.152377e-001 
3.041912e-001 
2.923745e-001 
2.793172e-001 
2.598078e-001 
2.368460e-001 
2.137407e-001 
1.914983e-001 
1.684523e-001 
1.433849e-001 
1.196771e-001 
9.953776e-002 
7.580875e-002 
4.996846e-002 
3.075842e-002 
1.887315e-002 
8.284822e-003 
-1.445081e-003 
-7.047831e-003 
-9.218677e-003 
-1.208141e-002 
-1.709991e-002 
-1.743156e-002 
-1.034042e-002 
-7.956445e-003 
-1.094928e-002 
-1.318820e-002 
-1.564276e-002 
-1.873392e-002 
-2.376813e-002 
-2.901807e-002 
-2.942839e-002 
-3.193432e-002 
-4.200088e-002 
-5.040863e-002 
-5.556257e-002 
-6.161174e-002 
-6.917231e-002 
-7.755104e-002 
-8.331909e-002 
-8.724015e-002 
-9.445762e-002 
-1.008934e-001 
-1.042582e-001 
-1.086067e-001 
-1.131482e-001 
-1.158148e-001 
-1.160708e-001 
-1.125835e-001 
-1.107248e-001 
-1.098994e-001 
-1.097811e-001 
-1.148001e-001 
-1.183126e-001 
-1.176397e-001 
-1.182673e-001 
-1.161074e-001 
-1.150076e-001 
-1.185088e-001 
-1.215763e-001 
-1.283091e-001 
-1.343047e-001 
-1.331959e-001 
-1.318278e-001 
-1.331676e-001 
-1.349173e-001 
-1.356711e-001 
-1.205852e-001 
-9.451543e-002 
-9.245961e-002 
-1.741139e-001 
-2.651194e-001 
-3.207726e-001 
-3.634993e-001 
-3.689499e-001 
-3.388164e-001 
-2.966412e-001 
-2.764549e-001 
-3.421701e-001 
-4.345366e-001 
-4.023757e-001 
-3.425099e-001 
-2.877468e-001 
-2.196753e-001 
-1.821193e-001 
-1.799814e-001 
-1.939173e-001 
-1.998848e-001 
-1.307255e-001 
-1.092215e-002 
7.582084e-002 
1.457159e-001 
1.821054e-001 
1.905426e-001 
1.926694e-001 
1.986871e-001 
2.051785e-001 
2.095316e-001 
2.178901e-001 
2.273662e-001 
2.310181e-001 
2.354011e-001 
2.428988e-001 
2.533172e-001 
2.649047e-001 
2.714077e-001 
2.783001e-001 
2.852715e-001 
2.832410e-001 
2.777269e-001 
2.746572e-001 
2.714353e-001 
2.675524e-001 
2.580843e-001 
2.460619e-001 
2.351372e-001 
2.178777e-001 
1.981923e-001 
1.850264e-001 
1.745558e-001 
1.621887e-001 
1.481828e-001 
1.335146e-001 
1.206918e-001 
1.069743e-001 
9.390263e-002 
8.828549e-002 
8.677982e-002 
8.321385e-002 
8.069145e-002 
8.009198e-002 
7.872274e-002 
7.659257e-002 
7.417539e-002 
7.421000e-002 
7.496793e-002 
7.048326e-002 
6.440047e-002 
6.053174e-002 
5.365412e-002 
4.521358e-002 
3.676247e-002 
2.975422e-002 
2.681373e-002 
2.051507e-002 
1.043305e-002 
5.194845e-003 
5.376488e-004 
-5.807982e-003 
-1.015151e-002 
-1.379761e-002 
-1.070069e-002 
-5.112227e-003 
-6.595693e-003 
-5.356430e-003 
-5.084517e-005 
-7.105411e-004 
-2.846938e-003 
-3.037093e-003 
-2.144002e-003 
2.042079e-003 
2.804837e-003 
-2.056170e-003 
-4.383046e-003 
-8.092203e-003 
-1.519119e-002 
-1.768920e-002 
-1.753003e-002 
-2.097395e-002 
-2.397492e-002 
-2.666871e-002 
-2.349726e-002 
-4.088405e-003 
1.974181e-002 
-2.690124e-002 
-1.343345e-001 
-2.198992e-001 
-2.813849e-001 
-3.077593e-001 
-2.965883e-001 
-2.668491e-001 
-2.310175e-001 
-2.560064e-001 
-3.668394e-001 
-4.040724e-001 
-3.477224e-001 
-2.880257e-001 
-2.188575e-001 
-1.671563e-001 
-1.499583e-001 
-1.551164e-001 
-1.731513e-001 
-1.434061e-001 
-3.118356e-002 
8.167111e-002 
1.625910e-001 
2.150524e-001 
2.343891e-001 
2.417538e-001 
2.474880e-001 
2.538468e-001 
2.588421e-001 
2.650832e-001 
2.714928e-001 
2.735788e-001 
2.790692e-001 
2.882597e-001 
2.980351e-001 
3.069390e-001 
3.120076e-001 
3.176769e-001 
3.233409e-001 
3.237296e-001 
3.223267e-001 
3.206489e-001 
3.157356e-001 
3.076876e-001 
2.948907e-001 
2.804998e-001 
2.665620e-001 
2.489580e-001 
2.292814e-001 
2.111492e-001 
1.958164e-001 
1.793907e-001 
1.606664e-001 
1.454775e-001 
1.337298e-001 
1.193802e-001 
1.052224e-001 
9.513609e-002 
8.948495e-002 
8.420381e-002 
7.677910e-002 
7.408987e-002 
7.513089e-002 
7.310506e-002 
6.920517e-002 
6.740219e-002 
6.754907e-002 
6.561172e-002 
5.938501e-002 
5.490315e-002 
5.139282e-002 
4.476658e-002 
3.679921e-002 
3.020065e-002 
2.594361e-002 
2.212990e-002 
1.473187e-002 
7.193072e-003 
1.630224e-003 
-4.747204e-003 
-1.080536e-002 
-1.555962e-002 
-1.833628e-002 
-2.058325e-002 
-2.348064e-002 
-2.717630e-002 
-2.469239e-002 
-1.888414e-002 
-1.542174e-002 
-1.229126e-002 
-9.585617e-003 
-9.090707e-003 
-9.856126e-003 
-1.056156e-002 
-1.172042e-002 
-9.477979e-003 
-1.099019e-002 
-1.636686e-002 
-1.996892e-002 
-2.474977e-002 
-3.211649e-002 
-3.523232e-002 
-3.892638e-002 
-4.639539e-002 
-5.192611e-002 
-5.583246e-002 
-4.220657e-002 
-1.434107e-002 
-1.205879e-002 
-1.062149e-001 
-2.202444e-001 
-2.927389e-001 
-3.376485e-001 
-3.415761e-001 
-3.104913e-001 
-2.656039e-001 
-2.466927e-001 
-3.221490e-001 
-4.363909e-001 
-4.137876e-001 
-3.399418e-001 
-2.740034e-001 
-2.037383e-001 
-1.650142e-001 
-1.665317e-001 
-1.853613e-001 
-1.947262e-001 
-1.223613e-001 
1.470624e-002 
1.151588e-001 
1.896661e-001 
2.293493e-001 
2.383122e-001 
2.420207e-001 
2.504216e-001 
2.579625e-001 
2.656850e-001 
2.761249e-001 
2.891330e-001 
3.022365e-001 
3.131529e-001 
3.249465e-001 
3.370237e-001 
3.472958e-001 
3.560190e-001 
3.654814e-001 
3.724449e-001 
3.743600e-001 
3.705631e-001 
3.619579e-001 
3.531361e-001 
3.398765e-001 
3.243481e-001 
3.091492e-001 
2.925597e-001 
2.721091e-001 
2.482575e-001 
2.242243e-001 
2.027515e-001 
1.817455e-001 
1.593747e-001 
1.417706e-001 
1.272657e-001 
1.127848e-001 
9.828397e-002 
8.574717e-002 
8.001080e-002 
7.676047e-002 
7.330954e-002 
7.341631e-002 
7.628274e-002 
7.609534e-002 
7.318190e-002 
7.005180e-002 
6.751830e-002 
6.597263e-002 
6.011658e-002 
5.431275e-002 
5.021925e-002 
4.333174e-002 
3.422341e-002 
2.726037e-002 
1.887978e-002 
9.074959e-003 
-5.799661e-005 
-9.693916e-003 
-1.591816e-002 
-2.235119e-002 
-3.014208e-002 
-3.409381e-002 
-3.795676e-002 
-4.608668e-002 
-5.069056e-002 
-5.195900e-002 
-5.196783e-002 
-5.136715e-002 
-5.161794e-002 
-4.960564e-002 
-4.549866e-002 
-4.295276e-002 
-3.958687e-002 
-3.463961e-002 
-2.994272e-002 
-2.852867e-002 
-3.126922e-002 
-3.061761e-002 
-3.101964e-002 
-3.458693e-002 
-3.429210e-002 
-3.533720e-002 
-3.883732e-002 
-4.223356e-002 
-4.910499e-002 
-5.217537e-002 
-5.218911e-002 
-5.843280e-002 
-6.271570e-002 
-6.339454e-002 
-5.605722e-002 
-3.570621e-002 
-1.901875e-002 
-7.576256e-002 
-1.941138e-001 
-2.816918e-001 
-3.389700e-001 
-3.671535e-001 
-3.534372e-001 
-3.173810e-001 
-2.880692e-001 
-3.244642e-001 
-4.409943e-001 
-4.755153e-001 
-4.081644e-001 
-3.495849e-001 
-2.808718e-001 
-2.215212e-001 
-2.048677e-001 
-2.137591e-001 
-2.278134e-001 
-1.886294e-001 
-6.490607e-002 
5.356330e-002 
1.407351e-001 
2.043252e-001 
2.259169e-001 
2.328478e-001 
2.382527e-001 
2.439703e-001 
2.499618e-001 
2.581708e-001 
2.722819e-001 
2.855027e-001 
2.918387e-001 
3.025929e-001 
3.138447e-001 
3.195711e-001 
3.278126e-001 
3.364814e-001 
3.436230e-001 
3.466383e-001 
3.410073e-001 
3.346043e-001 
3.286973e-001 
3.119410e-001 
2.952705e-001 
2.816882e-001 
2.646748e-001 
2.444652e-001 
2.203726e-001 
1.963108e-001 
1.750798e-001 
1.502430e-001 
1.239017e-001 
1.046326e-001 
8.800449e-002 
7.022322e-002 
5.285225e-002 
4.050001e-002 
3.131517e-002 
2.297096e-002 
1.645401e-002 
1.480655e-002 
1.657262e-002 
1.712267e-002 
1.332285e-002 
1.180077e-002 
1.137059e-002 
6.807109e-003 
3.334769e-003 
3.114504e-003 
1.847859e-003 
-2.669410e-003 
-9.110926e-003 
-1.536592e-002 
-1.968161e-002 
-2.817462e-002 
-3.666846e-002 
-4.143894e-002 
-4.626386e-002 
-5.446037e-002 
-6.091964e-002 
-6.388337e-002 
-6.790929e-002 
-7.393473e-002 
-7.974900e-002 
-8.272123e-002 
-8.390313e-002 
-8.617768e-002 
-8.785213e-002 
-8.267302e-002 
-7.868210e-002 
-7.985507e-002 
-8.045470e-002 
-8.039178e-002 
-7.924957e-002 
-7.877262e-002 
-8.354245e-002 
-8.291646e-002 
-7.873160e-002 
-8.567011e-002 
-9.340216e-002 
-9.659809e-002 
-9.893825e-002 
-1.000832e-001 
-1.040595e-001 
-1.073772e-001 
-1.028362e-001 
-1.058246e-001 
-1.066704e-001 
-8.538860e-002 
-5.323677e-002 
-6.787283e-002 
-1.652315e-001 
-2.548176e-001 
-3.079000e-001 
-3.473389e-001 
-3.536079e-001 
-3.210115e-001 
-2.772628e-001 
-2.755270e-001 
-3.700196e-001 
-4.444338e-001 
-3.977128e-001 
-3.467652e-001 
-3.016458e-001 
-2.376899e-001 
-2.004930e-001 
-2.038277e-001 
-2.284048e-001 
-2.265106e-001 
-1.369895e-001 
-2.406462e-002 
5.014458e-002 
1.161989e-001 
1.570812e-001 
1.655264e-001 
1.606826e-001 
1.595845e-001 
1.649225e-001 
1.690779e-001 
1.714554e-001 
1.791498e-001 
1.893095e-001 
1.961466e-001 
1.978245e-001 
2.005182e-001 
2.072084e-001 
2.137924e-001 
2.168518e-001 
2.208718e-001 
2.258047e-001 
2.239644e-001 
2.160492e-001 
2.071477e-001 
1.991301e-001 
1.879643e-001 
1.766774e-001 
1.657850e-001 
1.544163e-001 
1.386151e-001 
1.190792e-001 
1.034457e-001 
9.192711e-002 
7.799316e-002 
6.558324e-002 
5.774470e-002 
4.824910e-002 
3.751898e-002 
2.791073e-002 
2.283382e-002 
2.170419e-002 
1.746380e-002 
1.347174e-002 
1.533047e-002 
1.691207e-002 
1.547200e-002 
1.307035e-002 
1.224360e-002 
1.055964e-002 
3.183850e-003 
-4.958254e-003 
-7.112615e-003 
-8.556653e-003 
-1.290359e-002 
-1.993095e-002 
-2.518451e-002 
-2.787924e-002 
-3.444099e-002 
-4.118958e-002 
-4.237645e-002 
-4.184636e-002 
-4.482077e-002 
-4.766979e-002 
-4.882226e-002 
-4.566104e-002 
-4.201179e-002 
-4.089310e-002 
-3.740903e-002 
-3.259496e-002 
-3.236355e-002 
-3.377061e-002 
-3.122440e-002 
-3.149851e-002 
-3.243398e-002 
-3.536867e-002 
-4.003462e-002 
-4.270646e-002 
-4.741134e-002 
-5.425089e-002 
-5.454722e-002 
-5.596435e-002 
-6.402139e-002 
-7.081739e-002 
-7.527697e-002 
-6.308443e-002 
-3.616162e-002 
-2.899937e-002 
-1.064053e-001 
-2.093114e-001 
-2.803865e-001 
-3.270523e-001 
-3.326348e-001 
-3.022651e-001 
-2.554725e-001 
-2.278597e-001 
-2.872989e-001 
-3.916125e-001 
-3.805751e-001 
-3.165486e-001 
-2.530780e-001 
-1.801128e-001 
-1.367802e-001 
-1.310913e-001 
-1.462114e-001 
-1.592894e-001 
-1.022740e-001 
1.963927e-002 
1.154976e-001 
1.891289e-001 
2.294548e-001 
2.356736e-001 
2.349929e-001 
2.367940e-001 
2.386336e-001 
2.428262e-001 
2.521709e-001 
2.635096e-001 
2.731796e-001 
2.779567e-001 
2.853655e-001 
2.955631e-001 
3.035517e-001 
3.132305e-001 
3.246042e-001 
3.323224e-001 
3.340266e-001 
3.293661e-001 
3.250969e-001 
3.211708e-001 
3.103123e-001 
2.968363e-001 
2.847316e-001 
2.684583e-001 
2.473828e-001 
2.243566e-001 
2.046708e-001 
1.869478e-001 
1.655428e-001 
1.432815e-001 
1.238322e-001 
1.080493e-001 
9.183167e-002 
7.446688e-002 
6.279290e-002 
5.638557e-002 
4.808010e-002 
4.079950e-002 
3.619450e-002 
3.513583e-002 
3.580254e-002 
3.238732e-002 
2.924992e-002 
3.025759e-002 
2.654530e-002 
2.008270e-002 
1.706847e-002 
1.479839e-002 
1.112420e-002 
4.043739e-003 
-3.586953e-003 
-9.064281e-003 
-1.602285e-002 
-2.492897e-002 
-2.940173e-002 
-3.084305e-002 
-3.578859e-002 
-4.399747e-002 
-4.933340e-002 
-5.230977e-002 
-5.732842e-002 
-6.251979e-002 
-6.460799e-002 
-6.362270e-002 
-6.002688e-002 
-5.876006e-002 
-5.543215e-002 
-4.972686e-002 
-4.958556e-002 
-5.293863e-002 
-5.253628e-002 
-5.078013e-002 
-5.099216e-002 
-5.097481e-002 
-5.392941e-002 
-5.779473e-002 
-6.514855e-002 
-7.380435e-002 
-7.887074e-002 
-7.933205e-002 
-8.332950e-002 
-9.084881e-002 
-9.624863e-002 
-1.025343e-001 
-9.476514e-002 
-6.947616e-002 
-5.811810e-002 
-1.366982e-001 
-2.525020e-001 
-3.308886e-001 
-3.826169e-001 
-3.956956e-001 
-3.727318e-001 
-3.288438e-001 
-2.982123e-001 
-3.578429e-001 
-4.753532e-001 
-4.722351e-001 
-3.997579e-001 
-3.355184e-001 
-2.625286e-001 
-2.174748e-001 
-2.075235e-001 
-2.205432e-001 
-2.372989e-001 
-1.789609e-001 
-4.272764e-002 
6.540022e-002 
1.396167e-001 
1.823567e-001 
1.954388e-001 
2.038513e-001 
2.088233e-001 
2.130397e-001 
2.231405e-001 
2.356860e-001 
2.433223e-001 
2.501129e-001 
2.639326e-001 
2.828434e-001 
2.969221e-001 
3.048477e-001 
3.151339e-001 
3.278024e-001 
3.321550e-001 
3.298525e-001 
3.292324e-001 
3.286244e-001 
3.208136e-001 
3.048053e-001 
2.895008e-001 
2.736382e-001 
2.503321e-001 
2.225683e-001 
1.973308e-001 
1.756922e-001 
1.534353e-001 
1.280670e-001 
1.046536e-001 
8.456139e-002 
6.209739e-002 
4.203508e-002 
2.791418e-002 
1.984623e-002 
1.558241e-002 
8.559362e-003 
3.193473e-003 
1.596259e-003 
-6.703757e-004 
-3.206176e-003 
-3.937078e-003 
-3.223926e-003 
-3.813692e-003 
-8.966294e-003 
-1.569363e-002 
-2.159172e-002 
-2.946142e-002 
-3.740459e-002 
-4.389667e-002 
-4.941534e-002 
-5.726632e-002 
-6.862397e-002 
-7.711238e-002 
-8.564911e-002 
-9.621976e-002 
-1.040461e-001 
-1.093058e-001 
-1.138347e-001 
-1.196968e-001 
-1.259474e-001 
-1.291478e-001 
-1.312854e-001 
-1.360638e-001 
-1.386083e-001 
-1.386442e-001 
-1.381505e-001 
-1.395528e-001 
-1.393377e-001 
-1.335084e-001 
-1.308799e-001 
-1.306769e-001 
-1.307230e-001 
-1.322254e-001 
-1.318406e-001 
-1.334264e-001 
-1.380184e-001 
-1.363879e-001 
-1.363591e-001 
-1.430297e-001 
-1.480434e-001 
-1.546325e-001 
-1.576747e-001 
-1.590669e-001 
-1.654407e-001 
-1.684052e-001 
-1.692900e-001 
-1.735871e-001 
-1.621844e-001 
-1.369201e-001 
-1.427913e-001 
-2.357763e-001 
-3.421058e-001 
-4.040897e-001 
-4.452099e-001 
-4.539474e-001 
-4.271281e-001 
-3.811247e-001 
-3.668943e-001 
-4.474143e-001 
-5.420860e-001 
-5.032861e-001 
-4.320664e-001 
-3.766158e-001 
-3.073132e-001 
-2.630601e-001 
-2.564855e-001 
-2.743251e-001 
-2.750310e-001 
-1.891044e-001 
-5.665307e-002 
3.075708e-002 
9.680369e-002 
1.383905e-001 
1.498697e-001 
1.517052e-001 
1.563294e-001 
1.690446e-001 
1.792137e-001 
1.840415e-001 
1.894598e-001 
1.995750e-001 
2.135846e-001 
2.248666e-001 
2.367609e-001 
2.531217e-001 
2.690871e-001 
2.757114e-001 
2.791524e-001 
2.827253e-001 
2.865046e-001 
2.863399e-001 
2.792665e-001 
2.717599e-001 
2.618040e-001 
2.439143e-001 
2.216629e-001 
2.021463e-001 
1.844177e-001 
1.656137e-001 
1.426495e-001 
1.215361e-001 
1.035989e-001 
8.236265e-002 
6.076231e-002 
4.527735e-002 
3.484687e-002 
2.356561e-002 
1.201526e-002 
5.805757e-003 
5.001167e-003 
1.971174e-003 
-1.308507e-003 
7.748433e-004 
6.035209e-003 
5.698100e-003 
6.994347e-004 
-1.230845e-003 
-1.960452e-003 
-6.171198e-003 
-1.125057e-002 
-1.307541e-002 
-1.277712e-002 
-1.675742e-002 
-2.715393e-002 
-3.350225e-002 
-3.757524e-002 
-4.466667e-002 
-5.101600e-002 
-5.510277e-002 
-5.871832e-002 
-6.332279e-002 
-7.165565e-002 
-7.777897e-002 
-7.806349e-002 
-8.211307e-002 
-8.548834e-002 
-8.220115e-002 
-7.733728e-002 
-7.551608e-002 
-7.692293e-002 
-7.971298e-002 
-8.058674e-002 
-8.158550e-002 
-8.601608e-002 
-8.443807e-002 
-7.797747e-002 
-7.911307e-002 
-8.613307e-002 
-9.126489e-002 
-9.491600e-002 
-9.714327e-002 
-9.959501e-002 
-1.027049e-001 
-1.009403e-001 
-1.024888e-001 
-1.023391e-001 
-8.539511e-002 
-6.234639e-002 
-1.112791e-001 
-2.102645e-001 
-2.827250e-001 
-3.319271e-001 
-3.528436e-001 
-3.417720e-001 
-3.095865e-001 
-2.728396e-001 
-2.989594e-001 
-4.024508e-001 
-4.230719e-001 
-3.667437e-001 
-3.144187e-001 
-2.520722e-001 
-2.020577e-001 
-1.846841e-001 
-1.909500e-001 
-2.104843e-001 
-1.793247e-001 
-7.013496e-002 
2.757432e-002 
9.728194e-002 
1.462014e-001 
1.637429e-001 
1.650796e-001 
1.623790e-001 
1.630133e-001 
1.683875e-001 
1.743386e-001 
1.771253e-001 
1.824108e-001 
1.914350e-001 
1.970275e-001 
2.028819e-001 
2.111040e-001 
2.223122e-001 
2.336802e-001 
2.410603e-001 
2.467016e-001 
2.515394e-001 
2.496337e-001 
2.434154e-001 
2.391238e-001 
2.347228e-001 
2.286537e-001 
2.187376e-001 
2.076486e-001 
1.955170e-001 
1.796927e-001 
1.627293e-001 
1.492850e-001 
1.393394e-001 
1.290970e-001 
1.151011e-001 
1.020759e-001 
9.109472e-002 
7.953571e-002 
7.043668e-002 
6.519732e-002 
6.385986e-002 
6.412131e-002 
6.186255e-002 
5.992660e-002 
5.978507e-002 
5.613073e-002 
5.143342e-002 
4.815830e-002 
4.626364e-002 
4.356250e-002 
3.752174e-002 
3.229064e-002 
2.840121e-002 
2.016265e-002 
1.181475e-002 
8.513183e-003 
7.058548e-003 
5.304652e-003 
2.502978e-004 
-5.498984e-003 
-8.300815e-003 
-1.178689e-002 
-1.665524e-002 
-1.215790e-002 
-3.017209e-003 
7.837591e-005 
7.416249e-004 
-1.339390e-003 
-4.600723e-003 
-5.917270e-003 
-9.339953e-003 
-1.264677e-002 
-6.335955e-003 
-7.195647e-003 
-1.750491e-002 
-2.489768e-002 
-3.225419e-002 
-3.887097e-002 
-4.432859e-002 
-5.140869e-002 
-5.349559e-002 
-5.519220e-002 
-6.353320e-002 
-5.239628e-002 
-2.110707e-002 
-2.854447e-002 
-1.326165e-001 
-2.419708e-001 
-3.057747e-001 
-3.466129e-001 
-3.530093e-001 
-3.253483e-001 
-2.773252e-001 
-2.621287e-001 
-3.520621e-001 
-4.500425e-001 
-4.078898e-001 
-3.350694e-001 
-2.721647e-001 
-2.025495e-001 
-1.639276e-001 
-1.607466e-001 
-1.791072e-001 
-1.810426e-001 
-9.265301e-002 
4.508437e-002 
1.411899e-001 
2.131523e-001 
2.523964e-001 
2.631712e-001 
2.679386e-001 
2.738944e-001 
2.824146e-001 
2.926984e-001 
3.024861e-001 
3.101556e-001 
3.183330e-001 
3.269501e-001 
3.354586e-001 
3.435291e-001 
3.528706e-001 
3.642057e-001 
3.704522e-001 
3.723646e-001 
3.691534e-001 
3.607426e-001 
3.493701e-001 
3.367941e-001 
3.245422e-001 
3.109257e-001 
2.921284e-001 
2.714955e-001 
2.488760e-001 
2.212802e-001 
1.972177e-001 
1.772896e-001 
1.616460e-001 
1.446550e-001 
1.241047e-001 
1.092009e-001 
9.652607e-002 
8.047726e-002 
6.845093e-002 
6.381441e-002 
6.423070e-002 
6.459733e-002 
5.960023e-002 
6.110462e-002 
6.513725e-002 
6.066663e-002 
5.507013e-002 
5.166251e-002 
5.164928e-002 
5.017198e-002 
4.080511e-002 
3.360438e-002 
3.116254e-002 
2.144563e-002 
1.026728e-002 
3.527568e-003 
-6.254315e-004 
-3.790484e-003 
-1.268465e-002 
-2.170901e-002 
-2.523647e-002 
-3.220356e-002 
-4.092114e-002 
-4.520422e-002 
-4.765630e-002 
-4.866610e-002 
-5.141499e-002 
-5.312599e-002 
-4.916380e-002 
-4.604616e-002 
-4.646431e-002 
-4.526640e-002 
-4.685264e-002 
-5.041020e-002 
-5.391595e-002 
-5.860258e-002 
-5.965431e-002 
-5.975833e-002 
-6.560448e-002 
-7.316822e-002 
-7.871381e-002 
-8.614677e-002 
-9.112821e-002 
-9.459735e-002 
-1.000120e-001 
-1.060950e-001 
-1.146791e-001 
-1.152298e-001 
-9.528474e-002 
-7.406687e-002 
-1.351391e-001 
-2.558696e-001 
-3.424535e-001 
-3.994369e-001 
-4.197349e-001 
-3.980062e-001 
-3.573420e-001 
-3.181981e-001 
-3.544203e-001 
-4.763475e-001 
-5.049072e-001 
-4.353054e-001 
-3.679869e-001 
-2.883871e-001 
-2.314544e-001 
-2.178894e-001 
-2.277593e-001 
-2.455522e-001 
-2.047736e-001 
-7.950672e-002 
3.739505e-002 
1.214019e-001 
1.764861e-001 
1.899406e-001 
1.891216e-001 
1.933237e-001 
2.034573e-001 
2.114224e-001 
2.196883e-001 
2.336385e-001 
2.491690e-001 
2.613670e-001 
2.677529e-001 
2.769118e-001 
2.915082e-001 
3.029691e-001 
3.113076e-001 
3.178809e-001 
3.222524e-001 
3.215480e-001 
3.106785e-001 
2.982501e-001 
2.891874e-001 
2.746869e-001 
2.543827e-001 
2.320247e-001 
2.076619e-001 
1.821313e-001 
1.536138e-001 
1.256470e-001 
1.029093e-001 
7.794228e-002 
5.308564e-002 
3.161442e-002 
1.231331e-002 
-7.133795e-003 
-2.401035e-002 
-3.580191e-002 
-4.518999e-002 
-5.388234e-002 
-5.924116e-002 
-6.033179e-002 
-6.238364e-002 
-6.671402e-002 
-7.394973e-002 
-7.761948e-002 
-8.143856e-002 
-8.875217e-002 
-9.307200e-002 
-9.690868e-002 
-1.037231e-001 
-1.113274e-001 
-1.202877e-001 
-1.285748e-001 
-1.325373e-001 
-1.401688e-001 
-1.482184e-001 
-1.527370e-001 
-1.573591e-001 
-1.630066e-001 
-1.709187e-001 
-1.761506e-001 
-1.779096e-001 
-1.807580e-001 
-1.838340e-001 
-1.841752e-001 
-1.822168e-001 
-1.788921e-001 
-1.779739e-001 
-1.770774e-001 
-1.733564e-001 
-1.742926e-001 
-1.769825e-001 
-1.767442e-001 
-1.774054e-001 
-1.779902e-001 
-1.768919e-001 
-1.787944e-001 
-1.842773e-001 
-1.900676e-001 
-1.967570e-001 
-1.999767e-001 
-1.994049e-001 
-2.024303e-001 
-2.069864e-001 
-2.098049e-001 
-2.042247e-001 
-1.870312e-001 
-1.681220e-001 
-2.152727e-001 
-3.161335e-001 
-3.913593e-001 
-4.477379e-001 
-4.802236e-001 
-4.710559e-001 
-4.370253e-001 
-4.041016e-001 
-4.296399e-001 
-5.314184e-001 
-5.597941e-001 
-5.024201e-001 
-4.527316e-001 
-3.924818e-001 
-3.350647e-001 
-3.142137e-001 
-3.207722e-001 
-3.381088e-001 
-3.087627e-001 
-2.007904e-001 
-9.609531e-002 
-1.918670e-002 
3.766265e-002 
6.065339e-002 
6.442553e-002 
6.607348e-002 
6.843917e-002 
7.089129e-002 
7.477245e-002 
8.139041e-002 
8.604869e-002 
8.807550e-002 
9.327582e-002 
1.014954e-001 
1.105536e-001 
1.172850e-001 
1.252482e-001 
1.334999e-001 
1.381491e-001 
1.385905e-001 
1.376739e-001 
1.366624e-001 
1.327436e-001 
1.246074e-001 
1.169567e-001 
1.102675e-001 
9.809357e-002 
8.371732e-002 
7.201424e-002 
6.019352e-002 
4.657236e-002 
3.152812e-002 
1.871073e-002 
9.276930e-003 
-2.908208e-003 
-1.640070e-002 
-2.348707e-002 
-2.691029e-002 
-3.304008e-002 
-3.818231e-002 
-3.879858e-002 
-3.620668e-002 
-3.654545e-002 
-3.935065e-002 
-3.936417e-002 
-3.856715e-002 
-4.166120e-002 
-4.609668e-002 
-4.789054e-002 
-4.839303e-002 
-5.222777e-002 
-6.010648e-002 
-6.542281e-002 
-6.837410e-002 
-7.363293e-002 
-8.002137e-002 
-8.459513e-002 
-8.930841e-002 
-9.502546e-002 
-1.002832e-001 
-1.024666e-001 
-1.016915e-001 
-9.781347e-002 
-9.441547e-002 
-9.040564e-002 
-8.557256e-002 
-8.440365e-002 
-8.419370e-002 
-8.125204e-002 
-7.998433e-002 
-7.945653e-002 
-7.622014e-002 
-7.564652e-002 
-7.468355e-002 
-7.646605e-002 
-8.146456e-002 
-8.347101e-002 
-8.219589e-002 
-8.395958e-002 
-8.588322e-002 
-8.659775e-002 
-8.607099e-002 
-7.206847e-002 
-4.613975e-002 
-5.072511e-002 
-1.413637e-001 
-2.372540e-001 
-2.994392e-001 
-3.416853e-001 
-3.444670e-001 
-3.160960e-001 
-2.718057e-001 
-2.540413e-001 
-3.324428e-001 
-4.229666e-001 
-3.867927e-001 
-3.260714e-001 
-2.683721e-001 
-2.013573e-001 
-1.642579e-001 
-1.598088e-001 
-1.741839e-001 
-1.768338e-001 
-9.890685e-002 
2.514598e-002 
1.140985e-001 
1.823365e-001 
2.183990e-001 
2.291202e-001 
2.332193e-001 
2.386186e-001 
2.424287e-001 
2.469314e-001 
2.544376e-001 
2.612217e-001 
2.662268e-001 
2.749313e-001 
2.854933e-001 
2.945002e-001 
3.031054e-001 
3.117748e-001 
3.169901e-001 
3.175797e-001 
3.159165e-001 
3.133249e-001 
3.096348e-001 
3.032624e-001 
2.941686e-001 
2.851053e-001 
2.717755e-001 
2.526075e-001 
2.352262e-001 
2.203760e-001 
2.057834e-001 
1.893769e-001 
1.727592e-001 
1.585150e-001 
1.441691e-001 
1.265696e-001 
1.113940e-001 
1.017535e-001 
9.548659e-002 
9.023021e-002 
8.481816e-002 
8.497013e-002 
8.717440e-002 
8.529314e-002 
8.269880e-002 
8.336231e-002 
8.661702e-002 
8.747990e-002 
8.428369e-002 
8.266696e-002 
8.311547e-002 
7.734548e-002 
6.997801e-002 
6.611789e-002 
6.491888e-002 
6.199947e-002 
5.515331e-002 
5.113670e-002 
4.808381e-002 
4.067990e-002 
3.292089e-002 
3.002281e-002 
2.942283e-002 
2.795741e-002 
2.455907e-002 
2.557941e-002 
2.701381e-002 
2.395495e-002 
2.589144e-002 
3.252577e-002 
4.019656e-002 
4.586540e-002 
4.608176e-002 
4.689733e-002 
5.008749e-002 
4.571386e-002 
4.269197e-002 
4.723402e-002 
5.020054e-002 
4.839712e-002 
4.121968e-002 
3.316500e-002 
2.975099e-002 
2.568104e-002 
1.664052e-002 
1.339652e-002 
1.310340e-002 
1.096028e-002 
2.064513e-002 
4.565921e-002 
1.228837e-002 
-1.105554e-001 
-2.178641e-001 
-2.834431e-001 
-3.200434e-001 
-3.196110e-001 
-2.934697e-001 
-2.493583e-001 
-2.533255e-001 
-3.712402e-001 
-4.484333e-001 
-3.867711e-001 
-3.156493e-001 
-2.494147e-001 
-1.848180e-001 
-1.540397e-001 
-1.529858e-001 
-1.737209e-001 
-1.606136e-001 
-4.449252e-002 
9.530849e-002 
1.881603e-001 
2.533040e-001 
2.831456e-001 
2.903459e-001 
2.924226e-001 
2.972164e-001 
3.067651e-001 
3.192223e-001 
3.305620e-001 
3.397050e-001 
3.489413e-001 
3.613887e-001 
3.704504e-001 
3.788173e-001 
3.895069e-001 
4.008915e-001 
4.072664e-001 
4.072099e-001 
4.046265e-001 
4.003109e-001 
3.907166e-001 
3.774471e-001 
3.658764e-001 
3.526858e-001 
3.352339e-001 
3.112067e-001 
2.861685e-001 
2.630165e-001 
2.373774e-001 
2.123210e-001 
1.925453e-001 
1.752618e-001 
1.559766e-001 
1.364827e-001 
1.215920e-001 
1.122532e-001 
1.019797e-001 
9.328299e-002 
9.094256e-002 
9.107728e-002 
9.006239e-002 
8.670654e-002 
8.705525e-002 
8.849120e-002 
8.499647e-002 
7.860940e-002 
7.491440e-002 
7.125933e-002 
6.567830e-002 
5.746761e-002 
5.030915e-002 
4.419247e-002 
3.298597e-002 
2.120698e-002 
1.234772e-002 
6.825137e-003 
7.758495e-004 
-7.482793e-003 
-1.342862e-002 
-1.770262e-002 
-2.523935e-002 
-3.112652e-002 
-3.324929e-002 
-3.297172e-002 
-3.205095e-002 
-3.473010e-002 
-3.620134e-002 
-3.491220e-002 
-3.776238e-002 
-3.975511e-002 
-3.646197e-002 
-3.347837e-002 
-3.168843e-002 
-3.001268e-002 
-2.691918e-002 
-2.429620e-002 
-2.435687e-002 
-2.704805e-002 
-2.728059e-002 
-2.513341e-002 
-2.717652e-002 
-3.072244e-002 
-2.895167e-002 
-2.848870e-002 
-3.453988e-002 
-3.879102e-002 
-4.327507e-002 
-4.453420e-002 
-4.476450e-002 
-5.009539e-002 
-5.312202e-002 
-5.164554e-002 
-5.184906e-002 
-3.666692e-002 
-4.410167e-003 
-1.770361e-003 
-9.191961e-002 
-2.015681e-001 
-2.676500e-001 
-3.070375e-001 
-3.098428e-001 
-2.814283e-001 
-2.367727e-001 
-2.170229e-001 
-2.952711e-001 
-4.011545e-001 
-3.714676e-001 
-2.963189e-001 
-2.355734e-001 
-1.683165e-001 
-1.294938e-001 
-1.261119e-001 
-1.430856e-001 
-1.512730e-001 
-7.436108e-002 
6.033681e-002 
1.535865e-001 
2.189804e-001 
2.580608e-001 
2.682501e-001 
2.701249e-001 
2.739680e-001 
2.800984e-001 
2.865963e-001 
2.926010e-001 
2.985013e-001 
3.071633e-001 
3.189738e-001 
3.273524e-001 
3.346034e-001 
3.439484e-001 
3.513428e-001 
3.538699e-001 
3.548978e-001 
3.549603e-001 
3.532449e-001 
3.462258e-001 
3.335993e-001 
3.216840e-001 
3.086748e-001 
2.892736e-001 
2.694772e-001 
2.522444e-001 
2.331837e-001 
2.128673e-001 
1.914773e-001 
1.728991e-001 
1.579221e-001 
1.400813e-001 
1.222656e-001 
1.102004e-001 
9.867144e-002 
8.558447e-002 
7.658578e-002 
7.298878e-002 
7.033845e-002 
6.664182e-002 
6.270323e-002 
6.016178e-002 
5.731553e-002 
4.829569e-002 
3.809511e-002 
3.458364e-002 
2.977132e-002 
1.767962e-002 
8.248875e-003 
9.145633e-004 
-6.154548e-003 
-1.506871e-002 
-2.714709e-002 
-3.335719e-002 
-3.633095e-002 
-4.693593e-002 
-5.887980e-002 
-6.378221e-002 
-6.777901e-002 
-7.120241e-002 
-7.720939e-002 
-8.126793e-002 
-8.148713e-002 
-8.461336e-002 
-8.941682e-002 
-8.906111e-002 
-8.535127e-002 
-8.429658e-002 
-8.211300e-002 
-7.890772e-002 
-7.692925e-002 
-7.663827e-002 
-7.722704e-002 
-7.818565e-002 
-7.573926e-002 
-7.480335e-002 
-7.663014e-002 
-7.340469e-002 
-7.430550e-002 
-8.030395e-002 
-8.443320e-002 
-8.853063e-002 
-8.939182e-002 
-8.787484e-002 
-9.061581e-002 
-9.237440e-002 
-9.213687e-002 
-8.817334e-002 
-6.995143e-002 
-4.533015e-002 
-8.621153e-002 
-1.845785e-001 
-2.620920e-001 
-3.160110e-001 
-3.447346e-001 
-3.377707e-001 
-3.065771e-001 
-2.695781e-001 
-2.896181e-001 
-3.931940e-001 
-4.254032e-001 
-3.704545e-001 
-3.191976e-001 
-2.606661e-001 
-2.074485e-001 
-1.857511e-001 
-1.892379e-001 
-2.087127e-001 
-1.831444e-001 
-7.553725e-002 
2.543495e-002 
9.769002e-002 
1.510171e-001 
1.745137e-001 
1.799975e-001 
1.789062e-001 
1.782524e-001 
1.818948e-001 
1.842143e-001 
1.823847e-001 
1.834695e-001 
1.878949e-001 
1.938080e-001 
1.960160e-001 
1.972982e-001 
2.047443e-001 
2.128039e-001 
2.143253e-001 
2.143513e-001 
2.149122e-001 
2.127634e-001 
2.049413e-001 
1.906985e-001 
1.811461e-001 
1.738993e-001 
1.586151e-001 
1.416410e-001 
1.274706e-001 
1.128697e-001 
9.547096e-002 
7.656727e-002 
6.271252e-002 
5.442279e-002 
4.074140e-002 
2.276134e-002 
1.149332e-002 
4.834652e-003 
-3.624634e-003 
-1.236452e-002 
-1.249182e-002 
-9.058887e-003 
-9.991648e-003 
-1.453441e-002 
-1.599181e-002 
-1.245609e-002 
-1.440648e-002 
-2.207789e-002 
-2.544810e-002 
-2.824714e-002 
-3.949493e-002 
-5.027511e-002 
-5.813077e-002 
-6.238845e-002 
-6.771221e-002 
-7.786971e-002 
-8.568605e-002 
-9.201632e-002 
-1.047969e-001 
-1.163676e-001 
-1.213580e-001 
-1.252494e-001 
-1.285978e-001 
-1.346093e-001 
-1.398377e-001 
-1.420714e-001 
-1.454058e-001 
-1.507669e-001 
-1.483397e-001 
-1.402941e-001 
-1.366730e-001 
-1.377538e-001 
-1.401625e-001 
-1.426067e-001 
-1.455848e-001 
-1.503325e-001 
-1.544141e-001 
-1.476509e-001 
-1.443907e-001 
-1.507689e-001 
-1.541598e-001 
-1.579656e-001 
-1.626596e-001 
-1.650771e-001 
-1.681062e-001 
-1.679700e-001 
-1.649598e-001 
-1.555669e-001 
-1.267546e-001 
-1.230797e-001 
-2.165673e-001 
-3.199624e-001 
-3.816160e-001 
-4.242731e-001 
-4.284651e-001 
-4.005405e-001 
-3.521162e-001 
-3.269489e-001 
-4.058029e-001 
-5.086654e-001 
-4.754572e-001 
-4.071177e-001 
-3.459983e-001 
-2.726167e-001 
-2.282378e-001 
-2.207092e-001 
-2.402575e-001 
-2.493969e-001 
-1.727551e-001 
-4.205596e-002 
5.050075e-002 
1.215689e-001 
1.615891e-001 
1.702186e-001 
1.685976e-001 
1.716150e-001 
1.804071e-001 
1.894472e-001 
1.992853e-001 
2.084665e-001 
2.181298e-001 
2.274421e-001 
2.343870e-001 
2.444651e-001 
2.571366e-001 
2.687551e-001 
2.781509e-001 
2.814366e-001 
2.824662e-001 
2.804037e-001 
2.710303e-001 
2.607850e-001 
2.509010e-001 
2.366433e-001 
2.196508e-001 
1.983244e-001 
1.751694e-001 
1.524797e-001 
1.274767e-001 
1.036294e-001 
8.543563e-002 
7.048397e-002 
5.336397e-002 
3.552617e-002 
2.175702e-002 
9.146391e-003 
-2.056847e-003 
-8.067211e-003 
-1.114568e-002 
-7.534439e-003 
-3.841106e-003 
-5.235466e-003 
-2.700261e-003 
1.077629e-003 
-3.726470e-004 
3.101176e-005 
5.068667e-004 
-5.831490e-004 
-2.982382e-004 
-5.630912e-003 
-1.141842e-002 
-1.468492e-002 
-2.126127e-002 
-2.966608e-002 
-3.582818e-002 
-4.143158e-002 
-4.722273e-002 
-5.396357e-002 
-6.059849e-002 
-6.523166e-002 
-7.111936e-002 
-7.696048e-002 
-8.276311e-002 
-8.485822e-002 
-8.581048e-002 
-8.952846e-002 
-9.178097e-002 
-9.085962e-002 
-9.210707e-002 
-9.303905e-002 
-9.262782e-002 
-8.949306e-002 
-8.063742e-002 
-7.730765e-002 
-7.618535e-002 
-7.286547e-002 
-7.286344e-002 
-7.503009e-002 
-7.482222e-002 
-7.667325e-002 
-7.391692e-002 
-7.248249e-002 
-7.751060e-002 
-8.047427e-002 
-8.495110e-002 
-8.897842e-002 
-8.894011e-002 
-8.835426e-002 
-8.971937e-002 
-8.762988e-002 
-8.612829e-002 
-7.109785e-002 
-4.156510e-002 
-4.077014e-002 
-1.297380e-001 
-2.313911e-001 
-2.919980e-001 
-3.358346e-001 
-3.387841e-001 
-3.070118e-001 
-2.607661e-001 
-2.418303e-001 
-3.189221e-001 
-4.164262e-001 
-3.810612e-001 
-3.137382e-001 
-2.576262e-001 
-1.829814e-001 
-1.422646e-001 
-1.411811e-001 
-1.605308e-001 
-1.641117e-001 
-8.279074e-002 
4.744376e-002 
1.368948e-001 
2.090980e-001 
2.508285e-001 
2.556328e-001 
2.554475e-001 
2.613303e-001 
2.715728e-001 
2.798821e-001 
2.876280e-001 
2.963708e-001 
3.065405e-001 
3.125936e-001 
3.203553e-001 
3.337042e-001 
3.463770e-001 
3.540561e-001 
3.603618e-001 
3.618586e-001 
3.569808e-001 
3.470005e-001 
3.355722e-001 
3.280210e-001 
3.158893e-001 
2.950344e-001 
2.726069e-001 
2.508222e-001 
2.212558e-001 
1.928479e-001 
1.686770e-001 
1.511183e-001 
1.328283e-001 
1.094131e-001 
8.952287e-002 
7.432732e-002 
5.610980e-002 
4.034297e-002 
3.364779e-002 
3.130438e-002 
3.065799e-002 
2.676295e-002 
2.685567e-002 
2.916867e-002 
2.671221e-002 
2.381236e-002 
2.551924e-002 
2.710585e-002 
2.569930e-002 
1.976412e-002 
1.588735e-002 
1.325759e-002 
3.919078e-003 
-4.981116e-003 
-8.676110e-003 
-1.038615e-002 
-1.304534e-002 
-2.090829e-002 
-2.562619e-002 
-2.690784e-002 
-3.582307e-002 
-4.379159e-002 
-4.411148e-002 
-4.274818e-002 
-4.234851e-002 
-4.558036e-002 
-4.686368e-002 
-4.336203e-002 
-4.693305e-002 
-5.112093e-002 
-4.715111e-002 
-3.998188e-002 
-3.782417e-002 
-3.624602e-002 
-2.921771e-002 
-2.252160e-002 
-2.261208e-002 
-2.449633e-002 
-2.301843e-002 
-1.802623e-002 
-1.732463e-002 
-2.344629e-002 
-2.004876e-002 
-1.696198e-002 
-2.506440e-002 
-3.104491e-002 
-3.404720e-002 
-3.526349e-002 
-3.473695e-002 
-4.206022e-002 
-4.506698e-002 
-4.172504e-002 
-3.665736e-002 
-1.888046e-002 
4.399781e-003 
-3.841484e-002 
-1.375042e-001 
-2.142753e-001 
-2.673782e-001 
-2.951098e-001 
-2.875252e-001 
-2.549210e-001 
-2.190571e-001 
-2.388616e-001 
-3.402148e-001 
-3.741185e-001 
-3.181812e-001 
-2.681816e-001 
-2.124803e-001 
-1.573111e-001 
-1.343292e-001 
-1.377522e-001 
-1.561207e-001 
-1.337249e-001 
-2.754469e-002 
7.770177e-002 
1.494276e-001 
2.045533e-001 
2.313992e-001 
2.395238e-001 
2.415418e-001 
2.421326e-001 
2.487101e-001 
2.576832e-001 
2.609240e-001 
2.652386e-001 
2.735869e-001 
2.834322e-001 
2.924625e-001 
2.990949e-001 
3.079237e-001 
3.183579e-001 
3.224108e-001 
3.232720e-001 
3.262118e-001 
3.242379e-001 
3.173734e-001 
3.064828e-001 
2.951886e-001 
2.843489e-001 
2.698654e-001 
2.523443e-001 
2.370158e-001 
2.204991e-001 
2.007165e-001 
1.816434e-001 
1.654684e-001 
1.505575e-001 
1.333891e-001 
1.172355e-001 
1.055374e-001 
9.571178e-002 
8.556569e-002 
7.863772e-002 
7.555166e-002 
7.601570e-002 
7.418215e-002 
7.057703e-002 
7.095571e-002 
7.243096e-002 
7.026432e-002 
6.670382e-002 
6.220711e-002 
5.838644e-002 
5.415915e-002 
4.569514e-002 
3.947933e-002 
3.867665e-002 
3.601863e-002 
2.847743e-002 
2.012507e-002 
1.318185e-002 
6.833151e-003 
-6.118871e-004 
-7.067282e-003 
-9.421471e-003 
-1.032569e-002 
-1.507067e-002 
-2.133476e-002 
-2.268904e-002 
-2.384951e-002 
-2.389245e-002 
-1.981399e-002 
-1.601507e-002 
-1.302317e-002 
-1.207217e-002 
-1.538318e-002 
-1.729101e-002 
-1.846909e-002 
-2.386642e-002 
-2.333113e-002 
-2.152111e-002 
-2.636402e-002 
-3.247819e-002 
-3.764657e-002 
-4.340826e-002 
-4.797795e-002 
-5.411063e-002 
-5.930861e-002 
-5.756688e-002 
-5.520822e-002 
-4.568031e-002 
-1.799385e-002 
-3.165910e-002 
-1.310443e-001 
-2.218658e-001 
-2.777534e-001 
-3.132670e-001 
-3.093476e-001 
-2.810869e-001 
-2.401316e-001 
-2.303834e-001 
-3.221928e-001 
-3.976415e-001 
-3.506503e-001 
-2.937591e-001 
-2.368304e-001 
-1.728165e-001 
-1.427010e-001 
-1.449359e-001 
-1.670425e-001 
-1.684792e-001 
-8.053654e-002 
3.681437e-002 
1.168721e-001 
1.798962e-001 
2.115027e-001 
2.153542e-001 
2.132344e-001 
2.146848e-001 
2.207376e-001 
2.332302e-001 
2.418264e-001 
2.473052e-001 
2.563574e-001 
2.659840e-001 
2.726900e-001 
2.817865e-001 
2.933168e-001 
3.081899e-001 
3.189029e-001 
3.207492e-001 
3.244251e-001 
3.259426e-001 
3.192122e-001 
3.103413e-001 
3.034013e-001 
2.964510e-001 
2.854590e-001 
2.676667e-001 
2.496372e-001 
2.323909e-001 
2.092626e-001 
1.869497e-001 
1.708997e-001 
1.582187e-001 
1.432164e-001 
1.256568e-001 
1.106445e-001 
9.845874e-002 
8.506600e-002 
7.326411e-002 
7.021450e-002 
7.095839e-002 
6.878375e-002 
6.334526e-002 
5.971991e-002 
5.757493e-002 
5.226132e-002 
4.509547e-002 
4.300725e-002 
4.207521e-002 
3.605326e-002 
2.839309e-002 
2.011916e-002 
1.228689e-002 
3.041815e-003 
-7.614691e-003 
-1.589452e-002 
-1.969096e-002 
-2.634123e-002 
-3.276135e-002 
-3.804532e-002 
-4.520133e-002 
-4.925063e-002 
-5.191151e-002 
-5.509794e-002 
-5.379013e-002 
-5.129764e-002 
-5.165991e-002 
-4.722525e-002 
-4.485346e-002 
-4.431288e-002 
-4.014070e-002 
-4.168154e-002 
-4.389597e-002 
-4.231589e-002 
-4.601205e-002 
-4.838967e-002 
-4.789006e-002 
-5.678258e-002 
-6.609069e-002 
-7.268562e-002 
-8.220618e-002 
-8.541042e-002 
-8.945578e-002 
-9.633549e-002 
-1.006149e-001 
-1.091959e-001 
-1.069237e-001 
-8.157118e-002 
-5.812133e-002 
-1.156690e-001 
-2.349917e-001 
-3.211675e-001 
-3.739560e-001 
-3.980551e-001 
-3.800927e-001 
-3.356123e-001 
-2.968898e-001 
-3.346389e-001 
-4.576121e-001 
-4.868932e-001 
-4.140429e-001 
-3.517625e-001 
-2.840228e-001 
-2.287926e-001 
-2.135713e-001 
-2.269305e-001 
-2.502581e-001 
-2.107296e-001 
-8.151413e-002 
3.205394e-002 
1.080970e-001 
1.629272e-001 
1.841650e-001 
1.889733e-001 
1.904964e-001 
1.994888e-001 
2.120599e-001 
2.186610e-001 
2.274009e-001 
2.433237e-001 
2.600936e-001 
2.725867e-001 
2.803572e-001 
2.922072e-001 
3.058036e-001 
3.125994e-001 
3.169435e-001 
3.232857e-001 
3.247493e-001 
3.180602e-001 
3.046011e-001 
2.926916e-001 
2.817080e-001 
2.627891e-001 
2.391214e-001 
2.173175e-001 
1.940404e-001 
1.683805e-001 
1.404976e-001 
1.167711e-001 
9.827762e-002 
7.512080e-002 
5.102280e-002 
3.280180e-002 
1.950702e-002 
7.785841e-003 
-2.620271e-003 
-9.440885e-003 
-1.021443e-002 
-1.416146e-002 
-1.933055e-002 
-1.881126e-002 
-1.648029e-002 
-1.713814e-002 
-1.951240e-002 
-2.046282e-002 
-2.099831e-002 
-2.572504e-002 
-3.315671e-002 
-3.743831e-002 
-3.957092e-002 
-4.591411e-002 
-5.556594e-002 
-6.063724e-002 
-6.619859e-002 
-7.504785e-002 
-8.308009e-002 
-8.818768e-002 
-9.012141e-002 
-9.327150e-002 
-1.020861e-001 
-1.070788e-001 
-1.076177e-001 
-1.112335e-001 
-1.138851e-001 
-1.145279e-001 
-1.129711e-001 
-1.102699e-001 
-1.118203e-001 
-1.138187e-001 
-1.074327e-001 
-1.001033e-001 
-9.856311e-002 
-9.636216e-002 
-9.304763e-002 
-9.298818e-002 
-9.459616e-002 
-9.647899e-002 
-9.611998e-002 
-9.191559e-002 
-9.407437e-002 
-1.002397e-001 
-9.984534e-002 
-1.029248e-001 
-1.097159e-001 
-1.100171e-001 
-1.110650e-001 
-1.143562e-001 
-1.157229e-001 
-1.069327e-001 
-8.220456e-002 
-6.203943e-002 
-1.230434e-001 
-2.421561e-001 
-3.238982e-001 
-3.808228e-001 
-4.126577e-001 
-3.976274e-001 
-3.564030e-001 
-3.238235e-001 
-3.609703e-001 
-4.764904e-001 
-5.052019e-001 
-4.364396e-001 
-3.831709e-001 
-3.210389e-001 
-2.599602e-001 
-2.409196e-001 
-2.546243e-001 
-2.706111e-001 
-2.295840e-001 
-1.063790e-001 
7.134796e-003 
8.375029e-002 
1.440298e-001 
1.703788e-001 
1.730217e-001 
1.756932e-001 
1.836623e-001 
1.884015e-001 
1.921476e-001 
2.000037e-001 
2.107753e-001 
2.212937e-001 
2.287716e-001 
2.383989e-001 
2.506586e-001 
2.570781e-001 
2.598238e-001 
2.633303e-001 
2.665121e-001 
2.620029e-001 
2.527854e-001 
2.429475e-001 
2.396375e-001 
2.303720e-001 
2.096148e-001 
1.899052e-001 
1.701390e-001 
1.434845e-001 
1.179852e-001 
9.823238e-002 
8.057992e-002 
6.750001e-002 
4.299693e-002 
1.751581e-002 
1.870026e-003 
-1.637972e-002 
-3.247408e-002 
-3.812718e-002 
-4.488666e-002 
-5.138652e-002 
-5.427273e-002 
-6.031598e-002 
-6.248831e-002 
-6.525767e-002 
-7.054744e-002 
-7.080867e-002 
-7.099348e-002 
-7.514115e-002 
-7.676804e-002 
-7.834640e-002 
-8.426509e-002 
-9.205104e-002 
-9.947707e-002 
-1.009892e-001 
-1.009564e-001 
-1.059191e-001 
-1.129588e-001 
-1.165854e-001 
-1.177394e-001 
-1.168520e-001 
-1.179303e-001 
-1.178336e-001 
-1.175628e-001 
-1.222474e-001 
-1.312778e-001 
-1.376712e-001 
-1.286483e-001 
-1.197181e-001 
-1.171373e-001 
-1.164439e-001 
-1.161789e-001 
-1.142168e-001 
-1.152923e-001 
-1.224932e-001 
-1.175473e-001 
-1.095661e-001 
-1.126440e-001 
-1.112596e-001 
-1.141319e-001 
-1.161202e-001 
-1.158253e-001 
-1.233866e-001 
-1.255681e-001 
-1.218224e-001 
-1.238943e-001 
-1.202503e-001 
-1.223480e-001 
-1.328684e-001 
-1.224072e-001 
-9.965813e-002 
-9.607764e-002 
-1.766694e-001 
-2.743402e-001 
-3.293257e-001 
-3.676310e-001 
-3.836637e-001 
-3.675813e-001 
-3.276295e-001 
-3.019967e-001 
-3.669949e-001 
-4.663029e-001 
-4.342550e-001 
-3.678510e-001 
-3.136302e-001 
-2.553859e-001 
-2.179974e-001 
-2.015624e-001 
-2.095508e-001 
-2.221395e-001 
-1.537408e-001 
-3.116237e-002 
5.019494e-002 
1.129622e-001 
1.441396e-001 
1.589474e-001 
1.624071e-001 
1.579871e-001 
1.611177e-001 
1.665736e-001 
1.649551e-001 
1.661129e-001 
1.677689e-001 
1.706109e-001 
1.756577e-001 
1.747024e-001 
1.818117e-001 
1.851157e-001 
1.825269e-001 
1.849806e-001 
1.889657e-001 
1.893385e-001 
1.876173e-001 
1.799509e-001 
1.761326e-001 
1.663112e-001 
1.484997e-001 
1.414906e-001 
1.341490e-001 
1.214878e-001 
1.069521e-001 
8.970610e-002 
7.880909e-002 
7.105385e-002 
5.336312e-002 
4.547366e-002 
4.098674e-002 
3.117343e-002 
2.140499e-002 
1.062994e-002 
7.192946e-003 
1.002351e-002 
3.110255e-003 
-2.914673e-003 
2.198953e-003 
3.978980e-003 
2.830108e-003 
-1.083294e-003 
-4.587005e-003 
-3.799581e-003 
-8.115347e-003 
-1.524714e-002 
-1.553699e-002 
-1.364963e-002 
-1.779066e-002 
-2.291597e-002 
-2.557455e-002 
-2.638733e-002 
-2.782986e-002 
-3.060173e-002 
-2.966179e-002 
-2.679587e-002 
-2.529342e-002 
-2.262351e-002 
-1.369942e-002 
-7.282292e-003 
-5.296454e-003 
-4.282540e-003 
-3.486364e-003 
-1.522299e-003 
-8.443634e-004 
-2.249119e-003 
9.281115e-004 
2.650853e-003 
-6.004696e-003 
-1.206574e-002 
-1.526696e-002 
-1.907921e-002 
-2.042331e-002 
-2.445486e-002 
-2.968481e-002 
-3.182965e-002 
-3.918142e-002 
-3.485125e-002 
-6.672008e-003 
1.717871e-002 
-3.922559e-002 
-1.468545e-001 
-2.249951e-001 
-2.775748e-001 
-2.996484e-001 
-2.828419e-001 
-2.382034e-001 
-1.973380e-001 
-2.352016e-001 
-3.502739e-001 
-3.701093e-001 
-3.089190e-001 
-2.525524e-001 
-1.845064e-001 
-1.299745e-001 
-1.125992e-001 
-1.260179e-001 
-1.519835e-001 
-1.158088e-001 
1.624885e-003 
1.030621e-001 
1.791997e-001 
2.315763e-001 
2.506868e-001 
2.531418e-001 
2.501637e-001 
2.539915e-001 
2.630039e-001 
2.670582e-001 
2.727489e-001 
2.842650e-001 
2.951553e-001 
3.054590e-001 
3.112512e-001 
3.196968e-001 
3.326453e-001 
3.400497e-001 
3.428571e-001 
3.486318e-001 
3.515730e-001 
3.489256e-001 
3.415814e-001 
3.310129e-001 
3.211461e-001 
3.059494e-001 
2.867451e-001 
2.680726e-001 
2.505130e-001 
2.311535e-001 
2.115467e-001 
1.928783e-001 
1.757420e-001 
1.584325e-001 
1.423902e-001 
1.299200e-001 
1.185648e-001 
1.090975e-001 
1.019910e-001 
9.843953e-002 
9.678394e-002 
9.521723e-002 
9.402872e-002 
9.598841e-002 
9.944253e-002 
1.007152e-001 
1.023426e-001 
1.075415e-001 
1.103182e-001 
1.100581e-001 
1.086919e-001 
1.088374e-001 
1.126023e-001 
1.156374e-001 
1.174674e-001 
1.213785e-001 
1.240507e-001 
1.248869e-001 
1.280298e-001 
1.328582e-001 
1.430901e-001 
1.507394e-001 
1.559068e-001 
1.641740e-001 
1.695418e-001 
1.758369e-001 
1.854693e-001 
1.925255e-001 
2.020994e-001 
2.107827e-001 
2.126948e-001 
2.198579e-001 
2.254525e-001 
2.265028e-001 
2.321603e-001 
2.358388e-001 
2.383636e-001 
2.404413e-001 
2.380648e-001 
2.385273e-001 
2.397576e-001 
2.361980e-001 
2.320334e-001 
2.276687e-001 
2.223948e-001 
2.187200e-001 
2.203347e-001 
2.286381e-001 
2.000153e-001 
1.293192e-001 
6.768870e-002 
2.170985e-002 
-3.913708e-003 
-9.048952e-003 
-4.074531e-003 
1.004460e-002 
-5.748072e-003 
-7.732891e-002 
-1.173296e-001 
-9.821058e-002 
-6.842187e-002 
-3.367298e-002 
-9.925160e-003 
-1.701470e-003 
-4.823336e-003 
-2.084520e-002 
-1.433948e-002 
4.480862e-002 
1.123268e-001 
1.589447e-001 
1.867678e-001 
1.979253e-001 
2.029640e-001 
2.029052e-001 
2.032600e-001 
2.084586e-001 
2.165113e-001 
2.220551e-001 
2.244228e-001 
2.305361e-001 
2.403742e-001 
2.472901e-001 
2.529978e-001 
2.617211e-001 
2.695826e-001 
2.729031e-001 
2.697440e-001 
2.665775e-001 
2.630142e-001 
2.515683e-001 
2.360876e-001 
2.214884e-001 
2.076320e-001 
1.896674e-001 
1.656251e-001 
1.423227e-001 
1.221709e-001 
9.685000e-002 
7.120236e-002 
5.123258e-002 
3.401252e-002 
1.741523e-002 
-2.566410e-003 
-1.922939e-002 
-2.959070e-002 
-3.971676e-002 
-4.916955e-002 
-5.243512e-002 
-5.224197e-002 
-5.267104e-002 
-5.482703e-002 
-5.668048e-002 
-5.727538e-002 
-6.068836e-002 
-6.581963e-002 
-7.049482e-002 
-7.148379e-002 
-7.481794e-002 
-8.238570e-002 
-8.726604e-002 
-9.291729e-002 
-1.029663e-001 
-1.118425e-001 
-1.195937e-001 
-1.241660e-001 
-1.283777e-001 
-1.380566e-001 
-1.442954e-001 
-1.482484e-001 
-1.564974e-001 
-1.629028e-001 
-1.658215e-001 
-1.694480e-001 
-1.720404e-001 
-1.756132e-001 
-1.757271e-001 
-1.747878e-001 
-1.779614e-001 
-1.788069e-001 
-1.762560e-001 
-1.736704e-001 
-1.702789e-001 
-1.669206e-001 
-1.619310e-001 
-1.598671e-001 
-1.661289e-001 
-1.693462e-001 
-1.683067e-001 
-1.685315e-001 
-1.669762e-001 
-1.648922e-001 
-1.660207e-001 
-1.694207e-001 
-1.780397e-001 
-1.845993e-001 
-1.850334e-001 
-1.858979e-001 
-1.885627e-001 
-1.898428e-001 
-1.930337e-001 
-1.876198e-001 
-1.659104e-001 
-1.481328e-001 
-2.129065e-001 
-3.245184e-001 
-3.984082e-001 
-4.506225e-001 
-4.743197e-001 
-4.603914e-001 
-4.257251e-001 
-3.932178e-001 
-4.361442e-001 
-5.512695e-001 
-5.594592e-001 
-4.903256e-001 
-4.358717e-001 
-3.686291e-001 
-3.169459e-001 
-3.027635e-001 
-3.087023e-001 
-3.210462e-001 
-2.734038e-001 
-1.481595e-001 
-4.139604e-002 
3.578720e-002 
8.653864e-002 
1.031648e-001 
1.090871e-001 
1.152048e-001 
1.203234e-001 
1.238338e-001 
1.321860e-001 
1.426166e-001 
1.468715e-001 
1.513500e-001 
1.619492e-001 
1.733038e-001 
1.827353e-001 
1.899097e-001 
1.984406e-001 
2.060175e-001 
2.038203e-001 
1.968637e-001 
1.924748e-001 
1.875283e-001 
1.773414e-001 
1.614176e-001 
1.454914e-001 
1.285764e-001 
1.052904e-001 
8.007917e-002 
5.749713e-002 
3.660645e-002 
1.626671e-002 
-6.657913e-003 
-2.847619e-002 
-4.719626e-002 
-6.705843e-002 
-8.467606e-002 
-9.878265e-002 
-1.097270e-001 
-1.176143e-001 
-1.238341e-001 
-1.281259e-001 
-1.291487e-001 
-1.308885e-001 
-1.328237e-001 
-1.352404e-001 
-1.375068e-001 
-1.404471e-001 
-1.453734e-001 
-1.489371e-001 
-1.521433e-001 
-1.579526e-001 
-1.641009e-001 
-1.695054e-001 
-1.734362e-001 
-1.759637e-001 
-1.826205e-001 
-1.863777e-001 
-1.904039e-001 
-1.978773e-001 
-2.035602e-001 
-2.064088e-001 
-2.091421e-001 
-2.097438e-001 
-2.141172e-001 
-2.176892e-001 
-2.188769e-001 
-2.244283e-001 
-2.247251e-001 
-2.228271e-001 
-2.214433e-001 
-2.177847e-001 
-2.159764e-001 
-2.165537e-001 
-2.136200e-001 
-2.152943e-001 
-2.177925e-001 
-2.145829e-001 
-2.133334e-001 
-2.118530e-001 
-2.099305e-001 
-2.107925e-001 
-2.115909e-001 
-2.131836e-001 
-2.172026e-001 
-2.165858e-001 
-2.108054e-001 
-2.090236e-001 
-2.102451e-001 
-2.098778e-001 
-2.028294e-001 
-1.844807e-001 
-1.608222e-001 
-2.001951e-001 
-2.894889e-001 
-3.588738e-001 
-4.110566e-001 
-4.366345e-001 
-4.259423e-001 
-3.946045e-001 
-3.570600e-001 
-3.760075e-001 
-4.712559e-001 
-4.990590e-001 
-4.512710e-001 
-4.011397e-001 
-3.390158e-001 
-2.851093e-001 
-2.623806e-001 
-2.642337e-001 
-2.795799e-001 
-2.499348e-001 
-1.484390e-001 
-4.661884e-002 
3.088278e-002 
8.514712e-002 
1.074469e-001 
1.152465e-001 
1.219216e-001 
1.307263e-001 
1.381247e-001 
1.476765e-001 
1.572050e-001 
1.608237e-001 
1.658410e-001 
1.746924e-001 
1.860725e-001 
1.953265e-001 
2.017152e-001 
2.081190e-001 
2.151960e-001 
2.162931e-001 
2.141983e-001 
2.157262e-001 
2.166026e-001 
2.117756e-001 
2.006996e-001 
1.891611e-001 
1.788907e-001 
1.653354e-001 
1.482621e-001 
1.346258e-001 
1.238266e-001 
1.099697e-001 
9.316777e-002 
7.685595e-002 
6.606199e-002 
5.379483e-002 
3.781144e-002 
2.701570e-002 
2.146655e-002 
1.368580e-002 
5.870044e-003 
-2.667377e-004 
-4.664015e-004 
2.275016e-004 
-5.861416e-003 
-1.140149e-002 
-1.097540e-002 
-1.151973e-002 
-1.637515e-002 
-2.193696e-002 
-2.359745e-002 
-2.497113e-002 
-3.356678e-002 
-4.091715e-002 
-4.411286e-002 
-4.445908e-002 
-4.825663e-002 
-5.481376e-002 
-5.887076e-002 
-5.895157e-002 
-6.339197e-002 
-6.836658e-002 
-6.815991e-002 
-6.556535e-002 
-6.272331e-002 
-6.512001e-002 
-6.423232e-002 
-5.716901e-002 
-5.014900e-002 
-4.750684e-002 
-4.535239e-002 
-4.342129e-002 
-4.099321e-002 
-4.283423e-002 
-4.775472e-002 
-4.382787e-002 
-4.215557e-002 
-4.848713e-002 
-5.297417e-002 
-5.650980e-002 
-6.166266e-002 
-6.263744e-002 
-6.708685e-002 
-7.148787e-002 
-7.151218e-002 
-6.736170e-002 
-4.573073e-002 
-2.215963e-002 
-8.484803e-002 
-2.007275e-001 
-2.817123e-001 
-3.420186e-001 
-3.669159e-001 
-3.493202e-001 
-3.094600e-001 
-2.692953e-001 
-3.063726e-001 
-4.248812e-001 
-4.470568e-001 
-3.852813e-001 
-3.284190e-001 
-2.548080e-001 
-1.979226e-001 
-1.807672e-001 
-1.902845e-001 
-2.080856e-001 
-1.666770e-001 
-4.391013e-002 
6.667780e-002 
1.496209e-001 
2.096405e-001 
2.292948e-001 
2.320759e-001 
2.368974e-001 
2.450385e-001 
2.504686e-001 
2.567121e-001 
2.663531e-001 
2.796033e-001 
2.914118e-001 
2.991752e-001 
3.105423e-001 
3.233338e-001 
3.311566e-001 
3.370286e-001 
3.450330e-001 
3.527761e-001 
3.548653e-001 
3.493892e-001 
3.440044e-001 
3.373429e-001 
3.236763e-001 
3.077220e-001 
2.935831e-001 
2.793652e-001 
2.600320e-001 
2.366439e-001 
2.174402e-001 
2.004967e-001 
1.791416e-001 
1.609656e-001 
1.472481e-001 
1.351307e-001 
1.205925e-001 
1.056681e-001 
9.764826e-002 
9.286296e-002 
8.465122e-002 
8.093439e-002 
8.366987e-002 
8.418688e-002 
8.276904e-002 
7.720088e-002 
7.454725e-002 
7.271077e-002 
6.453944e-002 
5.851479e-002 
5.702870e-002 
5.175194e-002 
4.411802e-002 
3.645812e-002 
2.993668e-002 
2.650191e-002 
1.986835e-002 
1.321979e-002 
1.079010e-002 
6.909512e-003 
1.293418e-003 
-4.778685e-003 
-8.086363e-003 
-1.029062e-002 
-1.565104e-002 
-2.028470e-002 
-2.109340e-002 
-1.836499e-002 
-1.889741e-002 
-2.036033e-002 
-1.808247e-002 
-1.393789e-002 
-1.569413e-002 
-1.924718e-002 
-1.941928e-002 
-1.894852e-002 
-2.084031e-002 
-2.739725e-002 
-2.801268e-002 
-2.686694e-002 
-3.135963e-002 
-3.744483e-002 
-3.960783e-002 
-4.064600e-002 
-4.368876e-002 
-4.995171e-002 
-5.384918e-002 
-5.368218e-002 
-5.516739e-002 
-4.119559e-002 
-9.370758e-003 
-1.918385e-002 
-1.260967e-001 
-2.363103e-001 
-3.003070e-001 
-3.337002e-001 
-3.332801e-001 
-3.051568e-001 
-2.557957e-001 
-2.432777e-001 
-3.404181e-001 
-4.362278e-001 
-3.906559e-001 
-3.142138e-001 
-2.491758e-001 
-1.878983e-001 
-1.532545e-001 
-1.489646e-001 
-1.699535e-001 
-1.704497e-001 
-7.681235e-002 
5.793829e-002 
1.475362e-001 
2.111340e-001 
2.451923e-001 
2.569400e-001 
2.590830e-001 
2.623884e-001 
2.705179e-001 
2.780915e-001 
2.853394e-001 
2.956732e-001 
3.094400e-001 
3.249278e-001 
3.368214e-001 
3.466469e-001 
3.593039e-001 
3.712804e-001 
3.773511e-001 
3.807386e-001 
3.844499e-001 
3.834538e-001 
3.766570e-001 
3.639128e-001 
3.492824e-001 
3.322789e-001 
3.112576e-001 
2.865254e-001 
2.640902e-001 
2.432374e-001 
2.182811e-001 
1.914940e-001 
1.655778e-001 
1.405341e-001 
1.151939e-001 
9.420220e-002 
7.712061e-002 
6.446628e-002 
5.180999e-002 
3.917777e-002 
3.160004e-002 
2.899814e-002 
2.448108e-002 
2.187429e-002 
2.459155e-002 
2.686500e-002 
2.550025e-002 
2.080148e-002 
1.635912e-002 
1.579653e-002 
1.238049e-002 
4.537736e-003 
2.064972e-003 
2.104323e-003 
-2.368443e-003 
-1.163141e-002 
-1.990363e-002 
-2.538267e-002 
-3.001865e-002 
-3.799883e-002 
-4.441552e-002 
-4.639493e-002 
-4.972186e-002 
-5.702687e-002 
-6.335700e-002 
-6.573507e-002 
-6.943732e-002 
-7.341951e-002 
-7.655915e-002 
-7.694992e-002 
-7.634352e-002 
-7.746056e-002 
-7.909879e-002 
-7.690838e-002 
-7.270200e-002 
-7.140223e-002 
-6.910337e-002 
-6.571287e-002 
-6.446081e-002 
-6.771397e-002 
-7.043884e-002 
-7.279168e-002 
-7.247241e-002 
-7.241289e-002 
-7.691607e-002 
-7.978006e-002 
-8.270007e-002 
-8.940367e-002 
-9.370080e-002 
-9.525663e-002 
-9.997566e-002 
-1.025491e-001 
-1.058107e-001 
-9.603777e-002 
-7.040307e-002 
-6.125085e-002 
-1.355216e-001 
-2.420190e-001 
-3.139734e-001 
-3.679503e-001 
-3.892271e-001 
-3.711961e-001 
-3.319763e-001 
-3.079584e-001 
-3.632921e-001 
-4.712535e-001 
-4.687040e-001 
-4.064052e-001 
-3.564780e-001 
-2.885507e-001 
-2.377592e-001 
-2.269734e-001 
-2.379794e-001 
-2.498819e-001 
-1.982990e-001 
-7.548828e-002 
2.316926e-002 
9.883167e-002 
1.519594e-001 
1.682189e-001 
1.718331e-001 
1.755111e-001 
1.770235e-001 
1.808277e-001 
1.902803e-001 
1.994183e-001 
2.070994e-001 
2.135516e-001 
2.201384e-001 
2.278227e-001 
2.351462e-001 
2.423234e-001 
2.524575e-001 
2.610638e-001 
2.639097e-001 
2.619798e-001 
2.585642e-001 
2.524159e-001 
2.409007e-001 
2.264671e-001 
2.131748e-001 
2.010846e-001 
1.837639e-001 
1.624446e-001 
1.418677e-001 
1.241804e-001 
1.040383e-001 
8.263157e-002 
6.557532e-002 
5.486729e-002 
4.269869e-002 
2.445737e-002 
1.027533e-002 
5.203147e-004 
-7.226427e-003 
-1.393174e-002 
-1.710647e-002 
-1.474084e-002 
-1.210354e-002 
-1.679564e-002 
-1.963625e-002 
-2.034815e-002 
-2.463354e-002 
-2.796284e-002 
-3.330133e-002 
-3.765652e-002 
-4.079851e-002 
-4.827262e-002 
-5.361570e-002 
-5.512847e-002 
-6.258929e-002 
-6.777400e-002 
-7.025029e-002 
-7.307549e-002 
-7.341665e-002 
-7.623241e-002 
-7.830751e-002 
-7.645772e-002 
-7.914595e-002 
-8.362114e-002 
-8.171616e-002 
-7.682478e-002 
-7.223637e-002 
-6.731150e-002 
-5.979928e-002 
-5.291435e-002 
-4.890544e-002 
-5.052046e-002 
-5.321399e-002 
-5.039959e-002 
-4.854789e-002 
-5.191074e-002 
-5.076740e-002 
-5.091875e-002 
-5.636839e-002 
-6.163338e-002 
-6.989519e-002 
-7.253364e-002 
-6.946843e-002 
-7.324877e-002 
-7.997939e-002 
-8.207056e-002 
-8.479996e-002 
-7.375282e-002 
-4.821368e-002 
-5.527276e-002 
-1.441496e-001 
-2.391068e-001 
-3.002693e-001 
-3.434296e-001 
-3.499149e-001 
-3.275105e-001 
-2.880138e-001 
-2.739820e-001 
-3.550193e-001 
-4.430729e-001 
-4.051999e-001 
-3.459381e-001 
-2.949675e-001 
-2.306549e-001 
-1.926819e-001 
-1.844143e-001 
-1.982487e-001 
-2.024258e-001 
-1.216914e-001 
3.923969e-004 
8.144470e-002 
1.461577e-001 
1.856372e-001 
1.989447e-001 
2.029117e-001 
2.038450e-001 
2.100116e-001 
2.200145e-001 
2.253614e-001 
2.307671e-001 
2.392466e-001 
2.506063e-001 
2.595310e-001 
2.661613e-001 
2.768910e-001 
2.905111e-001 
2.987556e-001 
3.055034e-001 
3.137214e-001 
3.177445e-001 
3.172203e-001 
3.116396e-001 
3.050730e-001 
2.965287e-001 
2.826917e-001 
2.670766e-001 
2.535621e-001 
2.366349e-001 
2.154715e-001 
1.974489e-001 
1.831851e-001 
1.666757e-001 
1.477142e-001 
1.322075e-001 
1.188955e-001 
1.059088e-001 
9.189958e-002 
8.113146e-002 
7.921208e-002 
7.768575e-002 
7.166520e-002 
7.067226e-002 
7.413725e-002 
7.481564e-002 
7.339997e-002 
7.211028e-002 
7.306165e-002 
7.375569e-002 
6.819489e-002 
6.306738e-002 
6.268222e-002 
6.132552e-002 
5.631415e-002 
5.069842e-002 
4.835714e-002 
4.517631e-002 
3.791541e-002 
3.109780e-002 
2.864017e-002 
2.637318e-002 
2.309568e-002 
1.826938e-002 
1.685075e-002 
1.667782e-002 
1.301946e-002 
9.624790e-003 
9.051978e-003 
1.111604e-002 
1.178445e-002 
1.221042e-002 
1.739156e-002 
2.378790e-002 
2.557280e-002 
2.702259e-002 
2.723640e-002 
2.880666e-002 
3.226841e-002 
3.022417e-002 
3.144552e-002 
3.670086e-002 
3.314419e-002 
2.643164e-002 
2.296402e-002 
2.040341e-002 
2.138479e-002 
2.059647e-002 
1.592490e-002 
1.730204e-002 
1.497443e-002 
1.565028e-002 
3.583428e-002 
5.842408e-002 
6.875718e-004 
-1.192367e-001 
-2.069079e-001 
-2.599638e-001 
-2.779861e-001 
-2.635333e-001 
-2.285953e-001 
-1.901893e-001 
-2.239860e-001 
-3.450517e-001 
-3.763129e-001 
-3.057582e-001 
-2.387691e-001 
-1.703197e-001 
-1.218003e-001 
-1.059254e-001 
-1.136060e-001 
-1.335265e-001 
-9.530214e-002 
3.042564e-002 
1.460130e-001 
2.226564e-001 
2.715215e-001 
2.884190e-001 
2.926066e-001 
2.925114e-001 
2.981787e-001 
3.064482e-001 
3.105348e-001 
3.183454e-001 
3.296240e-001 
3.413146e-001 
3.539071e-001 
3.630421e-001 
3.724679e-001 
3.832814e-001 
3.879388e-001 
3.898129e-001 
3.945004e-001 
3.924379e-001 
3.843149e-001 
3.730470e-001 
3.597859e-001 
3.439825e-001 
3.231413e-001 
2.993767e-001 
2.772605e-001 
2.541016e-001 
2.268785e-001 
2.006230e-001 
1.791533e-001 
1.591189e-001 
1.346742e-001 
1.124000e-001 
9.482260e-002 
7.996644e-002 
6.699942e-002 
5.811241e-002 
5.446095e-002 
5.364311e-002 
4.888542e-002 
4.390872e-002 
4.502583e-002 
4.483233e-002 
4.186213e-002 
4.018110e-002 
4.023486e-002 
3.862520e-002 
3.200824e-002 
2.191752e-002 
1.609162e-002 
1.194383e-002 
2.365612e-003 
-6.608112e-003 
-1.292899e-002 
-2.016210e-002 
-3.012583e-002 
-4.076781e-002 
-4.821595e-002 
-5.103432e-002 
-5.745336e-002 
-6.730505e-002 
-7.292932e-002 
-7.652786e-002 
-8.142133e-002 
-8.577293e-002 
-8.705459e-002 
-8.690560e-002 
-8.837811e-002 
-9.361023e-002 
-9.569699e-002 
-9.380504e-002 
-9.284385e-002 
-9.246611e-002 
-9.111011e-002 
-8.924429e-002 
-8.693612e-002 
-8.506543e-002 
-8.215093e-002 
-7.893449e-002 
-8.001622e-002 
-8.288876e-002 
-8.404050e-002 
-8.504823e-002 
-8.349531e-002 
-8.055354e-002 
-8.068314e-002 
-8.405419e-002 
-8.934175e-002 
-9.509055e-002 
-9.740133e-002 
-9.577388e-002 
-9.561860e-002 
-9.556724e-002 
-9.740681e-002 
-9.041913e-002 
-6.976863e-002 
-5.288592e-002 
-1.187145e-001 
-2.227712e-001 
-2.890195e-001 
-3.384929e-001 
-3.557465e-001 
-3.361374e-001 
-2.991228e-001 
-2.685690e-001 
-3.125941e-001 
-4.240945e-001 
-4.256506e-001 
-3.604381e-001 
-3.051245e-001 
-2.347343e-001 
-1.870194e-001 
-1.767762e-001 
-1.875692e-001 
-2.011452e-001 
-1.525274e-001 
-3.126699e-002 
6.812605e-002 
1.430737e-001 
1.895691e-001 
2.031874e-001 
2.055709e-001 
2.093477e-001 
2.179933e-001 
2.234889e-001 
2.312132e-001 
2.416829e-001 
2.482635e-001 
2.547046e-001 
2.627076e-001 
2.699687e-001 
2.797436e-001 
2.882305e-001 
2.963651e-001 
3.036261e-001 
3.031608e-001 
2.976072e-001 
2.908563e-001 
2.826110e-001 
2.715524e-001 
2.569005e-001 
2.418030e-001 
2.247980e-001 
2.012067e-001 
1.774143e-001 
1.566368e-001 
1.370838e-001 
1.170604e-001 
9.507252e-002 
7.628953e-002 
5.955377e-002 
3.875026e-002 
2.106215e-002 
1.062517e-002 
2.524760e-003 
-5.657241e-003 
-1.195594e-002 
-1.272309e-002 
-1.067603e-002 
-1.291502e-002 
-1.583110e-002 
-1.568172e-002 
-1.647283e-002 
-1.894987e-002 
-2.404195e-002 
-2.640843e-002 
-2.728656e-002 
-3.203003e-002 
-3.788823e-002 
-4.191615e-002 
-4.552312e-002 
-4.868274e-002 
-5.269648e-002 
-5.728188e-002 
-5.903856e-002 
-6.167753e-002 
-6.510102e-002 
-6.678878e-002 
-6.704306e-002 
-6.799513e-002 
-6.969944e-002 
-7.079424e-002 
-7.062560e-002 
-7.090190e-002 
-7.392425e-002 
-7.412311e-002 
-7.330112e-002 
-7.362758e-002 
-7.285915e-002 
-6.984757e-002 
-6.666252e-002 
-6.625001e-002 
-7.151367e-002 
-7.604258e-002 
-7.580142e-002 
-8.068436e-002 
-8.390847e-002 
-8.228225e-002 
-8.513058e-002 
-9.188867e-002 
-9.945516e-002 
-1.065728e-001 
-1.068299e-001 
-1.072849e-001 
-1.129478e-001 
-1.136366e-001 
-1.122909e-001 
-1.038316e-001 
-7.922860e-002 
-9.033629e-002 
-1.815005e-001 
-2.689089e-001 
-3.278615e-001 
-3.710565e-001 
-3.754227e-001 
-3.531708e-001 
-3.144996e-001 
-3.033681e-001 
-3.869597e-001 
-4.645233e-001 
-4.267637e-001 
-3.748617e-001 
-3.208222e-001 
-2.582584e-001 
-2.253374e-001 
-2.207212e-001 
-2.354561e-001 
-2.337163e-001 
-1.527386e-001 
-3.872981e-002 
4.329326e-002 
1.083566e-001 
1.411511e-001 
1.492100e-001 
1.532235e-001 
1.578245e-001 
1.604307e-001 
1.635823e-001 
1.683277e-001 
1.722145e-001 
1.764761e-001 
1.814336e-001 
1.864102e-001 
1.954970e-001 
2.021731e-001 
2.103717e-001 
2.185097e-001 
2.220626e-001 
2.250177e-001 
2.261171e-001 
2.222075e-001 
2.179056e-001 
2.127193e-001 
2.066276e-001 
2.006726e-001 
1.857082e-001 
1.707695e-001 
1.582748e-001 
1.424254e-001 
1.266597e-001 
1.117969e-001 
9.878147e-002 
8.714901e-002 
6.930329e-002 
5.124455e-002 
4.188918e-002 
3.207544e-002 
2.216774e-002 
1.572443e-002 
1.266895e-002 
1.156640e-002 
6.972410e-003 
-4.612552e-004 
-2.706231e-003 
-4.222076e-003 
-9.959769e-003 
-1.595127e-002 
-2.077924e-002 
-2.469140e-002 
-3.134560e-002 
-4.184903e-002 
-5.017724e-002 
-5.357253e-002 
-5.945240e-002 
-6.732402e-002 
-7.208625e-002 
-7.663644e-002 
-8.251900e-002 
-8.876336e-002 
-9.438059e-002 
-9.479856e-002 
-9.445504e-002 
-9.863683e-002 
-1.002442e-001 
-9.950358e-002 
-1.013251e-001 
-9.928836e-002 
-9.533596e-002 
-9.273738e-002 
-9.250951e-002 
-9.536337e-002 
-9.813972e-002 
-9.918159e-002 
-1.002790e-001 
-9.991027e-002 
-9.986329e-002 
-1.034900e-001 
-1.091340e-001 
-1.148752e-001 
-1.160777e-001 
-1.165097e-001 
-1.194254e-001 
-1.213656e-001 
-1.187920e-001 
-1.020679e-001 
-7.157808e-002 
-7.368283e-002 
-1.690527e-001 
-2.776903e-001 
-3.468361e-001 
-3.928767e-001 
-3.964704e-001 
-3.633782e-001 
-3.193902e-001 
-3.062457e-001 
-3.916684e-001 
-4.972471e-001 
-4.695455e-001 
-4.012267e-001 
-3.394828e-001 
-2.681934e-001 
-2.308028e-001 
-2.327977e-001 
-2.519423e-001 
-2.576475e-001 
-1.767468e-001 
-4.247449e-002 
5.359314e-002 
1.276289e-001 
1.695471e-001 
1.783660e-001 
1.841040e-001 
1.932420e-001 
2.016866e-001 
2.121365e-001 
2.220998e-001 
2.352475e-001 
2.506404e-001 
2.610685e-001 
2.723544e-001 
2.872245e-001 
2.957354e-001 
3.030149e-001 
3.122273e-001 
3.199728e-001 
3.246828e-001 
3.230605e-001 
3.168567e-001 
3.092304e-001 
2.963192e-001 
2.789696e-001 
2.644770e-001 
2.495887e-001 
2.295423e-001 
2.047670e-001 
1.815631e-001 
1.579821e-001 
1.343962e-001 
1.133757e-001 
9.537587e-002 
8.054917e-002 
6.435420e-002 
4.760689e-002 
3.673434e-002 
3.022549e-002 
2.369311e-002 
2.126003e-002 
2.308261e-002 
2.655632e-002 
2.803272e-002 
2.678333e-002 
2.829031e-002 
2.972133e-002 
2.611407e-002 
2.244046e-002 
2.062302e-002 
2.066843e-002 
1.727591e-002 
9.686588e-003 
4.234165e-003 
9.818721e-004 
-6.479496e-003 
-1.377358e-002 
-1.846162e-002 
-2.207246e-002 
-2.544648e-002 
-3.351247e-002 
-3.935368e-002 
-4.201876e-002 
-4.831580e-002 
-5.488270e-002 
-5.742205e-002 
-5.922831e-002 
-6.004099e-002 
-6.170737e-002 
-6.391544e-002 
-6.186998e-002 
-6.285599e-002 
-6.388904e-002 
-5.963494e-002 
-5.564559e-002 
-5.405843e-002 
-5.497098e-002 
-5.706411e-002 
-5.741211e-002 
-5.870609e-002 
-6.139530e-002 
-5.777970e-002 
-5.512023e-002 
-5.706358e-002 
-6.149098e-002 
-6.565584e-002 
-6.872178e-002 
-7.180720e-002 
-7.594003e-002 
-7.762467e-002 
-7.672074e-002 
-6.754541e-002 
-4.502165e-002 
-2.843934e-002 
-9.702312e-002 
-2.192120e-001 
-3.008895e-001 
-3.552322e-001 
-3.826052e-001 
-3.703396e-001 
-3.337012e-001 
-3.035740e-001 
-3.510714e-001 
-4.753051e-001 
-4.921403e-001 
-4.183130e-001 
-3.610054e-001 
-2.969347e-001 
-2.406915e-001 
-2.211115e-001 
-2.312681e-001 
-2.492770e-001 
-2.027165e-001 
-6.905611e-002 
4.714932e-002 
1.270237e-001 
1.847318e-001 
2.123673e-001 
2.193980e-001 
2.207905e-001 
2.276062e-001 
2.379091e-001 
2.504098e-001 
2.624170e-001 
2.716956e-001 
2.837139e-001 
2.950462e-001 
3.006538e-001 
3.087490e-001 
3.206328e-001 
3.319877e-001 
3.402546e-001 
3.406927e-001 
3.375494e-001 
3.324984e-001 
3.186614e-001 
3.016276e-001 
2.869171e-001 
2.725460e-001 
2.532521e-001 
2.256184e-001 
1.968394e-001 
1.708509e-001 
1.415595e-001 
1.121104e-001 
8.764293e-002 
6.903743e-002 
5.094850e-002 
2.908668e-002 
1.062055e-002 
-3.403528e-003 
-1.695698e-002 
-2.809524e-002 
-3.345102e-002 
-3.458063e-002 
-3.258558e-002 
-3.360440e-002 
-3.426859e-002 
-3.450354e-002 
-3.722109e-002 
-4.005763e-002 
-4.136098e-002 
-4.076555e-002 
-4.197838e-002 
-4.533737e-002 
-5.007577e-002 
-5.501152e-002 
-6.259781e-002 
-6.908861e-002 
-7.439724e-002 
-7.622675e-002 
-7.909828e-002 
-8.486448e-002 
-8.746829e-002 
-8.942038e-002 
-9.542096e-002 
-1.013825e-001 
-1.042309e-001 
-1.048545e-001 
-1.056384e-001 
-1.095992e-001 
-1.088342e-001 
-1.060850e-001 
-1.080160e-001 
-1.075690e-001 
-9.994884e-002 
-9.312022e-002 
-9.041053e-002 
-9.190042e-002 
-9.195134e-002 
-8.942126e-002 
-9.333515e-002 
-9.817202e-002 
-9.376275e-002 
-8.936975e-002 
-9.244190e-002 
-9.744952e-002 
-9.816656e-002 
-9.577119e-002 
-9.717453e-002 
-1.023202e-001 
-1.022361e-001 
-9.706767e-002 
-9.044148e-002 
-7.480204e-002 
-4.851092e-002 
-8.190179e-002 
-1.880410e-001 
-2.725018e-001 
-3.245684e-001 
-3.473398e-001 
-3.343641e-001 
-3.065129e-001 
-2.698910e-001 
-2.828651e-001 
-3.918665e-001 
-4.434637e-001 
-3.876187e-001 
-3.302060e-001 
-2.672131e-001 
-2.166436e-001 
-1.974079e-001 
-1.969576e-001 
-2.184345e-001 
-2.035197e-001 
-9.779939e-002 
1.604193e-002 
9.535982e-002 
1.491417e-001 
1.696974e-001 
1.776418e-001 
1.759966e-001 
1.732971e-001 
1.790703e-001 
1.898003e-001 
1.991267e-001 
2.070163e-001 
2.151060e-001 
2.252260e-001 
2.318534e-001 
2.365344e-001 
2.470281e-001 
2.613593e-001 
2.703775e-001 
2.741790e-001 
2.787720e-001 
2.790439e-001 
2.736698e-001 
2.653471e-001 
2.582149e-001 
2.539244e-001 
2.447270e-001 
2.272532e-001 
2.122147e-001 
1.970078e-001 
1.759675e-001 
1.562199e-001 
1.392993e-001 
1.260178e-001 
1.132853e-001 
9.544604e-002 
8.000402e-002 
7.052111e-002 
5.776342e-002 
4.732846e-002 
4.357033e-002 
4.174928e-002 
4.163251e-002 
3.935711e-002 
3.602736e-002 
3.552942e-002 
3.149292e-002 
2.551460e-002 
2.611312e-002 
2.561238e-002 
2.291115e-002 
2.087330e-002 
1.708754e-002 
1.309975e-002 
8.611013e-003 
3.667110e-003 
4.661942e-003 
5.374792e-003 
2.060935e-003 
5.957676e-004 
4.562301e-004 
-1.241059e-004 
-2.065730e-003 
-2.072857e-003 
2.667781e-003 
5.620228e-003 
7.315618e-003 
1.269440e-002 
1.683372e-002 
2.156332e-002 
2.201620e-002 
1.697565e-002 
1.694723e-002 
1.788623e-002 
1.380169e-002 
1.595103e-002 
1.810410e-002 
1.472131e-002 
1.032112e-002 
2.558489e-003 
-2.671262e-003 
-4.020448e-004 
-2.566319e-003 
-7.754086e-003 
-7.461650e-003 
-9.996112e-003 
-1.588326e-003 
2.314371e-002 
3.708105e-002 
-3.396809e-002 
-1.404342e-001 
-2.135177e-001 
-2.605284e-001 
-2.716967e-001 
-2.507439e-001 
-2.111709e-001 
-1.834525e-001 
-2.372957e-001 
-3.469285e-001 
-3.429889e-001 
-2.756793e-001 
-2.138270e-001 
-1.448371e-001 
-1.008645e-001 
-9.255920e-002 
-1.029564e-001 
-1.126190e-001 
-5.636416e-002 
6.878020e-002 
1.685314e-001 
2.417049e-001 
2.831431e-001 
2.934521e-001 
2.981735e-001 
3.066645e-001 
3.116849e-001 
3.156706e-001 
3.245105e-001 
3.341983e-001 
3.420994e-001 
3.505086e-001 
3.615973e-001 
3.751204e-001 
3.853671e-001 
3.902634e-001 
4.003376e-001 
4.102131e-001 
4.143056e-001 
4.156654e-001 
4.147980e-001 
4.102745e-001 
4.027560e-001 
3.893817e-001 
3.757649e-001 
3.631228e-001 
3.446458e-001 
3.237268e-001 
3.036985e-001 
2.842833e-001 
2.649308e-001 
2.447165e-001 
2.252273e-001 
2.086643e-001 
1.920761e-001 
1.756480e-001 
1.622890e-001 
1.517441e-001 
1.419952e-001 
1.337433e-001 
1.276715e-001 
1.232032e-001 
1.191764e-001 
1.169411e-001 
1.134335e-001 
1.073956e-001 
1.003267e-001 
9.435551e-002 
8.948503e-002 
8.232688e-002 
7.412433e-002 
6.844228e-002 
6.438426e-002 
5.577167e-002 
4.671076e-002 
4.242344e-002 
3.927487e-002 
3.313525e-002 
2.630643e-002 
2.187365e-002 
1.925187e-002 
1.483501e-002 
8.467468e-003 
6.321090e-003 
7.310233e-003 
5.620615e-003 
3.511614e-003 
2.544130e-003 
4.751559e-003 
8.202714e-003 
9.117611e-003 
1.128419e-002 
1.262787e-002 
8.339495e-003 
3.505678e-003 
-1.644191e-004 
-4.366889e-003 
-3.787847e-003 
-4.894095e-003 
-8.626233e-003 
-1.303298e-002 
-2.168971e-002 
-2.949019e-002 
-3.183830e-002 
-3.550793e-002 
-4.037688e-002 
-4.276831e-002 
-4.071217e-002 
-2.452178e-002 
-3.637775e-003 
-4.927196e-002 
-1.737627e-001 
-2.723214e-001 
-3.334367e-001 
-3.733504e-001 
-3.696946e-001 
-3.370229e-001 
-2.983095e-001 
-3.173765e-001 
-4.375799e-001 
-4.995720e-001 
-4.319852e-001 
-3.689198e-001 
-3.083990e-001 
-2.427152e-001 
-2.160186e-001 
-2.228685e-001 
-2.448229e-001 
-2.227045e-001 
-1.032841e-001 
2.895136e-002 
1.154263e-001 
1.799030e-001 
2.081651e-001 
2.092832e-001 
2.068530e-001 
2.118615e-001 
2.178934e-001 
2.234489e-001 
2.316474e-001 
2.384999e-001 
2.429615e-001 
2.472949e-001 
2.544601e-001 
2.674878e-001 
2.799711e-001 
2.872440e-001 
2.942081e-001 
2.982754e-001 
2.975281e-001 
2.921717e-001 
2.857947e-001 
2.810928e-001 
2.716786e-001 
2.560802e-001 
2.419862e-001 
2.239707e-001 
1.994884e-001 
1.743370e-001 
1.498822e-001 
1.295579e-001 
1.091232e-001 
8.754877e-002 
6.993427e-002 
5.102290e-002 
2.589477e-002 
4.954325e-003 
-7.660172e-003 
-1.435235e-002 
-1.831390e-002 
-2.472408e-002 
-2.687936e-002 
-2.761429e-002 
-3.390674e-002 
-3.966948e-002 
-3.782016e-002 
-3.501919e-002 
-3.697716e-002 
-4.434150e-002 
-5.314742e-002 
-5.640747e-002 
-6.267396e-002 
-7.288019e-002 
-8.015150e-002 
-8.096651e-002 
-8.584556e-002 
-9.689594e-002 
-1.061425e-001 
-1.094407e-001 
-1.100708e-001 
-1.158909e-001 
-1.216676e-001 
-1.210839e-001 
-1.172158e-001 
-1.200274e-001 
-1.223354e-001 
-1.145115e-001 
-1.042148e-001 
-1.001787e-001 
-9.676833e-002 
-9.172858e-002 
-8.856569e-002 
-8.572017e-002 
-8.724668e-002 
-8.542471e-002 
-8.069565e-002 
-8.523621e-002 
-8.964115e-002 
-8.829040e-002 
-9.252915e-002 
-9.517044e-002 
-9.303015e-002 
-9.756251e-002 
-9.982143e-002 
-1.036652e-001 
-9.896140e-002 
-7.564924e-002 
-5.067807e-002 
