89
2.3177
418.4831
2.5086
-6.785676e-003 
-1.612382e-002 
-2.159678e-002 
-2.559928e-002 
-2.859527e-002 
-3.048096e-002 
-3.163131e-002 
-3.041549e-002 
-3.050955e-002 
-3.350971e-002 
-2.349074e-002 
-3.921901e-003 
1.708093e-002 
4.021554e-002 
6.516479e-002 
9.214056e-002 
1.218299e-001 
1.508380e-001 
1.809976e-001 
2.133775e-001 
2.379689e-001 
2.533780e-001 
2.603769e-001 
2.607211e-001 
2.564105e-001 
2.462852e-001 
2.283666e-001 
2.045434e-001 
1.759551e-001 
1.427305e-001 
1.054845e-001 
6.494368e-002 
2.311562e-002 
-1.731717e-002 
-5.619816e-002 
-9.245214e-002 
-1.220729e-001 
-1.470700e-001 
-1.672047e-001 
-1.802189e-001 
-1.873601e-001 
-1.912510e-001 
-1.884576e-001 
-1.820553e-001 
-1.749815e-001 
-1.679202e-001 
-1.653287e-001 
-1.618159e-001 
-1.559098e-001 
-1.547083e-001 
89
2.3177
418.4831
2.5086
-1.555952e-001 
-1.506011e-001 
-1.434860e-001 
-1.362517e-001 
-1.323625e-001 
-1.323506e-001 
-1.312833e-001 
-1.298011e-001 
-1.283413e-001 
-1.222702e-001 
-1.099515e-001 
-1.019078e-001 
-1.048770e-001 
-1.139836e-001 
-1.234899e-001 
-1.298595e-001 
-1.327115e-001 
-1.354178e-001 
-1.383794e-001 
-1.446938e-001 
-1.621195e-001 
-1.804132e-001 
-1.915017e-001 
-1.988112e-001 
-1.980644e-001 
-1.618207e-001 
-5.674123e-002 
6.266886e-002 
1.155341e-001 
7.295091e-002 
-3.995592e-003 
-4.231566e-002 
-4.153182e-002 
-8.974930e-003 
8.250585e-002 
1.805106e-001 
1.644057e-001 
3.842131e-002 
-9.228242e-002 
-1.059500e-001 
-3.421405e-002 
1.943962e-002 
3.531978e-002 
1.906976e-002 
-6.143137e-002 
-1.810111e-001 
-2.536158e-001 
-2.284411e-001 
-1.285020e-001 
-4.454821e-002 
-1.690624e-004 
3.209004e-002 
6.799871e-002 
1.084467e-001 
1.556148e-001 
2.024111e-001 
2.458409e-001 
2.864382e-001 
3.203996e-001 
3.495373e-001 
3.737414e-001 
3.866483e-001 
3.911545e-001 
3.888735e-001 
3.741913e-001 
3.552623e-001 
3.323251e-001 
3.016759e-001 
2.651439e-001 
2.228739e-001 
1.746863e-001 
1.255305e-001 
7.424976e-002 
2.458165e-002 
-1.893657e-002 
-6.033037e-002 
-9.828049e-002 
-1.290902e-001 
-1.522551e-001 
-1.685562e-001 
-1.778245e-001 
-1.811864e-001 
-1.803623e-001 
-1.786997e-001 
-1.763275e-001 
-1.721992e-001 
-1.682141e-001 
-1.645009e-001 
-1.603662e-001 
-1.557488e-001 
-1.524097e-001 
-1.518809e-001 
-1.513445e-001 
-1.497428e-001 
-1.487238e-001 
-1.489916e-001 
-1.504534e-001 
-1.525231e-001 
-1.542897e-001 
-1.554166e-001 
-1.532963e-001 
-1.467557e-001 
-1.409206e-001 
-1.387902e-001 
-1.371209e-001 
-1.317574e-001 
-1.217878e-001 
-1.104247e-001 
-9.918457e-002 
-9.236066e-002 
-9.174355e-002 
-9.776553e-002 
-1.064585e-001 
-1.086757e-001 
-1.066616e-001 
-1.075431e-001 
-1.127848e-001 
-1.234748e-001 
-1.391888e-001 
-1.516946e-001 
-1.608389e-001 
-1.573710e-001 
-1.074000e-001 
7.866276e-003 
1.259291e-001 
1.739805e-001 
1.236203e-001 
3.838092e-002 
-2.984754e-003 
-1.863596e-003 
3.801206e-002 
1.358256e-001 
2.255902e-001 
1.999340e-001 
7.000148e-002 
-6.110942e-002 
-7.223151e-002 
1.843167e-003 
5.683814e-002 
6.936881e-002 
4.401648e-002 
-4.394515e-002 
-1.650288e-001 
-2.378269e-001 
-2.100706e-001 
-1.072402e-001 
-1.966983e-002 
2.468089e-002 
5.320816e-002 
8.892865e-002 
1.304787e-001 
1.736195e-001 
2.190226e-001 
2.652593e-001 
3.086035e-001 
3.480914e-001 
3.829474e-001 
4.127843e-001 
4.357277e-001 
4.488398e-001 
4.506857e-001 
4.436299e-001 
4.296288e-001 
4.077226e-001 
3.818890e-001 
3.484439e-001 
3.057659e-001 
2.575170e-001 
2.050636e-001 
1.510781e-001 
1.016286e-001 
5.284776e-002 
5.137238e-003 
-3.698650e-002 
-7.688496e-002 
-1.097094e-001 
-1.325485e-001 
-1.459851e-001 
-1.512303e-001 
-1.528112e-001 
-1.573784e-001 
-1.571265e-001 
-1.546797e-001 
-1.525526e-001 
-1.469579e-001 
-1.411736e-001 
-1.368462e-001 
-1.342553e-001 
-1.370163e-001 
-1.407284e-001 
-1.399368e-001 
-1.416144e-001 
-1.434012e-001 
-1.458327e-001 
-1.508983e-001 
-1.561244e-001 
-1.619380e-001 
-1.683853e-001 
-1.705730e-001 
-1.714382e-001 
-1.748700e-001 
-1.764504e-001 
-1.743640e-001 
-1.676911e-001 
-1.594343e-001 
-1.533475e-001 
-1.494715e-001 
-1.436634e-001 
-1.352842e-001 
-1.237676e-001 
-1.086302e-001 
-9.453946e-002 
-8.673399e-002 
-8.408496e-002 
-8.714234e-002 
-9.372997e-002 
-9.355110e-002 
-8.892264e-002 
-8.863085e-002 
-9.589154e-002 
-1.094120e-001 
-1.232013e-001 
-1.337076e-001 
-1.440166e-001 
-1.412526e-001 
-8.923143e-002 
2.853801e-002 
1.421605e-001 
1.844271e-001 
1.326819e-001 
5.111963e-002 
1.220358e-002 
1.245498e-002 
5.264847e-002 
1.508017e-001 
2.360681e-001 
2.005800e-001 
6.666463e-002 
-6.054809e-002 
-6.188515e-002 
1.186377e-002 
6.200206e-002 
7.569903e-002 
4.681540e-002 
-4.675284e-002 
-1.670259e-001 
-2.332094e-001 
-1.980428e-001 
-9.213168e-002 
-1.024339e-002 
3.551436e-002 
6.738298e-002 
1.011024e-001 
1.464467e-001 
1.955205e-001 
2.435872e-001 
2.908203e-001 
3.353903e-001 
3.766458e-001 
4.144737e-001 
4.448630e-001 
4.703420e-001 
4.894236e-001 
4.972262e-001 
4.965956e-001 
4.888224e-001 
4.756810e-001 
4.575103e-001 
4.298895e-001 
3.947423e-001 
3.568225e-001 
3.125020e-001 
2.642610e-001 
2.160802e-001 
1.683938e-001 
1.221880e-001 
7.623318e-002 
2.988214e-002 
-1.045341e-002 
-4.522269e-002 
-7.700236e-002 
-1.025636e-001 
-1.241193e-001 
-1.438980e-001 
-1.629239e-001 
-1.822928e-001 
-2.008590e-001 
-2.162514e-001 
-2.320328e-001 
-2.468428e-001 
-2.608309e-001 
-2.745815e-001 
-2.877684e-001 
-2.990936e-001 
-3.100981e-001 
-3.192391e-001 
-3.237154e-001 
-3.290836e-001 
-3.351218e-001 
-3.382726e-001 
-3.412579e-001 
-3.450583e-001 
-3.471741e-001 
-3.517122e-001 
-3.520257e-001 
-3.487740e-001 
-3.453346e-001 
-3.360747e-001 
-3.239532e-001 
-3.151895e-001 
-3.055053e-001 
-2.958127e-001 
-2.838098e-001 
-2.672136e-001 
-2.510304e-001 
-2.352958e-001 
-2.261246e-001 
-2.236020e-001 
-2.228188e-001 
-2.249494e-001 
-2.271325e-001 
-2.214888e-001 
-2.197339e-001 
-2.222938e-001 
-2.291511e-001 
-2.393258e-001 
-2.433219e-001 
-2.458612e-001 
-2.303488e-001 
-1.403283e-001 
-1.196102e-003 
8.532629e-002 
7.101886e-002 
-9.242969e-003 
-6.536942e-002 
-7.311490e-002 
-5.694124e-002 
1.465628e-002 
1.364262e-001 
1.760898e-001 
7.464147e-002 
-7.173772e-002 
-1.238059e-001 
-5.998085e-002 
1.080204e-002 
3.813128e-002 
4.126301e-002 
-7.298015e-003 
-1.217978e-001 
-2.211534e-001 
-2.232394e-001 
-1.300270e-001 
-2.501605e-002 
3.552888e-002 
7.156979e-002 
1.107885e-001 
1.539081e-001 
1.997739e-001 
2.515539e-001 
3.029479e-001 
3.483346e-001 
3.887678e-001 
4.258091e-001 
4.574477e-001 
4.802179e-001 
4.946802e-001 
5.024530e-001 
4.996435e-001 
4.824877e-001 
4.569632e-001 
4.298062e-001 
3.971234e-001 
3.527973e-001 
3.039359e-001 
2.565477e-001 
2.041258e-001 
1.472317e-001 
9.409631e-002 
4.913436e-002 
7.944949e-003 
-3.295123e-002 
-6.798229e-002 
-9.134263e-002 
-1.078143e-001 
-1.224019e-001 
-1.280615e-001 
-1.253154e-001 
-1.232522e-001 
-1.239870e-001 
-1.225320e-001 
-1.183546e-001 
-1.147949e-001 
-1.148521e-001 
-1.146768e-001 
-1.113960e-001 
-1.120241e-001 
-1.177939e-001 
-1.220651e-001 
-1.232371e-001 
-1.242342e-001 
-1.274368e-001 
-1.316465e-001 
-1.334601e-001 
-1.358569e-001 
-1.386092e-001 
-1.364809e-001 
-1.283851e-001 
-1.206062e-001 
-1.178545e-001 
-1.174027e-001 
-1.117273e-001 
-9.993906e-002 
-8.733233e-002 
-7.263193e-002 
-5.987725e-002 
-5.488908e-002 
-5.892775e-002 
-6.688379e-002 
-7.022638e-002 
-6.597120e-002 
-6.373741e-002 
-6.870401e-002 
-7.749964e-002 
-9.181678e-002 
-1.057013e-001 
-1.142460e-001 
-1.111834e-001 
-6.415671e-002 
5.069475e-002 
1.709963e-001 
2.230569e-001 
1.768043e-001 
9.642300e-002 
5.720812e-002 
5.559799e-002 
9.052020e-002 
1.830469e-001 
2.732683e-001 
2.545894e-001 
1.261594e-001 
-6.043709e-003 
-1.606307e-002 
5.171161e-002 
1.030317e-001 
1.228526e-001 
1.054307e-001 
2.628985e-002 
-8.576210e-002 
-1.556514e-001 
-1.237573e-001 
-1.667660e-002 
7.460110e-002 
1.334331e-001 
1.804454e-001 
2.271068e-001 
2.780018e-001 
3.319005e-001 
3.859048e-001 
4.393112e-001 
4.895162e-001 
5.366014e-001 
5.796963e-001 
6.134213e-001 
6.313842e-001 
6.373274e-001 
6.362325e-001 
6.244514e-001 
6.015535e-001 
5.735572e-001 
5.415159e-001 
5.018348e-001 
4.511986e-001 
3.906062e-001 
3.290674e-001 
2.696036e-001 
2.096361e-001 
1.529954e-001 
1.022305e-001 
5.539221e-002 
1.166577e-002 
-2.781640e-002 
-5.899243e-002 
-7.880081e-002 
-9.102276e-002 
-9.686710e-002 
-9.918705e-002 
-1.020146e-001 
-1.045567e-001 
-1.051790e-001 
-1.057518e-001 
-1.065907e-001 
-1.081103e-001 
-1.101498e-001 
-1.113041e-001 
-1.165754e-001 
-1.228085e-001 
-1.250660e-001 
-1.246579e-001 
-1.245852e-001 
-1.246424e-001 
-1.257643e-001 
-1.262510e-001 
-1.256330e-001 
-1.212999e-001 
-1.110169e-001 
-1.009064e-001 
-9.031675e-002 
-8.471005e-002 
-8.756092e-002 
-9.204132e-002 
-9.612525e-002 
-9.749440e-002 
-9.582329e-002 
-9.925549e-002 
-1.065716e-001 
-1.159966e-001 
-1.327566e-001 
-1.458132e-001 
-1.500018e-001 
-1.444492e-001 
-9.693608e-002 
1.611468e-002 
1.363727e-001 
1.934127e-001 
1.487557e-001 
6.382894e-002 
2.056755e-002 
1.947548e-002 
5.630938e-002 
1.506129e-001 
2.432572e-001 
2.255486e-001 
9.986530e-002 
-3.525458e-002 
-5.192628e-002 
1.673754e-002 
7.309934e-002 
8.809983e-002 
6.419349e-002 
-2.145137e-002 
-1.452868e-001 
-2.226094e-001 
-1.982648e-001 
-9.761685e-002 
-8.451754e-003 
4.407679e-002 
7.880244e-002 
1.186027e-001 
1.623547e-001 
2.071999e-001 
2.557789e-001 
3.014920e-001 
3.430124e-001 
3.832706e-001 
4.196760e-001 
4.470380e-001 
4.630942e-001 
4.701554e-001 
4.691274e-001 
4.585861e-001 
4.402270e-001 
4.181318e-001 
3.928704e-001 
3.569621e-001 
3.084161e-001 
2.570042e-001 
2.074893e-001 
1.569146e-001 
1.072192e-001 
6.292541e-002 
2.417368e-002 
-1.273672e-002 
-5.093667e-002 
-7.842593e-002 
-9.269974e-002 
-1.003422e-001 
-1.051256e-001 
-1.049162e-001 
-1.019308e-001 
-1.005839e-001 
-1.016125e-001 
-1.004608e-001 
-9.494497e-002 
-9.325408e-002 
-9.388018e-002 
-9.540400e-002 
-9.678154e-002 
-1.011383e-001 
-1.046383e-001 
-1.023435e-001 
-9.846945e-002 
-9.767496e-002 
-1.001951e-001 
-1.027295e-001 
-1.004539e-001 
-9.371269e-002 
-8.877140e-002 
-8.005912e-002 
-7.363299e-002 
-7.728587e-002 
-8.585375e-002 
-9.618618e-002 
-1.012207e-001 
-9.975017e-002 
-1.037531e-001 
-1.134731e-001 
-1.213121e-001 
-1.362839e-001 
-1.535989e-001 
-1.641532e-001 
-1.612442e-001 
-1.134168e-001 
3.821615e-003 
1.237691e-001 
1.739274e-001 
1.222465e-001 
3.062499e-002 
-1.625722e-002 
-1.681653e-002 
2.023913e-002 
1.161002e-001 
2.087885e-001 
1.802880e-001 
4.308486e-002 
-9.559250e-002 
-1.078842e-001 
-3.508804e-002 
2.047024e-002 
3.285667e-002 
4.941864e-003 
-8.588514e-002 
-2.111466e-001 
-2.866807e-001 
-2.569286e-001 
-1.497370e-001 
-6.062452e-002 
-1.152838e-002 
1.808866e-002 
5.596690e-002 
1.041193e-001 
1.492395e-001 
1.940743e-001 
2.432127e-001 
2.908673e-001 
3.318689e-001 
3.661209e-001 
3.940590e-001 
4.166747e-001 
4.264384e-001 
4.224377e-001 
4.136705e-001 
3.995557e-001 
3.757460e-001 
3.430391e-001 
3.064964e-001 
2.634404e-001 
2.122903e-001 
1.577922e-001 
1.040091e-001 
5.090621e-002 
-5.689654e-004 
-4.806687e-002 
-8.842544e-002 
-1.231550e-001 
-1.547338e-001 
-1.765202e-001 
-1.883976e-001 
-1.976932e-001 
-2.029444e-001 
-2.007938e-001 
-1.958425e-001 
-1.923529e-001 
-1.936449e-001 
-1.927306e-001 
-1.891453e-001 
-1.883414e-001 
-1.892988e-001 
-1.841337e-001 
-1.754205e-001 
-1.686645e-001 
-1.680862e-001 
-1.723473e-001 
-1.688235e-001 
-1.625615e-001 
-1.558013e-001 
-1.477769e-001 
-1.388935e-001 
-1.364535e-001 
-1.416144e-001 
-1.550516e-001 
-1.641169e-001 
-1.626785e-001 
-1.645625e-001 
-1.708576e-001 
-1.799472e-001 
-1.939848e-001 
-2.110120e-001 
-2.254666e-001 
-2.347467e-001 
-2.173811e-001 
-1.384539e-001 
-6.207641e-003 
9.790559e-002 
1.003767e-001 
1.880495e-002 
-5.738294e-002 
-8.221123e-002 
-6.838781e-002 
-6.074996e-003 
1.070701e-001 
1.661205e-001 
8.005406e-002 
-8.062820e-002 
-1.696823e-001 
-1.325992e-001 
-5.825450e-002 
-2.280951e-002 
-2.469307e-002 
-7.274926e-002 
-1.897527e-001 
-3.106482e-001 
-3.428262e-001 
-2.710906e-001 
-1.646563e-001 
-9.479842e-002 
-5.797939e-002 
-2.191792e-002 
2.107476e-002 
6.465088e-002 
1.130057e-001 
1.628177e-001 
2.115605e-001 
2.581468e-001 
2.998989e-001 
3.365372e-001 
3.672391e-001 
3.849288e-001 
3.903518e-001 
3.908738e-001 
3.813055e-001 
3.610814e-001 
3.360830e-001 
3.045408e-001 
2.657417e-001 
2.199651e-001 
1.674708e-001 
1.151346e-001 
6.513805e-002 
1.168069e-002 
-3.776155e-002 
-8.003140e-002 
-1.194119e-001 
-1.536469e-001 
-1.812676e-001 
-1.989880e-001 
-2.076959e-001 
-2.129601e-001 
-2.161415e-001 
-2.126559e-001 
-2.088458e-001 
-2.077676e-001 
-2.072924e-001 
-2.060674e-001 
-2.030948e-001 
-1.985252e-001 
-1.919343e-001 
-1.847093e-001 
-1.797680e-001 
-1.799798e-001 
-1.789904e-001 
-1.707992e-001 
-1.613904e-001 
-1.524071e-001 
-1.420766e-001 
-1.387815e-001 
-1.427843e-001 
-1.510734e-001 
-1.599922e-001 
-1.595615e-001 
-1.580164e-001 
-1.661008e-001 
-1.758360e-001 
-1.881450e-001 
-2.035819e-001 
-2.158044e-001 
-2.271466e-001 
-2.262299e-001 
-1.802055e-001 
-6.748401e-002 
5.654378e-002 
1.122945e-001 
6.305710e-002 
-2.011634e-002 
-6.143292e-002 
-6.197523e-002 
-2.346156e-002 
7.574851e-002 
1.762156e-001 
1.562194e-001 
1.634879e-002 
-1.225995e-001 
-1.283539e-001 
-5.151819e-002 
9.738195e-004 
1.189833e-002 
-1.093423e-002 
-1.004398e-001 
-2.300048e-001 
-3.095707e-001 
-2.785350e-001 
-1.703222e-001 
-8.580158e-002 
-4.445377e-002 
-1.191849e-002 
2.764914e-002 
7.109842e-002 
1.187611e-001 
1.664462e-001 
2.138668e-001 
2.583437e-001 
2.990794e-001 
3.360739e-001 
3.675705e-001 
3.863827e-001 
3.960800e-001 
3.973481e-001 
3.887700e-001 
3.723723e-001 
3.503684e-001 
3.220420e-001 
2.839595e-001 
2.360901e-001 
1.835092e-001 
1.321036e-001 
8.189629e-002 
3.195644e-002 
-1.579177e-002 
-6.019581e-002 
-1.011918e-001 
-1.377118e-001 
-1.681890e-001 
-1.880983e-001 
-1.988089e-001 
-2.030028e-001 
-2.052666e-001 
-2.065068e-001 
-2.066626e-001 
-2.040255e-001 
-2.010069e-001 
-1.982671e-001 
-1.947460e-001 
-1.905544e-001 
-1.848841e-001 
-1.797710e-001 
-1.750646e-001 
-1.735229e-001 
-1.720108e-001 
-1.680914e-001 
-1.600305e-001 
-1.517388e-001 
-1.427813e-001 
-1.348301e-001 
-1.323095e-001 
-1.369273e-001 
-1.475750e-001 
-1.533148e-001 
-1.515878e-001 
-1.531196e-001 
-1.619625e-001 
-1.713344e-001 
-1.837237e-001 
-1.962916e-001 
-2.083449e-001 
-2.147744e-001 
-1.866510e-001 
-8.945965e-002 
4.216390e-002 
1.311204e-001 
1.161495e-001 
3.364551e-002 
-2.567334e-002 
-3.924193e-002 
-1.731505e-002 
6.216594e-002 
1.764733e-001 
2.080780e-001 
1.036820e-001 
-5.383513e-002 
-1.113118e-001 
-5.507024e-002 
1.095503e-002 
3.643083e-002 
2.814823e-002 
-3.601835e-002 
-1.610591e-001 
-2.701532e-001 
-2.810639e-001 
-1.925028e-001 
-9.364224e-002 
-3.554650e-002 
-2.132258e-003 
3.215850e-002 
7.295282e-002 
1.173075e-001 
1.646193e-001 
2.111031e-001 
2.565523e-001 
2.994791e-001 
3.373642e-001 
3.688645e-001 
3.930348e-001 
4.087705e-001 
4.141147e-001 
4.076232e-001 
3.918232e-001 
3.712928e-001 
3.433061e-001 
3.071653e-001 
2.660898e-001 
2.198691e-001 
1.700963e-001 
1.167968e-001 
6.301207e-002 
1.408015e-002 
-2.971474e-002 
-7.134881e-002 
-1.076436e-001 
-1.377006e-001 
-1.608493e-001 
-1.770741e-001 
-1.887058e-001 
-1.932779e-001 
-1.922486e-001 
-1.897884e-001 
-1.883681e-001 
-1.868752e-001 
-1.859118e-001 
-1.846097e-001 
-1.850720e-001 
-1.855010e-001 
-1.813535e-001 
-1.762244e-001 
-1.743903e-001 
-1.764558e-001 
-1.791119e-001 
-1.756776e-001 
-1.682136e-001 
-1.628740e-001 
-1.562967e-001 
-1.512080e-001 
-1.532243e-001 
-1.615221e-001 
-1.727499e-001 
-1.774671e-001 
-1.761447e-001 
-1.815614e-001 
-1.917514e-001 
-2.034130e-001 
-2.201019e-001 
-2.358816e-001 
-2.473193e-001 
-2.510980e-001 
-2.234675e-001 
-1.300111e-001 
2.859672e-003 
9.565375e-002 
8.003404e-002 
-6.275858e-003 
-6.600677e-002 
-7.606118e-002 
-5.318362e-002 
2.599223e-002 
1.400725e-001 
1.734108e-001 
6.864936e-002 
-9.259124e-002 
-1.519869e-001 
-9.144177e-002 
-2.139812e-002 
5.288519e-003 
-3.616328e-003 
-7.061770e-002 
-1.946010e-001 
-3.039945e-001 
-3.168325e-001 
-2.285468e-001 
-1.265442e-001 
-6.530937e-002 
-3.309913e-002 
-1.028301e-003 
4.185245e-002 
8.923501e-002 
1.344184e-001 
1.787853e-001 
2.235366e-001 
2.684362e-001 
3.044443e-001 
3.327973e-001 
3.587758e-001 
3.770401e-001 
3.814471e-001 
3.740738e-001 
3.594353e-001 
3.418778e-001 
3.159077e-001 
2.780067e-001 
2.375484e-001 
1.924702e-001 
1.405880e-001 
8.668914e-002 
3.516632e-002 
-1.224612e-002 
-5.542529e-002 
-9.920831e-002 
-1.373002e-001 
-1.677025e-001 
-1.930112e-001 
-2.099271e-001 
-2.180482e-001 
-2.228302e-001 
-2.260256e-001 
-2.264379e-001 
-2.253646e-001 
-2.246163e-001 
-2.252090e-001 
-2.232244e-001 
-2.197762e-001 
-2.153538e-001 
-2.130705e-001 
-2.105085e-001 
-2.090850e-001 
-2.113163e-001 
-2.109348e-001 
-2.038707e-001 
-1.946954e-001 
-1.870181e-001 
-1.838640e-001 
-1.865099e-001 
-1.923435e-001 
-2.023050e-001 
-2.080202e-001 
-2.057162e-001 
-2.053433e-001 
-2.114231e-001 
-2.234127e-001 
-2.388399e-001 
-2.503682e-001 
-2.589272e-001 
-2.616362e-001 
-2.286871e-001 
-1.255690e-001 
1.054553e-002 
1.006982e-001 
8.703300e-002 
8.008905e-003 
-4.996471e-002 
-6.389224e-002 
-3.977407e-002 
4.587996e-002 
1.593600e-001 
1.839317e-001 
7.698597e-002 
-7.996195e-002 
-1.390422e-001 
-8.469825e-002 
-1.716284e-002 
1.318612e-002 
5.290958e-003 
-6.676373e-002 
-1.951850e-001 
-3.040787e-001 
-3.160245e-001 
-2.283572e-001 
-1.293870e-001 
-6.898300e-002 
-3.439958e-002 
-2.137110e-003 
3.747846e-002 
8.266683e-002 
1.272013e-001 
1.727075e-001 
2.168254e-001 
2.556110e-001 
2.905921e-001 
3.203913e-001 
3.441513e-001 
3.612476e-001 
3.665773e-001 
3.614132e-001 
3.525312e-001 
3.350644e-001 
3.095030e-001 
2.779163e-001 
2.400599e-001 
1.983437e-001 
1.521862e-001 
1.012370e-001 
5.366747e-002 
1.040791e-002 
-3.273261e-002 
-7.229682e-002 
-1.068657e-001 
-1.335634e-001 
-1.536710e-001 
-1.706801e-001 
-1.811809e-001 
-1.824091e-001 
-1.813875e-001 
-1.802619e-001 
-1.779642e-001 
-1.744384e-001 
-1.704434e-001 
-1.677691e-001 
-1.656079e-001 
-1.584784e-001 
-1.498778e-001 
-1.451365e-001 
-1.434467e-001 
-1.443709e-001 
-1.429687e-001 
-1.364065e-001 
-1.291342e-001 
-1.198187e-001 
-1.092720e-001 
-1.082564e-001 
-1.140329e-001 
-1.237856e-001 
-1.331161e-001 
-1.351108e-001 
-1.360635e-001 
-1.422499e-001 
-1.478777e-001 
-1.600813e-001 
-1.759827e-001 
-1.863136e-001 
-1.921311e-001 
-1.683686e-001 
-6.898888e-002 
6.853003e-002 
1.549935e-001 
1.324001e-001 
4.172956e-002 
-1.995500e-002 
-3.213463e-002 
-1.329635e-002 
6.551926e-002 
1.837184e-001 
2.099454e-001 
9.525277e-002 
-6.530628e-002 
-1.184561e-001 
-5.875685e-002 
5.093345e-003 
2.774957e-002 
2.022499e-002 
-4.623214e-002 
-1.742449e-001 
-2.819508e-001 
-2.867135e-001 
-1.937892e-001 
-9.636547e-002 
-3.852644e-002 
-3.287621e-003 
3.196892e-002 
7.241466e-002 
1.165017e-001 
1.620157e-001 
2.086696e-001 
2.528782e-001 
2.954494e-001 
3.351103e-001 
3.672763e-001 
3.910583e-001 
4.065443e-001 
4.139164e-001 
4.111751e-001 
4.000837e-001 
3.826977e-001 
3.575226e-001 
3.237034e-001 
2.845040e-001 
2.403582e-001 
1.931271e-001 
1.450001e-001 
9.519896e-002 
4.746033e-002 
2.322974e-003 
-4.002959e-002 
-7.637976e-002 
-1.051802e-001 
-1.276884e-001 
-1.438204e-001 
-1.538274e-001 
-1.599627e-001 
-1.624788e-001 
-1.616696e-001 
-1.600506e-001 
-1.586790e-001 
-1.562041e-001 
-1.537613e-001 
-1.519866e-001 
-1.492668e-001 
-1.430654e-001 
-1.362578e-001 
-1.336985e-001 
-1.357740e-001 
-1.343803e-001 
-1.262312e-001 
-1.171290e-001 
-1.082141e-001 
-9.853675e-002 
-9.302152e-002 
-9.655811e-002 
-1.058456e-001 
-1.139622e-001 
-1.135966e-001 
-1.124516e-001 
-1.165438e-001 
-1.235860e-001 
-1.365776e-001 
-1.538965e-001 
-1.668290e-001 
-1.748832e-001 
-1.700018e-001 
-1.070356e-001 
2.486602e-002 
1.441495e-001 
1.660551e-001 
8.805201e-002 
8.780829e-003 
-1.504432e-002 
-9.356531e-003 
3.718053e-002 
1.514390e-001 
2.362774e-001 
1.746625e-001 
1.147989e-002 
-9.822579e-002 
-6.455990e-002 
1.323681e-002 
4.954320e-002 
5.389249e-002 
1.946991e-002 
-8.858485e-002 
-2.198757e-001 
-2.748129e-001 
-2.146875e-001 
-1.069061e-001 
-3.774939e-002 
-2.396652e-003 
2.854960e-002 
6.799408e-002 
1.094318e-001 
1.527976e-001 
1.978802e-001 
2.429471e-001 
2.852109e-001 
3.237936e-001 
3.584607e-001 
3.869901e-001 
4.047466e-001 
4.115133e-001 
4.115474e-001 
4.040947e-001 
3.891985e-001 
3.670469e-001 
3.393848e-001 
3.037759e-001 
2.586421e-001 
2.091010e-001 
1.603361e-001 
1.126007e-001 
6.646511e-002 
2.298077e-002 
-1.713813e-002 
-5.411518e-002 
-8.616500e-002 
-1.094998e-001 
-1.228169e-001 
-1.275955e-001 
-1.270304e-001 
-1.226246e-001 
-1.157184e-001 
-1.074417e-001 
-9.936486e-002 
-8.776269e-002 
-7.550822e-002 
-6.447791e-002 
-5.332141e-002 
-4.228911e-002 
-2.936834e-002 
-1.650549e-002 
-7.093187e-003 
4.148975e-004 
1.120644e-002 
2.314861e-002 
3.478499e-002 
4.606722e-002 
5.675878e-002 
6.417214e-002 
6.545946e-002 
6.161247e-002 
5.820086e-002 
5.877250e-002 
5.757181e-002 
5.196913e-002 
4.530610e-002 
3.519578e-002 
2.219655e-002 
1.035290e-002 
1.344730e-003 
4.053218e-003 
4.413490e-002 
1.359753e-001 
2.256220e-001 
2.476998e-001 
1.892988e-001 
1.203632e-001 
9.230357e-002 
9.088245e-002 
1.179848e-001 
1.922842e-001 
2.540445e-001 
2.103155e-001 
8.282601e-002 
-1.810951e-002 
-8.366896e-003 
4.458626e-002 
6.776423e-002 
6.609184e-002 
3.726622e-002 
-4.382435e-002 
-1.456030e-001 
-1.943680e-001 
-1.539207e-001 
-6.754146e-002 
-8.442753e-003 
2.721103e-002 
6.140585e-002 
9.972326e-002 
1.408700e-001 
1.832587e-001 
2.256937e-001 
2.675415e-001 
3.053098e-001 
3.403269e-001 
3.731121e-001 
3.963449e-001 
4.071810e-001 
4.088033e-001 
4.027303e-001 
3.887807e-001 
3.668215e-001 
3.396348e-001 
3.079687e-001 
2.671097e-001 
2.170375e-001 
1.655342e-001 
1.168891e-001 
6.956289e-002 
2.220062e-002 
-2.245293e-002 
-6.250615e-002 
-9.978424e-002 
-1.324521e-001 
-1.575647e-001 
-1.714406e-001 
-1.785764e-001 
-1.847949e-001 
-1.885544e-001 
-1.882192e-001 
-1.878954e-001 
-1.866482e-001 
-1.834818e-001 
-1.803580e-001 
-1.756014e-001 
-1.701187e-001 
-1.652471e-001 
-1.612179e-001 
-1.598775e-001 
-1.595898e-001 
-1.528342e-001 
-1.426241e-001 
-1.333229e-001 
-1.238194e-001 
-1.189937e-001 
-1.222018e-001 
-1.300848e-001 
-1.389779e-001 
-1.418736e-001 
-1.410997e-001 
-1.454327e-001 
-1.539734e-001 
-1.668968e-001 
-1.839756e-001 
-1.986847e-001 
-2.084196e-001 
-2.093234e-001 
-1.740444e-001 
-6.746569e-002 
6.694236e-002 
1.420635e-001 
1.038668e-001 
1.687665e-002 
-2.983018e-002 
-3.188432e-002 
-2.230032e-003 
8.689064e-002 
1.978125e-001 
2.047854e-001 
7.558315e-002 
-8.104185e-002 
-1.082828e-001 
-3.663368e-002 
2.131498e-002 
3.719224e-002 
2.098154e-002 
-5.753464e-002 
-1.883471e-001 
-2.869522e-001 
-2.768823e-001 
-1.754478e-001 
-8.402497e-002 
-3.439627e-002 
-1.946484e-003 
3.610504e-002 
7.889549e-002 
1.233341e-001 
1.679746e-001 
2.123344e-001 
2.566173e-001 
2.956260e-001 
3.272903e-001 
3.553044e-001 
3.765873e-001 
3.870722e-001 
3.880412e-001 
3.794419e-001 
3.638933e-001 
3.415311e-001 
3.103861e-001 
2.730413e-001 
2.320709e-001 
1.853039e-001 
1.344419e-001 
8.247823e-002 
3.150933e-002 
-1.429291e-002 
-5.559999e-002 
-9.402573e-002 
-1.277342e-001 
-1.535052e-001 
-1.728282e-001 
-1.866202e-001 
-1.953802e-001 
-1.986103e-001 
-1.978591e-001 
-1.955816e-001 
-1.936260e-001 
-1.906269e-001 
-1.853537e-001 
-1.813570e-001 
-1.763547e-001 
-1.680187e-001 
-1.617393e-001 
-1.599214e-001 
-1.586448e-001 
-1.565556e-001 
-1.495023e-001 
-1.412490e-001 
-1.341174e-001 
-1.291925e-001 
-1.307413e-001 
-1.399176e-001 
-1.522129e-001 
-1.592350e-001 
-1.616945e-001 
-1.654608e-001 
-1.729448e-001 
-1.842942e-001 
-2.032900e-001 
-2.200061e-001 
-2.318106e-001 
-2.383928e-001 
-2.139525e-001 
-1.211847e-001 
1.378903e-002 
1.067725e-001 
9.038473e-002 
6.437144e-003 
-4.644212e-002 
-5.489410e-002 
-3.692487e-002 
3.864908e-002 
1.540933e-001 
1.879219e-001 
8.082127e-002 
-8.044229e-002 
-1.373280e-001 
-7.781548e-002 
-1.695578e-002 
2.526306e-003 
-3.527023e-003 
-6.581782e-002 
-1.924268e-001 
-3.045137e-001 
-3.186609e-001 
-2.327580e-001 
-1.384836e-001 
-8.417666e-002 
-4.861971e-002 
-1.100285e-002 
3.013166e-002 
7.430161e-002 
1.204554e-001 
1.646262e-001 
2.067491e-001 
2.458400e-001 
2.805480e-001 
3.074734e-001 
3.239197e-001 
3.324520e-001 
3.349873e-001 
3.266086e-001 
3.089114e-001 
2.873920e-001 
2.597874e-001 
2.243148e-001 
1.804540e-001 
1.321501e-001 
8.477997e-002 
3.577083e-002 
-1.515166e-002 
-6.062723e-002 
-1.003783e-001 
-1.368696e-001 
-1.697903e-001 
-1.960014e-001 
-2.118526e-001 
-2.218847e-001 
-2.290135e-001 
-2.303284e-001 
-2.284438e-001 
-2.263258e-001 
-2.238715e-001 
-2.218353e-001 
-2.160194e-001 
-2.075858e-001 
-2.003060e-001 
-1.944154e-001 
-1.912488e-001 
-1.906562e-001 
-1.878328e-001 
-1.816372e-001 
-1.742302e-001 
-1.654308e-001 
-1.614837e-001 
-1.656342e-001 
-1.744805e-001 
-1.854300e-001 
-1.936221e-001 
-1.953490e-001 
-1.979572e-001 
-2.063187e-001 
-2.189349e-001 
-2.374761e-001 
-2.542061e-001 
-2.663771e-001 
-2.735400e-001 
-2.467972e-001 
-1.460812e-001 
-1.471043e-002 
6.207475e-002 
2.981185e-002 
-5.409282e-002 
-1.021534e-001 
-1.114238e-001 
-9.077940e-002 
-8.902464e-003 
1.026668e-001 
1.171780e-001 
-5.896827e-003 
-1.616680e-001 
-1.954074e-001 
-1.329244e-001 
-7.862622e-002 
-5.899359e-002 
-6.832715e-002 
-1.399171e-001 
-2.705435e-001 
-3.741501e-001 
-3.720110e-001 
-2.804513e-001 
-1.938834e-001 
-1.437678e-001 
-1.120943e-001 
-7.887950e-002 
-4.201977e-002 
-1.183234e-003 
4.315954e-002 
8.483332e-002 
1.239908e-001 
1.600523e-001 
1.881778e-001 
2.104134e-001 
2.258339e-001 
2.325828e-001 
2.328746e-001 
2.256278e-001 
2.101985e-001 
1.895756e-001 
1.625544e-001 
1.302344e-001 
9.307575e-002 
5.018613e-002 
5.968221e-003 
-3.755060e-002 
-8.130120e-002 
-1.222089e-001 
-1.584472e-001 
-1.898887e-001 
-2.162232e-001 
-2.381376e-001 
-2.532210e-001 
-2.601547e-001 
-2.625376e-001 
-2.621415e-001 
-2.575747e-001 
-2.486667e-001 
-2.363407e-001 
-2.250539e-001 
-2.170393e-001 
-2.115534e-001 
-2.044229e-001 
-1.946848e-001 
-1.844175e-001 
-1.718928e-001 
-1.584161e-001 
-1.537740e-001 
-1.588972e-001 
-1.689792e-001 
-1.804534e-001 
-1.865524e-001 
-1.907445e-001 
-1.993448e-001 
-2.120808e-001 
-2.331548e-001 
-2.602988e-001 
-2.822603e-001 
-2.988168e-001 
-3.054830e-001 
-2.775735e-001 
-1.888874e-001 
-8.179539e-002 
-3.198631e-002 
-7.313202e-002 
-1.484359e-001 
-1.940003e-001 
-2.040139e-001 
-1.804326e-001 
-1.047231e-001 
-1.208274e-002 
-1.107081e-002 
-1.206310e-001 
-2.411335e-001 
-2.591162e-001 
-2.015211e-001 
-1.480561e-001 
-1.272638e-001 
-1.375222e-001 
-2.009139e-001 
-3.096698e-001 
-3.878488e-001 
-3.744674e-001 
-2.873908e-001 
-2.046130e-001 
-1.546161e-001 
-1.209474e-001 
-8.390393e-002 
-4.551573e-002 
-7.511796e-003 
3.206132e-002 
7.228556e-002 
1.109014e-001 
1.438496e-001 
1.719945e-001 
1.973024e-001 
2.146158e-001 
2.230144e-001 
2.260028e-001 
2.244334e-001 
2.161892e-001 
2.012714e-001 
1.813419e-001 
1.563128e-001 
1.253981e-001 
8.988857e-002 
5.395155e-002 
1.840508e-002 
-1.713772e-002 
-5.101392e-002 
-8.057641e-002 
-1.055741e-001 
-1.265181e-001 
-1.427011e-001 
-1.505405e-001 
-1.510100e-001 
-1.508424e-001 
-1.475911e-001 
-1.394872e-001 
-1.274643e-001 
-1.115213e-001 
-9.845027e-002 
-8.820221e-002 
-7.561127e-002 
-6.314214e-002 
-5.213297e-002 
-3.705604e-002 
-2.167904e-002 
-9.678875e-003 
-5.945593e-003 
-1.286459e-002 
-2.194232e-002 
-2.740118e-002 
-3.262827e-002 
-3.823310e-002 
-4.336772e-002 
-5.363717e-002 
-6.925337e-002 
-8.511519e-002 
-9.759824e-002 
-1.030603e-001 
-8.665360e-002 
-1.796128e-002 
9.269641e-002 
1.683047e-001 
1.561330e-001 
8.933912e-002 
3.589112e-002 
1.953690e-002 
3.404590e-002 
9.372625e-002 
1.892643e-001 
2.250389e-001 
1.407344e-001 
1.255644e-002 
-4.232699e-002 
-5.622086e-003 
4.858568e-002 
7.616898e-002 
7.354155e-002 
2.419589e-002 
-7.651831e-002 
-1.684348e-001 
-1.809779e-001 
-1.138145e-001 
-3.162836e-002 
2.025697e-002 
5.103478e-002 
7.724305e-002 
1.076107e-001 
1.434175e-001 
1.810830e-001 
2.173718e-001 
2.497198e-001 
2.802169e-001 
3.095930e-001 
3.348233e-001 
3.518858e-001 
3.624287e-001 
3.668699e-001 
3.626236e-001 
3.500173e-001 
3.335597e-001 
3.177444e-001 
2.950234e-001 
2.648282e-001 
2.315604e-001 
1.963413e-001 
1.592055e-001 
1.209846e-001 
8.540222e-002 
5.682259e-002 
3.211074e-002 
6.319168e-003 
-1.176859e-002 
-2.282486e-002 
-3.131492e-002 
-3.501082e-002 
-3.340434e-002 
-2.688171e-002 
-1.850191e-002 
-1.144900e-002 
-2.014004e-003 
1.210150e-002 
2.397496e-002 
3.127164e-002 
3.760985e-002 
4.638868e-002 
5.681639e-002 
6.581750e-002 
7.540841e-002 
8.463406e-002 
8.800361e-002 
8.304120e-002 
7.244494e-002 
6.396940e-002 
6.086940e-002 
5.731279e-002 
4.951331e-002 
4.048409e-002 
3.085773e-002 
2.196629e-002 
1.582154e-002 
1.504697e-002 
3.028486e-002 
8.758590e-002 
1.973372e-001 
2.970226e-001 
3.317503e-001 
2.919443e-001 
2.341382e-001 
2.146145e-001 
2.285829e-001 
2.760706e-001 
3.695259e-001 
4.412575e-001 
4.030933e-001 
2.903373e-001 
1.975371e-001 
2.081893e-001 
2.712439e-001 
3.068566e-001 
3.078078e-001 
2.746084e-001 
1.875430e-001 
8.354655e-002 
3.634388e-002 
7.396027e-002 
1.597223e-001 
2.204923e-001 
2.492352e-001 
2.701196e-001 
2.971964e-001 
3.292420e-001 
3.633079e-001 
3.970818e-001 
4.283257e-001 
4.577348e-001 
4.850552e-001 
5.080372e-001 
5.241619e-001 
5.331459e-001 
5.345500e-001 
5.287691e-001 
5.158620e-001 
4.981656e-001 
4.766062e-001 
4.502165e-001 
4.167274e-001 
3.776308e-001 
3.363777e-001 
2.936122e-001 
2.506971e-001 
2.074747e-001 
1.671846e-001 
1.303985e-001 
9.760768e-002 
6.797989e-002 
4.589316e-002 
3.274210e-002 
2.550397e-002 
2.150882e-002 
2.088756e-002 
2.404447e-002 
2.687527e-002 
2.938129e-002 
3.107479e-002 
3.577028e-002 
4.083303e-002 
4.251385e-002 
4.604822e-002 
5.470885e-002 
6.331790e-002 
6.793647e-002 
6.993075e-002 
7.202978e-002 
7.792399e-002 
8.376310e-002 
9.028543e-002 
1.006340e-001 
1.056568e-001 
9.973671e-002 
8.877808e-002 
7.819294e-002 
7.185734e-002 
6.780928e-002 
6.226953e-002 
5.515230e-002 
4.167953e-002 
1.988430e-002 
1.282134e-003 
-9.890860e-003 
-1.529607e-002 
1.303204e-003 
7.282706e-002 
1.783684e-001 
2.386049e-001 
2.125076e-001 
1.324222e-001 
7.864932e-002 
7.027483e-002 
8.630520e-002 
1.471227e-001 
2.403300e-001 
2.607933e-001 
1.656498e-001 
3.765537e-002 
-1.105640e-002 
4.435270e-002 
1.044269e-001 
1.223172e-001 
1.147005e-001 
6.227079e-002 
-4.047218e-002 
-1.235191e-001 
-1.252416e-001 
-4.791968e-002 
4.020510e-002 
8.563141e-002 
1.110854e-001 
1.391981e-001 
1.724469e-001 
2.101349e-001 
2.485147e-001 
2.841000e-001 
3.189242e-001 
3.512628e-001 
3.790764e-001 
4.019847e-001 
4.165345e-001 
4.241222e-001 
4.241513e-001 
4.128492e-001 
3.954092e-001 
3.748939e-001 
3.494359e-001 
3.166224e-001 
2.761374e-001 
2.337948e-001 
1.902892e-001 
1.425577e-001 
9.494889e-002 
5.124442e-002 
1.088475e-002 
-2.684618e-002 
-6.209918e-002 
-8.898479e-002 
-1.066705e-001 
-1.210991e-001 
-1.318696e-001 
-1.364874e-001 
-1.370882e-001 
-1.356672e-001 
-1.355823e-001 
-1.357555e-001 
-1.319965e-001 
-1.292084e-001 
-1.306824e-001 
-1.310930e-001 
-1.293802e-001 
-1.294880e-001 
-1.324221e-001 
-1.374828e-001 
-1.387745e-001 
-1.387616e-001 
-1.442707e-001 
-1.512990e-001 
-1.537824e-001 
-1.578631e-001 
-1.645619e-001 
-1.676081e-001 
-1.630136e-001 
-1.551963e-001 
-1.537794e-001 
-1.566853e-001 
-1.566374e-001 
-1.517914e-001 
-1.459489e-001 
-1.383712e-001 
-1.258232e-001 
-1.157117e-001 
-1.180804e-001 
-1.270737e-001 
-1.342830e-001 
-1.377263e-001 
-1.388828e-001 
-1.419463e-001 
-1.475848e-001 
-1.562810e-001 
-1.722979e-001 
-1.896945e-001 
-2.002018e-001 
-2.006589e-001 
-1.664536e-001 
-7.196189e-002 
2.761657e-002 
6.189834e-002 
1.145179e-002 
-6.615739e-002 
-1.021138e-001 
-9.927254e-002 
-6.741867e-002 
1.577917e-002 
9.754367e-002 
7.347939e-002 
-4.274068e-002 
-1.511564e-001 
-1.519149e-001 
-8.158309e-002 
-3.342185e-002 
-2.180487e-002 
-3.990632e-002 
-1.142173e-001 
-2.172116e-001 
-2.707218e-001 
-2.368121e-001 
-1.442801e-001 
-7.167137e-002 
-3.721456e-002 
-1.235377e-002 
1.722859e-002 
5.146853e-002 
9.105738e-002 
1.343405e-001 
1.745340e-001 
2.123453e-001 
2.487677e-001 
2.836440e-001 
3.148218e-001 
3.373396e-001 
3.507658e-001 
3.575655e-001 
3.553259e-001 
3.418406e-001 
3.240781e-001 
3.032769e-001 
2.759627e-001 
2.405696e-001 
1.992743e-001 
1.541714e-001 
1.074168e-001 
5.926558e-002 
1.234351e-002 
-3.076199e-002 
-7.187621e-002 
-1.109166e-001 
-1.435352e-001 
-1.678373e-001 
-1.873524e-001 
-2.006426e-001 
-2.077014e-001 
-2.116368e-001 
-2.148911e-001 
-2.168831e-001 
-2.165262e-001 
-2.141409e-001 
-2.129545e-001 
-2.144425e-001 
-2.141653e-001 
-2.139132e-001 
-2.159522e-001 
-2.191992e-001 
-2.217182e-001 
-2.226974e-001 
-2.243539e-001 
-2.287705e-001 
-2.332238e-001 
-2.363258e-001 
-2.411147e-001 
-2.466305e-001 
-2.505307e-001 
-2.473515e-001 
-2.388413e-001 
-2.342400e-001 
-2.338347e-001 
-2.330364e-001 
-2.303323e-001 
-2.235879e-001 
-2.135105e-001 
-1.993815e-001 
-1.845701e-001 
-1.806655e-001 
-1.865382e-001 
-1.942375e-001 
-1.985171e-001 
-1.968885e-001 
-1.944503e-001 
-1.957097e-001 
-2.012453e-001 
-2.155210e-001 
-2.320104e-001 
-2.427683e-001 
-2.465810e-001 
-2.204253e-001 
-1.292154e-001 
-1.064601e-002 
5.372273e-002 
2.300733e-002 
-5.896935e-002 
-1.085948e-001 
-1.127385e-001 
-8.932993e-002 
-1.316977e-002 
8.995194e-002 
1.033075e-001 
-3.670912e-003 
-1.365690e-001 
-1.718555e-001 
-1.074884e-001 
-4.661918e-002 
-2.561212e-002 
-3.190989e-002 
-9.231583e-002 
-2.035508e-001 
-2.864651e-001 
-2.782075e-001 
-1.896186e-001 
-1.009089e-001 
-5.410503e-002 
-2.549147e-002 
3.634794e-003 
3.765622e-002 
7.724859e-002 
1.213201e-001 
1.648562e-001 
2.061211e-001 
2.449928e-001 
2.820353e-001 
3.149053e-001 
3.404107e-001 
3.566334e-001 
3.633004e-001 
3.606861e-001 
3.472843e-001 
3.273502e-001 
3.048562e-001 
2.778978e-001 
2.419952e-001 
1.983427e-001 
1.500319e-001 
1.001034e-001 
5.057356e-002 
2.444784e-003 
-4.106440e-002 
-8.090975e-002 
-1.205831e-001 
-1.566917e-001 
-1.837957e-001 
-2.021323e-001 
-2.129675e-001 
-2.172522e-001 
-2.173619e-001 
-2.143137e-001 
-2.115078e-001 
-2.089229e-001 
-2.041288e-001 
-1.987103e-001 
-1.947948e-001 
-1.924111e-001 
-1.909366e-001 
-1.895094e-001 
-1.895590e-001 
-1.917076e-001 
-1.930416e-001 
-1.943725e-001 
-1.967290e-001 
-2.000837e-001 
-2.034724e-001 
-2.056787e-001 
-2.089596e-001 
-2.140028e-001 
-2.166376e-001 
-2.174192e-001 
-2.139591e-001 
-2.069496e-001 
-2.015821e-001 
-1.975630e-001 
-1.952011e-001 
-1.907133e-001 
-1.784848e-001 
-1.646450e-001 
-1.501971e-001 
-1.341162e-001 
-1.289835e-001 
-1.327112e-001 
-1.382185e-001 
-1.413680e-001 
-1.359763e-001 
-1.323471e-001 
-1.369267e-001 
-1.413851e-001 
-1.520883e-001 
-1.683636e-001 
-1.771437e-001 
-1.713072e-001 
-1.159064e-001 
7.847489e-004 
9.966192e-002 
1.195601e-001 
5.560861e-002 
-2.322345e-002 
-5.177606e-002 
-4.407768e-002 
-1.438640e-003 
9.619928e-002 
1.683435e-001 
1.183064e-001 
-1.315048e-002 
-1.126487e-001 
-9.272149e-002 
-2.033528e-002 
1.900360e-002 
2.599736e-002 
-1.898114e-003 
-9.123815e-002 
-1.983082e-001 
-2.436650e-001 
-1.947261e-001 
-9.615716e-002 
-2.551089e-002 
1.275312e-002 
4.351479e-002 
7.822031e-002 
1.171441e-001 
1.582857e-001 
1.995805e-001 
2.438514e-001 
2.892548e-001 
3.312912e-001 
3.669160e-001 
3.937713e-001 
4.112964e-001 
4.207691e-001 
4.201101e-001 
4.114195e-001 
3.983729e-001 
3.765229e-001 
3.466625e-001 
3.112573e-001 
2.688747e-001 
2.208939e-001 
1.698169e-001 
1.189053e-001 
7.037168e-002 
2.271947e-002 
-2.346435e-002 
-6.409585e-002 
-9.810266e-002 
-1.277537e-001 
-1.515747e-001 
-1.641033e-001 
-1.673391e-001 
-1.685184e-001 
-1.673693e-001 
-1.628835e-001 
-1.569250e-001 
-1.521338e-001 
-1.502573e-001 
-1.471073e-001 
-1.412398e-001 
-1.379098e-001 
-1.385777e-001 
-1.399204e-001 
-1.402255e-001 
-1.411275e-001 
-1.450605e-001 
-1.479034e-001 
-1.488746e-001 
-1.508551e-001 
-1.553977e-001 
-1.579543e-001 
-1.534065e-001 
-1.465783e-001 
-1.457162e-001 
-1.473461e-001 
-1.428475e-001 
-1.345194e-001 
-1.270494e-001 
-1.185472e-001 
-1.062675e-001 
-9.876936e-002 
-1.019100e-001 
-1.110864e-001 
-1.171278e-001 
-1.170359e-001 
-1.189578e-001 
-1.247915e-001 
-1.297170e-001 
-1.399407e-001 
-1.559805e-001 
-1.685152e-001 
-1.721143e-001 
-1.401518e-001 
-3.848238e-002 
8.387332e-002 
1.434630e-001 
9.762950e-002 
9.616071e-003 
-3.243241e-002 
-3.057618e-002 
-2.474972e-003 
8.003765e-002 
1.811974e-001 
1.795822e-001 
5.282419e-002 
-8.633948e-002 
-9.755606e-002 
-2.150948e-002 
3.124066e-002 
4.394371e-002 
2.923352e-002 
-4.201829e-002 
-1.601980e-001 
-2.421504e-001 
-2.204385e-001 
-1.214090e-001 
-4.158756e-002 
-1.414839e-003 
2.607862e-002 
5.832987e-002 
9.618216e-002 
1.375785e-001 
1.821312e-001 
2.291885e-001 
2.743746e-001 
3.161150e-001 
3.551778e-001 
3.877139e-001 
4.120287e-001 
4.283647e-001 
4.367426e-001 
4.361467e-001 
4.263869e-001 
4.079913e-001 
3.846593e-001 
3.558856e-001 
3.191990e-001 
2.755395e-001 
2.283103e-001 
1.785171e-001 
1.277230e-001 
7.913286e-002 
3.388692e-002 
-6.497380e-003 
-4.207946e-002 
-7.280711e-002 
-9.732278e-002 
-1.144987e-001 
-1.245361e-001 
-1.291074e-001 
-1.285596e-001 
-1.257188e-001 
-1.215496e-001 
-1.177419e-001 
-1.169334e-001 
-1.174303e-001 
-1.176970e-001 
-1.195790e-001 
-1.224893e-001 
-1.247333e-001 
-1.291595e-001 
-1.350034e-001 
-1.429436e-001 
-1.478396e-001 
-1.453139e-001 
-1.438515e-001 
-1.468264e-001 
-1.485759e-001 
-1.464592e-001 
-1.399383e-001 
-1.319160e-001 
-1.221997e-001 
-1.092149e-001 
-1.030977e-001 
-1.084470e-001 
-1.161951e-001 
-1.190361e-001 
-1.166847e-001 
-1.151881e-001 
-1.186900e-001 
-1.252098e-001 
-1.369093e-001 
-1.512532e-001 
-1.614868e-001 
-1.616098e-001 
-1.231034e-001 
-1.569056e-002 
1.109653e-001 
1.732972e-001 
1.287627e-001 
4.135289e-002 
-5.587637e-003 
-9.397205e-003 
2.146464e-002 
1.101900e-001 
2.122447e-001 
2.101382e-001 
8.284109e-002 
-6.042588e-002 
-8.076066e-002 
-1.089821e-002 
4.517584e-002 
6.147764e-002 
4.442860e-002 
-3.396860e-002 
-1.585212e-001 
-2.439201e-001 
-2.258202e-001 
-1.261580e-001 
-4.057589e-002 
5.577714e-003 
3.652539e-002 
7.089199e-002 
1.093981e-001 
1.528248e-001 
2.008202e-001 
2.486920e-001 
2.978217e-001 
3.476122e-001 
3.988163e-001 
4.420437e-001 
4.755324e-001 
5.000316e-001 
5.152237e-001 
5.225516e-001 
5.226584e-001 
5.175862e-001 
5.086588e-001 
4.901900e-001 
4.578802e-001 
4.211139e-001 
3.803274e-001 
3.366921e-001 
2.948134e-001 
2.527275e-001 
2.139366e-001 
1.779788e-001 
1.395813e-001 
1.051385e-001 
8.063035e-002 
6.296955e-002 
5.146876e-002 
4.711496e-002 
4.694023e-002 
4.947611e-002 
4.879162e-002 
4.552183e-002 
4.386778e-002 
4.225363e-002 
3.937932e-002 
3.611619e-002 
3.352783e-002 
2.722932e-002 
1.975312e-002 
1.529086e-002 
1.221491e-002 
6.738370e-003 
-2.486344e-003 
-8.926082e-003 
-8.885541e-003 
-8.859368e-003 
-1.065048e-002 
-1.117868e-002 
-1.575181e-002 
-2.982607e-002 
-5.560532e-002 
-8.269936e-002 
-9.765773e-002 
-1.113744e-001 
-1.309387e-001 
-1.515691e-001 
-1.760125e-001 
-2.038125e-001 
-2.329564e-001 
-2.568432e-001 
-2.366433e-001 
-1.386740e-001 
-1.846440e-002 
4.589964e-002 
3.739768e-003 
-9.314337e-002 
-1.542064e-001 
-1.690117e-001 
-1.460080e-001 
-6.163865e-002 
4.162615e-002 
4.452026e-002 
-8.068758e-002 
-2.372108e-001 
-2.763327e-001 
-2.177766e-001 
-1.648283e-001 
-1.526131e-001 
-1.759605e-001 
-2.575349e-001 
-3.890772e-001 
-4.912417e-001 
-4.901754e-001 
-3.987633e-001 
-3.162477e-001 
-2.729647e-001 
-2.477675e-001 
-2.134697e-001 
-1.718818e-001 
-1.308372e-001 
-8.990591e-002 
-4.501329e-002 
-1.094557e-003 
3.448987e-002 
6.883931e-002 
1.026392e-001 
1.288408e-001 
1.403748e-001 
1.409591e-001 
1.368101e-001 
1.302636e-001 
1.152069e-001 
9.170034e-002 
6.417301e-002 
3.032547e-002 
-1.338556e-002 
-6.237759e-002 
-1.083340e-001 
-1.485413e-001 
-1.863535e-001 
-2.220040e-001 
-2.553594e-001 
-2.838938e-001 
-3.069989e-001 
-3.236288e-001 
-3.298595e-001 
-3.302911e-001 
-3.280518e-001 
-3.231615e-001 
-3.168726e-001 
-3.126919e-001 
-3.081730e-001 
-3.017955e-001 
-2.916960e-001 
-2.765736e-001 
-2.641517e-001 
-2.550408e-001 
-2.505190e-001 
-2.471364e-001 
-2.397694e-001 
-2.282219e-001 
-2.146452e-001 
-1.994227e-001 
-1.878471e-001 
-1.894948e-001 
-1.990625e-001 
-2.072813e-001 
-2.072969e-001 
-2.058180e-001 
-2.068695e-001 
-2.101510e-001 
-2.196731e-001 
-2.378791e-001 
-2.574003e-001 
-2.672622e-001 
-2.541477e-001 
-1.893673e-001 
-6.753687e-002 
3.961747e-002 
5.586936e-002 
-1.734006e-002 
-9.210054e-002 
-1.137153e-001 
-9.982698e-002 
-4.787537e-002 
5.401557e-002 
1.273584e-001 
6.879619e-002 
-7.642021e-002 
-1.696815e-001 
-1.356229e-001 
-6.037124e-002 
-2.251737e-002 
-1.978204e-002 
-5.346497e-002 
-1.475049e-001 
-2.626064e-001 
-3.044556e-001 
-2.417166e-001 
-1.373723e-001 
-6.732029e-002 
-2.785032e-002 
7.228780e-003 
5.003373e-002 
9.381359e-002 
1.377416e-001 
1.861919e-001 
2.348280e-001 
2.773157e-001 
3.159317e-001 
3.504712e-001 
3.754885e-001 
3.903617e-001 
3.983901e-001 
3.991702e-001 
3.915955e-001 
3.757213e-001 
3.533010e-001 
3.277358e-001 
2.926097e-001 
2.487995e-001 
2.051062e-001 
1.625020e-001 
1.184269e-001 
7.527907e-002 
3.524811e-002 
3.298281e-004 
-3.294095e-002 
-6.334622e-002 
-8.382839e-002 
-9.335608e-002 
-9.699563e-002 
-9.980083e-002 
-9.987819e-002 
-9.606598e-002 
-9.146625e-002 
-8.412502e-002 
-7.135886e-002 
-5.995090e-002 
-5.150850e-002 
-4.986472e-002 
-4.874976e-002 
-3.843040e-002 
-2.764583e-002 
-1.722611e-002 
-7.322918e-003 
-7.700568e-003 
-1.689857e-002 
-2.915613e-002 
-4.221104e-002 
-4.430832e-002 
-4.356807e-002 
-5.176529e-002 
-6.374607e-002 
-8.267711e-002 
-1.021248e-001 
-1.148330e-001 
-1.190818e-001 
-8.185635e-002 
2.853707e-002 
1.459941e-001 
1.963744e-001 
1.504031e-001 
6.749592e-002 
2.834038e-002 
2.838362e-002 
6.056250e-002 
1.519689e-001 
2.461596e-001 
2.312708e-001 
1.094978e-001 
-1.949076e-002 
-3.255470e-002 
3.617565e-002 
8.627148e-002 
9.942297e-002 
7.815318e-002 
-3.527858e-003 
-1.213314e-001 
-1.984336e-001 
-1.805529e-001 
-8.956703e-002 
-1.013137e-002 
3.433505e-002 
6.501115e-002 
9.786615e-002 
1.371961e-001 
1.787572e-001 
2.198355e-001 
2.601238e-001 
3.011795e-001 
3.432360e-001 
3.794296e-001 
4.058844e-001 
4.229156e-001 
4.349506e-001 
4.383998e-001 
4.332219e-001 
4.221587e-001 
4.052481e-001 
3.811664e-001 
3.493647e-001 
3.104804e-001 
2.694803e-001 
2.268391e-001 
1.801166e-001 
1.377812e-001 
9.752954e-002 
5.814872e-002 
2.441768e-002 
-4.371641e-003 
-2.696824e-002 
-4.317295e-002 
-5.729135e-002 
-6.284858e-002 
-6.005573e-002 
-5.651506e-002 
-4.699049e-002 
-3.360681e-002 
-2.330411e-002 
-1.814180e-002 
-1.775982e-002 
-1.031651e-002 
4.330486e-003 
1.562275e-002 
2.660040e-002 
3.240844e-002 
2.716470e-002 
1.473621e-002 
-9.323826e-004 
-8.661486e-003 
-7.847905e-003 
-1.419141e-002 
-2.526589e-002 
-4.024908e-002 
-6.383617e-002 
-8.446023e-002 
-9.785648e-002 
-1.020884e-001 
-6.502404e-002 
3.925300e-002 
1.575455e-001 
2.206996e-001 
1.846464e-001 
1.022528e-001 
5.745391e-002 
5.359108e-002 
8.125020e-002 
1.687427e-001 
2.645301e-001 
2.579164e-001 
1.390574e-001 
-2.989974e-003 
-3.470869e-002 
2.848111e-002 
8.010419e-002 
9.203594e-002 
7.115641e-002 
-1.068885e-002 
-1.327516e-001 
-2.227408e-001 
-2.175307e-001 
-1.273932e-001 
-4.360883e-002 
-8.565143e-005 
2.819248e-002 
6.031885e-002 
1.015395e-001 
1.421052e-001 
1.807537e-001 
2.234049e-001 
2.632912e-001 
2.992925e-001 
3.325623e-001 
3.601766e-001 
3.798130e-001 
3.896940e-001 
3.884574e-001 
3.844533e-001 
3.722161e-001 
3.505789e-001 
3.266003e-001 
2.977909e-001 
2.613908e-001 
2.183372e-001 
1.740749e-001 
1.342700e-001 
9.473539e-002 
5.218081e-002 
1.552769e-002 
-1.388681e-002 
-3.983174e-002 
-6.417412e-002 
-8.238722e-002 
-9.099184e-002 
-9.193538e-002 
-8.863461e-002 
-7.939652e-002 
-6.618219e-002 
-5.787980e-002 
-5.445833e-002 
-4.889607e-002 
-3.867214e-002 
-2.766451e-002 
-1.754335e-002 
-1.316885e-002 
-1.480784e-002 
-2.326308e-002 
-3.926177e-002 
-5.159355e-002 
-5.689049e-002 
-6.513940e-002 
-7.872623e-002 
-9.683324e-002 
-1.197691e-001 
-1.372507e-001 
-1.497712e-001 
-1.565397e-001 
-1.105445e-001 
3.354663e-003 
1.104003e-001 
1.458219e-001 
8.871294e-002 
1.243316e-002 
-1.197025e-002 
-7.429400e-003 
2.767737e-002 
1.272406e-001 
2.099916e-001 
1.737704e-001 
4.476512e-002 
-6.767277e-002 
-5.422518e-002 
1.923837e-002 
5.641978e-002 
6.091933e-002 
3.517712e-002 
-5.327318e-002 
-1.685653e-001 
-2.278815e-001 
-1.887138e-001 
-9.276021e-002 
-2.776982e-002 
5.559847e-003 
3.654262e-002 
7.405387e-002 
1.128580e-001 
1.517750e-001 
1.914703e-001 
2.280318e-001 
2.610787e-001 
2.905344e-001 
3.216438e-001 
3.485622e-001 
3.634661e-001 
3.678793e-001 
3.656862e-001 
3.570796e-001 
3.434270e-001 
3.233690e-001 
2.975075e-001 
2.701344e-001 
2.356054e-001 
1.925887e-001 
1.480228e-001 
1.069375e-001 
7.066030e-002 
3.426800e-002 
-4.158702e-003 
-3.542220e-002 
-5.993177e-002 
-8.333017e-002 
-1.000865e-001 
-1.074358e-001 
-1.044981e-001 
-9.706823e-002 
-9.665241e-002 
-9.573214e-002 
-8.989538e-002 
-8.646086e-002 
-8.104362e-002 
-7.129436e-002 
-6.054577e-002 
-5.172883e-002 
-5.606031e-002 
-6.878769e-002 
-7.891906e-002 
-8.963698e-002 
-1.003833e-001 
-1.082041e-001 
-1.167799e-001 
-1.287193e-001 
-1.485978e-001 
-1.705005e-001 
-1.853474e-001 
-1.944128e-001 
-1.711840e-001 
-7.608227e-002 
4.455610e-002 
1.085930e-001 
7.026806e-002 
-7.728369e-003 
-4.502210e-002 
-4.873614e-002 
-2.693784e-002 
5.573400e-002 
1.559721e-001 
1.552735e-001 
3.454788e-002 
-1.025129e-001 
-1.184741e-001 
-5.507434e-002 
-1.194919e-002 
6.196843e-004 
-1.099698e-002 
-8.366259e-002 
-2.025802e-001 
-2.861232e-001 
-2.704296e-001 
-1.793343e-001 
-1.060750e-001 
-6.700491e-002 
-3.635068e-002 
-2.496511e-003 
3.394759e-002 
7.413945e-002 
1.172801e-001 
1.595121e-001 
1.967691e-001 
2.296421e-001 
2.615570e-001 
2.876271e-001 
3.025390e-001 
3.110025e-001 
3.178763e-001 
3.248120e-001 
3.261615e-001 
3.212297e-001 
3.147517e-001 
3.044355e-001 
2.849909e-001 
2.624069e-001 
2.437072e-001 
2.305012e-001 
2.146426e-001 
1.915765e-001 
1.738133e-001 
1.620022e-001 
1.496465e-001 
1.412193e-001 
1.417957e-001 
1.482174e-001 
1.578190e-001 
1.633214e-001 
1.684945e-001 
1.753051e-001 
1.759575e-001 
1.756501e-001 
1.814137e-001 
1.870192e-001 
1.912776e-001 
1.940512e-001 
1.888730e-001 
1.769376e-001 
1.603133e-001 
1.441833e-001 
1.337637e-001 
1.226133e-001 
1.056619e-001 
8.551640e-002 
6.141131e-002 
3.551692e-002 
1.222891e-002 
-1.151931e-003 
3.721493e-002 
1.496768e-001 
2.570188e-001 
2.850984e-001 
2.202608e-001 
1.370772e-001 
1.012292e-001 
9.513281e-002 
1.256706e-001 
2.259005e-001 
3.086749e-001 
2.587869e-001 
1.144545e-001 
-3.918275e-003 
4.381216e-003 
7.107722e-002 
1.066998e-001 
1.134237e-001 
8.346660e-002 
-1.768370e-002 
-1.438666e-001 
-2.070190e-001 
-1.709316e-001 
-7.865213e-002 
-1.511443e-002 
1.585510e-002 
3.729064e-002 
6.425930e-002 
1.000225e-001 
1.357272e-001 
1.677051e-001 
1.988527e-001 
2.277547e-001 
2.530068e-001 
2.755214e-001 
2.922500e-001 
3.039427e-001 
3.067483e-001 
2.973733e-001 
2.834820e-001 
2.669549e-001 
2.438758e-001 
2.164992e-001 
1.845053e-001 
1.475203e-001 
1.067025e-001 
6.259034e-002 
2.108587e-002 
-1.417647e-002 
-4.701172e-002 
-7.767182e-002 
-1.049941e-001 
-1.276676e-001 
-1.446683e-001 
-1.550638e-001 
-1.546656e-001 
-1.474711e-001 
-1.398303e-001 
-1.359621e-001 
-1.313815e-001 
-1.203474e-001 
-1.072613e-001 
-9.593091e-002 
-8.224497e-002 
-7.322357e-002 
-7.650394e-002 
-8.730127e-002 
-1.008847e-001 
-1.070533e-001 
-1.099718e-001 
-1.212516e-001 
-1.349790e-001 
-1.500581e-001 
-1.730043e-001 
-1.944719e-001 
-2.098297e-001 
-2.135890e-001 
-1.672336e-001 
-5.833971e-002 
4.320635e-002 
7.210782e-002 
1.214539e-002 
-6.345958e-002 
-9.070946e-002 
-8.900135e-002 
-5.241230e-002 
4.648407e-002 
1.248529e-001 
8.065931e-002 
-5.214169e-002 
-1.595583e-001 
-1.445311e-001 
-7.547106e-002 
-3.930548e-002 
-3.110526e-002 
-5.694305e-002 
-1.477855e-001 
-2.617777e-001 
-3.185385e-001 
-2.767849e-001 
-1.795892e-001 
-1.124579e-001 
-7.917008e-002 
-5.112944e-002 
-1.705284e-002 
1.946185e-002 
5.391895e-002 
8.938602e-002 
1.282365e-001 
1.618035e-001 
1.869050e-001 
2.082937e-001 
2.267451e-001 
2.366027e-001 
2.360639e-001 
2.286857e-001 
2.171792e-001 
1.999864e-001 
1.734062e-001 
1.418328e-001 
1.089458e-001 
7.126635e-002 
2.934523e-002 
-1.353317e-002 
-5.457931e-002 
-9.168687e-002 
-1.258847e-001 
-1.585579e-001 
-1.849809e-001 
-2.066602e-001 
-2.236236e-001 
-2.299925e-001 
-2.291921e-001 
-2.266453e-001 
-2.234815e-001 
-2.204944e-001 
-2.138256e-001 
-2.026308e-001 
-1.934182e-001 
-1.818032e-001 
-1.704018e-001 
-1.703536e-001 
-1.796321e-001 
-1.919802e-001 
-2.029888e-001 
-2.099997e-001 
-2.202971e-001 
-2.338134e-001 
-2.480983e-001 
-2.705725e-001 
-2.965572e-001 
-3.175655e-001 
-3.335670e-001 
-3.274017e-001 
-2.591416e-001 
-1.446218e-001 
-6.216550e-002 
-7.263881e-002 
-1.513435e-001 
-2.149028e-001 
-2.331598e-001 
-2.241358e-001 
-1.644861e-001 
-5.831303e-002 
-1.653109e-002 
-1.026284e-001 
-2.442457e-001 
-3.101420e-001 
-2.641115e-001 
-1.992491e-001 
-1.734275e-001 
-1.736664e-001 
-2.198926e-001 
-3.255739e-001 
-4.271352e-001 
-4.490400e-001 
-3.774403e-001 
-2.851419e-001 
-2.330109e-001 
-2.051352e-001 
-1.740636e-001 
-1.380440e-001 
-1.008829e-001 
-6.453164e-002 
-2.782953e-002 
7.680691e-003 
3.703790e-002 
6.241081e-002 
8.504031e-002 
1.004628e-001 
1.063594e-001 
1.069185e-001 
9.975104e-002 
8.562405e-002 
6.603783e-002 
4.332091e-002 
1.729642e-002 
-1.499684e-002 
-5.158450e-002 
-8.850254e-002 
-1.243426e-001 
-1.607051e-001 
-1.947485e-001 
-2.242731e-001 
-2.476775e-001 
-2.687554e-001 
-2.866576e-001 
-2.961349e-001 
-2.954471e-001 
-2.866562e-001 
-2.782290e-001 
-2.711025e-001 
-2.619929e-001 
-2.510906e-001 
-2.387703e-001 
-2.253551e-001 
-2.085044e-001 
-1.936873e-001 
-1.903605e-001 
-1.970056e-001 
-2.053897e-001 
-2.121753e-001 
-2.154360e-001 
-2.191424e-001 
-2.269741e-001 
-2.373543e-001 
-2.561367e-001 
-2.759582e-001 
-2.895957e-001 
-2.962720e-001 
-2.572421e-001 
-1.434442e-001 
-2.883999e-002 
5.913392e-003 
-5.311817e-002 
-1.309813e-001 
-1.611104e-001 
-1.609062e-001 
-1.291304e-001 
-2.818004e-002 
6.731796e-002 
3.331863e-002 
-1.036601e-001 
-2.156279e-001 
-2.032070e-001 
-1.325463e-001 
-9.157295e-002 
-7.976457e-002 
-9.731706e-002 
-1.836199e-001 
-3.033177e-001 
-3.647741e-001 
-3.261124e-001 
-2.313013e-001 
-1.620636e-001 
-1.250583e-001 
-9.486376e-002 
-6.066575e-002 
-2.418516e-002 
1.485936e-002 
5.439493e-002 
9.263638e-002 
1.304508e-001 
1.686075e-001 
2.033579e-001 
2.292703e-001 
2.452781e-001 
2.553326e-001 
2.591551e-001 
2.548335e-001 
2.434494e-001 
2.289929e-001 
2.094675e-001 
1.793654e-001 
1.403789e-001 
1.019015e-001 
6.540040e-002 
2.615120e-002 
-1.377078e-002 
-4.919270e-002 
-8.139043e-002 
-1.126518e-001 
-1.409658e-001 
-1.610811e-001 
-1.697967e-001 
-1.722717e-001 
-1.689330e-001 
-1.606787e-001 
-1.516825e-001 
-1.467658e-001 
-1.388968e-001 
-1.249560e-001 
-1.092928e-001 
-9.326832e-002 
-7.814423e-002 
-7.100986e-002 
-7.458230e-002 
-8.387692e-002 
-9.356466e-002 
-9.642263e-002 
-1.015246e-001 
-1.119453e-001 
-1.231165e-001 
-1.388539e-001 
-1.608310e-001 
-1.789732e-001 
-1.938456e-001 
-1.868713e-001 
-1.076448e-001 
1.651577e-002 
1.012769e-001 
8.417180e-002 
5.018469e-003 
-4.841061e-002 
-6.120676e-002 
-5.259859e-002 
1.722471e-002 
1.377695e-001 
1.779760e-001 
7.972504e-002 
-6.739727e-002 
-1.145097e-001 
-5.892275e-002 
-1.081106e-003 
2.584570e-002 
3.284644e-002 
-1.795869e-002 
-1.335323e-001 
-2.343902e-001 
-2.437028e-001 
-1.629771e-001 
-7.429444e-002 
-2.159538e-002 
1.159220e-002 
4.266142e-002 
7.864711e-002 
1.190425e-001 
1.572183e-001 
1.917582e-001 
2.269933e-001 
2.612490e-001 
2.883362e-001 
3.076980e-001 
3.195191e-001 
3.276425e-001 
3.246855e-001 
3.129470e-001 
2.991614e-001 
2.810544e-001 
2.560381e-001 
2.237824e-001 
1.868818e-001 
1.501228e-001 
1.128956e-001 
7.140663e-002 
3.510865e-002 
3.408314e-003 
-2.778319e-002 
-5.577255e-002 
-7.936342e-002 
-9.598585e-002 
-1.043142e-001 
-1.082470e-001 
-1.057857e-001 
-9.657135e-002 
-8.821767e-002 
-8.330486e-002 
-7.973741e-002 
-7.230591e-002 
-5.963724e-002 
-4.746265e-002 
-3.678214e-002 
-2.941978e-002 
-3.153941e-002 
-4.160995e-002 
-5.597057e-002 
-6.669511e-002 
-7.008513e-002 
-7.711595e-002 
-8.993236e-002 
-1.046553e-001 
-1.258456e-001 
-1.484827e-001 
-1.649904e-001 
-1.754937e-001 
-1.518447e-001 
-5.261861e-002 
7.294164e-002 
1.440864e-001 
1.108965e-001 
2.586681e-002 
-2.223489e-002 
-2.814926e-002 
-7.072450e-003 
7.831364e-002 
1.917437e-001 
2.004559e-001 
8.213613e-002 
-6.251944e-002 
-9.157682e-002 
-2.619085e-002 
2.900195e-002 
4.784158e-002 
4.007958e-002 
-3.063294e-002 
-1.562990e-001 
-2.505884e-001 
-2.443975e-001 
-1.546949e-001 
-7.313676e-002 
-2.749178e-002 
2.335958e-003 
3.511690e-002 
7.146809e-002 
1.080398e-001 
1.454666e-001 
1.828911e-001 
2.176061e-001 
2.513498e-001 
2.819804e-001 
3.060590e-001 
3.222850e-001 
3.292732e-001 
3.287705e-001 
3.226959e-001 
3.115050e-001 
2.940153e-001 
2.703439e-001 
2.395133e-001 
2.033013e-001 
1.626109e-001 
1.215229e-001 
8.228119e-002 
4.447766e-002 
8.191334e-003 
-2.605281e-002 
-5.592514e-002 
-8.180721e-002 
-1.034438e-001 
-1.173150e-001 
-1.218704e-001 
-1.240471e-001 
-1.240323e-001 
-1.190093e-001 
-1.081672e-001 
-9.692771e-002 
-9.006142e-002 
-8.496772e-002 
-7.550378e-002 
-6.457275e-002 
-5.652170e-002 
-4.655840e-002 
-3.638905e-002 
-3.423772e-002 
-4.252150e-002 
-5.401293e-002 
-6.487563e-002 
-7.089619e-002 
-7.548874e-002 
-8.471559e-002 
-9.549680e-002 
-1.121334e-001 
-1.350474e-001 
-1.525924e-001 
-1.640248e-001 
-1.634325e-001 
-1.078679e-001 
1.255468e-002 
1.177613e-001 
1.406191e-001 
7.434035e-002 
-1.363817e-003 
-2.794114e-002 
-2.410687e-002 
1.881446e-002 
1.233251e-001 
1.985947e-001 
1.402817e-001 
-3.824332e-003 
-1.088333e-001 
-8.942054e-002 
-2.070402e-002 
1.579831e-002 
2.183872e-002 
-1.036574e-002 
-1.115274e-001 
-2.321022e-001 
-2.837249e-001 
-2.372130e-001 
-1.431233e-001 
-7.835107e-002 
-4.305168e-002 
-1.502226e-002 
1.603929e-002 
5.138313e-002 
8.845071e-002 
1.228852e-001 
1.542034e-001 
1.842043e-001 
2.147182e-001 
2.387787e-001 
2.527058e-001 
2.627185e-001 
2.656604e-001 
2.585290e-001 
2.463899e-001 
2.299398e-001 
2.106483e-001 
1.876641e-001 
1.537294e-001 
1.165319e-001 
7.992349e-002 
3.990213e-002 
2.291643e-003 
-3.060969e-002 
-6.181654e-002 
-8.885459e-002 
-1.126802e-001 
-1.338854e-001 
-1.476105e-001 
-1.547930e-001 
-1.572511e-001 
-1.564153e-001 
-1.530212e-001 
-1.463694e-001 
-1.367784e-001 
-1.252990e-001 
-1.145080e-001 
-1.065461e-001 
-1.014571e-001 
-9.487914e-002 
-8.473771e-002 
-7.373786e-002 
-6.325516e-002 
-5.785090e-002 
-5.747896e-002 
-6.368533e-002 
-7.767054e-002 
-8.948418e-002 
-9.171886e-002 
-9.473996e-002 
-1.040555e-001 
-1.181646e-001 
-1.358747e-001 
-1.524719e-001 
-1.682139e-001 
-1.801105e-001 
-1.605253e-001 
-6.919502e-002 
6.177679e-002 
1.477372e-001 
1.316739e-001 
4.945110e-002 
-1.083276e-002 
-2.167935e-002 
-2.885263e-003 
7.235051e-002 
1.881647e-001 
2.222477e-001 
1.198103e-001 
-3.313238e-002 
-9.030019e-002 
-3.138834e-002 
3.565190e-002 
5.935055e-002 
5.608063e-002 
-3.596984e-003 
-1.251728e-001 
-2.314859e-001 
-2.446460e-001 
-1.605383e-001 
-6.630136e-002 
-1.232626e-002 
2.115353e-002 
5.321385e-002 
8.867486e-002 
1.297572e-001 
1.717861e-001 
2.112212e-001 
2.489175e-001 
2.848620e-001 
3.194578e-001 
3.461034e-001 
3.623835e-001 
3.730166e-001 
3.771703e-001 
3.706889e-001 
3.562018e-001 
3.390412e-001 
3.166074e-001 
2.858457e-001 
2.487180e-001 
2.075548e-001 
1.650784e-001 
1.204404e-001 
7.693762e-002 
3.889717e-002 
4.288324e-003 
-2.967037e-002 
-5.859354e-002 
-8.036322e-002 
-9.707312e-002 
-1.080670e-001 
-1.134014e-001 
-1.120730e-001 
-1.097256e-001 
-1.077117e-001 
-1.009267e-001 
-8.960245e-002 
-7.817189e-002 
-6.968108e-002 
-6.415731e-002 
-5.910535e-002 
-5.014509e-002 
-4.134963e-002 
-3.258737e-002 
-2.195012e-002 
-1.751428e-002 
-2.206142e-002 
-3.317915e-002 
-4.527519e-002 
-5.185899e-002 
-5.332997e-002 
-5.917415e-002 
-6.910221e-002 
-8.293266e-002 
-1.014711e-001 
-1.177088e-001 
-1.290291e-001 
-1.305067e-001 
-9.525559e-002 
1.100283e-002 
1.437261e-001 
2.221115e-001 
1.980931e-001 
1.234074e-001 
8.015950e-002 
8.025207e-002 
1.163174e-001 
2.127447e-001 
3.284802e-001 
3.449580e-001 
2.340834e-001 
9.329852e-002 
6.294325e-002 
1.306665e-001 
1.946880e-001 
2.202676e-001 
2.105208e-001 
1.370054e-001 
1.165805e-002 
-8.706149e-002 
-8.595586e-002 
2.960507e-003 
8.795957e-002 
1.333426e-001 
1.603179e-001 
1.882485e-001 
2.208714e-001 
2.563264e-001 
2.917249e-001 
3.290832e-001 
3.629393e-001 
3.926497e-001 
4.228889e-001 
4.478273e-001 
4.631415e-001 
4.712719e-001 
4.706658e-001 
4.622875e-001 
4.480532e-001 
4.265460e-001 
4.038127e-001 
3.764414e-001 
3.391255e-001 
2.970386e-001 
2.531197e-001 
2.080338e-001 
1.639693e-001 
1.220095e-001 
8.527261e-002 
5.312016e-002 
2.071711e-002 
-6.054310e-003 
-2.550404e-002 
-3.906131e-002 
-4.670470e-002 
-5.089921e-002 
-5.149519e-002 
-4.980769e-002 
-4.849501e-002 
-4.352345e-002 
-3.553935e-002 
-3.155019e-002 
-3.057019e-002 
-2.820846e-002 
-2.145286e-002 
-1.413482e-002 
-7.992324e-003 
-3.299794e-003 
-3.426636e-003 
-1.033319e-002 
-2.301120e-002 
-3.515091e-002 
-4.033915e-002 
-4.400289e-002 
-5.295694e-002 
-6.505624e-002 
-8.216218e-002 
-9.961132e-002 
-1.120340e-001 
-1.204709e-001 
-1.044872e-001 
-2.433713e-002 
9.631981e-002 
1.773068e-001 
1.693841e-001 
9.528810e-002 
2.982373e-002 
7.337256e-003 
1.838975e-002 
8.202588e-002 
1.852478e-001 
2.185790e-001 
1.289137e-001 
-8.998976e-003 
-7.923767e-002 
-4.534423e-002 
1.565636e-002 
4.502326e-002 
4.074977e-002 
-1.612450e-002 
-1.303002e-001 
-2.335127e-001 
-2.551022e-001 
-1.876461e-001 
-9.572748e-002 
-3.552715e-002 
-1.905525e-003 
2.538011e-002 
5.673251e-002 
9.185204e-002 
1.266297e-001 
1.599633e-001 
1.936017e-001 
2.253788e-001 
2.532464e-001 
2.755006e-001 
2.918042e-001 
3.024222e-001 
3.052381e-001 
2.992204e-001 
2.900022e-001 
2.771992e-001 
2.554562e-001 
2.277691e-001 
1.961273e-001 
1.601383e-001 
1.227076e-001 
8.534704e-002 
5.018095e-002 
1.811369e-002 
-1.473329e-002 
-4.499289e-002 
-6.800842e-002 
-8.689232e-002 
-1.011608e-001 
-1.085323e-001 
-1.106471e-001 
-1.103032e-001 
-1.094904e-001 
-1.054832e-001 
-9.319486e-002 
-7.883791e-002 
-6.982318e-002 
-6.393002e-002 
-5.797656e-002 
-4.914582e-002 
-3.981840e-002 
-3.181821e-002 
-2.080575e-002 
-1.328886e-002 
-1.845353e-002 
-2.964067e-002 
-4.244149e-002 
-5.168884e-002 
-5.702500e-002 
-6.649120e-002 
-7.865092e-002 
-9.284399e-002 
-1.146544e-001 
-1.348089e-001 
-1.490277e-001 
-1.551454e-001 
-1.182485e-001 
-1.373676e-002 
9.525013e-002 
1.370564e-001 
8.329129e-002 
-1.992199e-003 
-4.035501e-002 
-4.096720e-002 
-1.026800e-002 
7.953387e-002 
1.692874e-001 
1.448410e-001 
1.853413e-002 
-1.054371e-001 
-1.093337e-001 
-3.593865e-002 
1.249002e-002 
2.253371e-002 
2.175953e-003 
-7.777617e-002 
-1.929268e-001 
-2.601502e-001 
-2.306209e-001 
-1.329425e-001 
-5.520574e-002 
-1.449499e-002 
1.496631e-002 
5.005646e-002 
9.027720e-002 
1.310628e-001 
1.714519e-001 
2.094631e-001 
2.452318e-001 
2.809082e-001 
3.120373e-001 
3.358954e-001 
3.513996e-001 
3.591622e-001 
3.588055e-001 
3.489138e-001 
3.329649e-001 
3.153091e-001 
2.924009e-001 
2.608002e-001 
2.233082e-001 
1.810309e-001 
1.393465e-001 
9.726075e-002 
5.537136e-002 
1.764323e-002 
-1.760010e-002 
-4.976926e-002 
-7.713089e-002 
-9.808777e-002 
-1.108482e-001 
-1.169795e-001 
-1.219828e-001 
-1.231073e-001 
-1.218203e-001 
-1.200672e-001 
-1.153710e-001 
-1.064319e-001 
-9.417026e-002 
-8.444354e-002 
-8.157105e-002 
-8.158754e-002 
-7.535506e-002 
-6.616512e-002 
-5.856397e-002 
-4.835324e-002 
-3.898619e-002 
-3.974787e-002 
-5.175062e-002 
-6.826494e-002 
-7.848441e-002 
-8.104940e-002 
-8.856874e-002 
-9.987971e-002 
-1.111497e-001 
-1.286940e-001 
-1.499660e-001 
-1.678847e-001 
-1.726493e-001 
-1.373533e-001 
-3.709489e-002 
7.649617e-002 
1.269464e-001 
7.723177e-002 
-1.126202e-002 
-5.869498e-002 
-6.130585e-002 
-3.009558e-002 
5.547266e-002 
1.518147e-001 
1.430262e-001 
1.922194e-002 
-1.128385e-001 
-1.275002e-001 
-5.557004e-002 
5.669657e-004 
1.486378e-002 
-1.647545e-003 
-7.487691e-002 
-1.903852e-001 
-2.651779e-001 
-2.422208e-001 
-1.436916e-001 
-5.684009e-002 
-1.163898e-002 
1.803458e-002 
5.410869e-002 
9.338618e-002 
1.331341e-001 
1.740147e-001 
2.143967e-001 
2.546641e-001 
2.915942e-001 
3.236659e-001 
3.502646e-001 
3.680261e-001 
3.758538e-001 
3.753042e-001 
3.670344e-001 
3.519374e-001 
3.317578e-001 
3.073125e-001 
2.771603e-001 
2.385741e-001 
1.946055e-001 
1.493551e-001 
1.040998e-001 
5.928537e-002 
1.645298e-002 
-2.004125e-002 
-5.151571e-002 
-8.138491e-002 
-1.070089e-001 
-1.233875e-001 
-1.322672e-001 
-1.374948e-001 
-1.394072e-001 
-1.364521e-001 
-1.303931e-001 
-1.270610e-001 
-1.227672e-001 
-1.120470e-001 
-1.017740e-001 
-9.787253e-002 
-9.735244e-002 
-9.254548e-002 
-8.369562e-002 
-7.525280e-002 
-6.724312e-002 
-5.749773e-002 
-5.442081e-002 
-6.423230e-002 
-7.947872e-002 
-9.115903e-002 
-9.636947e-002 
-1.015947e-001 
-1.107089e-001 
-1.234054e-001 
-1.407706e-001 
-1.621249e-001 
-1.814878e-001 
-1.939651e-001 
-1.871405e-001 
-1.254778e-001 
-2.070604e-003 
1.012002e-001 
1.190625e-001 
4.817799e-002 
-3.291088e-002 
-6.345007e-002 
-5.653551e-002 
-6.637075e-003 
9.932569e-002 
1.685079e-001 
1.035474e-001 
-4.331237e-002 
-1.531501e-001 
-1.320392e-001 
-5.865619e-002 
-2.306037e-002 
-2.302945e-002 
-6.474852e-002 
-1.719919e-001 
-2.934428e-001 
-3.449290e-001 
-2.948461e-001 
-1.921981e-001 
-1.271041e-001 
-9.488556e-002 
-6.823228e-002 
-3.509910e-002 
4.452757e-003 
4.284147e-002 
7.985130e-002 
1.177802e-001 
1.533684e-001 
1.852109e-001 
2.156235e-001 
2.384469e-001 
2.555058e-001 
2.623498e-001 
2.571850e-001 
2.461850e-001 
2.304482e-001 
2.078762e-001 
1.813889e-001 
1.497996e-001 
1.131097e-001 
7.115691e-002 
2.414556e-002 
-2.047412e-002 
-6.270461e-002 
-1.035803e-001 
-1.413896e-001 
-1.742576e-001 
-2.016048e-001 
-2.253561e-001 
-2.462796e-001 
-2.572739e-001 
-2.621552e-001 
-2.651840e-001 
-2.652431e-001 
-2.634653e-001 
-2.569997e-001 
-2.478501e-001 
-2.433064e-001 
-2.414084e-001 
-2.407785e-001 
-2.374556e-001 
-2.275566e-001 
-2.188045e-001 
-2.108498e-001 
-2.026104e-001 
-2.034125e-001 
-2.130733e-001 
-2.258035e-001 
-2.346721e-001 
-2.331232e-001 
-2.334217e-001 
-2.432012e-001 
-2.554694e-001 
-2.692806e-001 
-2.846720e-001 
-2.953309e-001 
-2.984583e-001 
-2.710753e-001 
-1.765394e-001 
-5.151533e-002 
1.971262e-002 
-4.898460e-003 
-8.047886e-002 
-1.345419e-001 
-1.459817e-001 
-1.245642e-001 
-4.861262e-002 
5.938725e-002 
8.087376e-002 
-2.741191e-002 
-1.637077e-001 
-2.022918e-001 
-1.483297e-001 
-8.681293e-002 
-6.043213e-002 
-6.687950e-002 
-1.289561e-001 
-2.451752e-001 
-3.377668e-001 
-3.350597e-001 
-2.511498e-001 
-1.627898e-001 
-1.081669e-001 
-7.581080e-002 
-4.447923e-002 
-8.293338e-003 
3.067890e-002 
7.049359e-002 
1.079784e-001 
1.430415e-001 
1.775630e-001 
2.090143e-001 
2.336909e-001 
2.523253e-001 
2.632356e-001 
2.686339e-001 
2.672963e-001 
2.573602e-001 
2.415417e-001 
2.214474e-001 
1.961557e-001 
1.646075e-001 
1.293144e-001 
9.311439e-002 
5.723346e-002 
1.786649e-002 
-1.884768e-002 
-5.083863e-002 
-7.777007e-002 
-1.001186e-001 
-1.187898e-001 
-1.312674e-001 
-1.376602e-001 
-1.421995e-001 
-1.431128e-001 
-1.379270e-001 
-1.319166e-001 
-1.255604e-001 
-1.193258e-001 
-1.131482e-001 
-1.064411e-001 
-9.695231e-002 
-8.644650e-002 
-7.773537e-002 
-7.299068e-002 
-6.858054e-002 
-5.996253e-002 
-4.843668e-002 
-3.715489e-002 
-2.945810e-002 
-2.585924e-002 
-2.858241e-002 
-3.709246e-002 
-4.603957e-002 
-4.802483e-002 
-4.851877e-002 
-5.244735e-002 
-6.067669e-002 
-7.564802e-002 
-9.217372e-002 
-1.050573e-001 
-1.129017e-001 
-9.612161e-002 
-1.615930e-002 
1.085721e-001 
1.965665e-001 
1.877589e-001 
1.036502e-001 
3.542823e-002 
2.182855e-002 
3.790554e-002 
1.000863e-001 
2.044841e-001 
2.438992e-001 
1.509063e-001 
-1.391043e-003 
-7.747247e-002 
-3.000371e-002 
3.992626e-002 
6.247566e-002 
5.323480e-002 
-2.892322e-003 
-1.180103e-001 
-2.277241e-001 
-2.514986e-001 
-1.766589e-001 
-7.807184e-002 
-2.195091e-002 
6.599344e-003 
3.654400e-002 
7.398313e-002 
1.137118e-001 
1.526502e-001 
1.965072e-001 
2.395852e-001 
2.759840e-001 
3.098919e-001 
3.402319e-001 
3.629083e-001 
3.757384e-001 
3.789188e-001 
3.771299e-001 
3.695192e-001 
3.513113e-001 
3.274020e-001 
3.009381e-001 
2.665227e-001 
2.231783e-001 
1.771977e-001 
1.329956e-001 
8.969549e-002 
4.569210e-002 
4.441495e-003 
-3.202311e-002 
-6.381122e-002 
-9.219301e-002 
-1.140083e-001 
-1.269716e-001 
-1.342073e-001 
-1.388878e-001 
-1.414809e-001 
-1.405272e-001 
-1.370269e-001 
-1.336754e-001 
-1.313668e-001 
-1.268212e-001 
-1.182035e-001 
-1.097576e-001 
-1.056270e-001 
-1.028583e-001 
-9.862021e-002 
-9.163205e-002 
-8.376611e-002 
-7.552583e-002 
-6.395399e-002 
-5.624080e-002 
-5.831860e-002 
-6.410950e-002 
-6.958785e-002 
-7.057647e-002 
-6.730718e-002 
-6.730102e-002 
-6.978277e-002 
-7.553001e-002 
-8.863396e-002 
-9.815608e-002 
-1.020014e-001 
-9.315330e-002 
-3.598489e-002 
6.804003e-002 
1.519103e-001 
1.650192e-001 
1.127003e-001 
5.869243e-002 
4.563058e-002 
5.664662e-002 
1.020339e-001 
1.924464e-001 
2.481372e-001 
1.959957e-001 
8.503301e-002 
1.545304e-002 
3.981318e-002 
9.627855e-002 
1.243054e-001 
1.262140e-001 
9.318586e-002 
6.277036e-003 
-8.922956e-002 
-1.235841e-001 
-8.155851e-002 
-9.274608e-003 
3.685915e-002 
5.927196e-002 
7.643166e-002 
9.787174e-002 
1.217263e-001 
1.490070e-001 
1.786095e-001 
2.057661e-001 
2.307867e-001 
2.538190e-001 
2.736520e-001 
2.884978e-001 
2.981597e-001 
3.021043e-001 
3.019698e-001 
2.922587e-001 
2.730161e-001 
2.483643e-001 
2.195201e-001 
1.880481e-001 
1.536483e-001 
1.155316e-001 
7.522108e-002 
3.249535e-002 
-1.266813e-002 
-5.616828e-002 
-9.494210e-002 
-1.272320e-001 
-1.541072e-001 
-1.785790e-001 
-2.003625e-001 
-2.161147e-001 
-2.267787e-001 
-2.334485e-001 
-2.367351e-001 
-2.369434e-001 
-2.362793e-001 
-2.355764e-001 
-2.329253e-001 
-2.274558e-001 
-2.220473e-001 
-2.210621e-001 
-2.216602e-001 
-2.191801e-001 
-2.121693e-001 
-2.034021e-001 
-1.938803e-001 
-1.893435e-001 
-1.924650e-001 
-2.017166e-001 
-2.141626e-001 
-2.215471e-001 
-2.237064e-001 
-2.268659e-001 
-2.338590e-001 
-2.458994e-001 
-2.640240e-001 
-2.789729e-001 
-2.887127e-001 
-2.866323e-001 
-2.418124e-001 
-1.321241e-001 
-1.956496e-002 
1.908090e-002 
-3.679406e-002 
-1.138928e-001 
-1.469898e-001 
-1.469500e-001 
-1.127329e-001 
-2.243060e-002 
6.453472e-002 
3.466611e-002 
-9.821844e-002 
-2.142496e-001 
-2.084648e-001 
-1.419284e-001 
-9.840359e-002 
-8.596384e-002 
-1.089515e-001 
-1.935844e-001 
-3.099371e-001 
-3.737318e-001 
-3.386547e-001 
-2.428997e-001 
-1.702680e-001 
-1.294838e-001 
-1.001897e-001 
-6.835158e-002 
-3.137770e-002 
6.738592e-003 
4.228056e-002 
7.791205e-002 
1.122702e-001 
1.412097e-001 
1.658083e-001 
1.850139e-001 
1.983226e-001 
2.052043e-001 
2.041984e-001 
1.966973e-001 
1.859653e-001 
1.695037e-001 
1.476689e-001 
1.197092e-001 
8.673770e-002 
5.164256e-002 
1.457298e-002 
-2.262138e-002 
-5.760284e-002 
-8.967592e-002 
-1.177802e-001 
-1.427494e-001 
-1.647933e-001 
-1.788819e-001 
-1.871819e-001 
-1.929010e-001 
-1.939617e-001 
-1.916422e-001 
-1.875578e-001 
-1.829575e-001 
-1.788974e-001 
-1.728817e-001 
-1.634116e-001 
-1.536353e-001 
-1.463846e-001 
-1.407444e-001 
-1.373147e-001 
-1.332869e-001 
-1.258246e-001 
-1.159646e-001 
-1.062277e-001 
-1.010399e-001 
-1.031547e-001 
-1.121412e-001 
-1.236787e-001 
-1.332281e-001 
-1.363183e-001 
-1.385038e-001 
-1.441201e-001 
-1.555142e-001 
-1.736471e-001 
-1.902925e-001 
-2.016074e-001 
-2.031183e-001 
-1.667518e-001 
-6.125970e-002 
5.757458e-002 
1.109901e-001 
6.856178e-002 
-1.752228e-002 
-6.354110e-002 
-6.292414e-002 
-3.169102e-002 
5.530564e-002 
1.528936e-001 
1.426535e-001 
2.236684e-002 
-1.062955e-001 
-1.284073e-001 
-5.782046e-002 
-7.854221e-004 
1.331905e-002 
-4.069537e-003 
-8.027901e-002 
-1.980915e-001 
-2.735164e-001 
-2.536360e-001 
-1.601055e-001 
-7.538793e-002 
-2.990196e-002 
-6.826359e-005 
3.271133e-002 
7.184782e-002 
1.131493e-001 
1.551038e-001 
1.944663e-001 
2.296597e-001 
2.650299e-001 
3.001983e-001 
3.252815e-001 
3.430240e-001 
3.531577e-001 
3.536747e-001 
3.452163e-001 
3.287251e-001 
3.086533e-001 
2.866458e-001 
2.560298e-001 
2.145916e-001 
1.700276e-001 
1.233661e-001 
7.640327e-002 
2.954285e-002 
-1.394751e-002 
-5.292256e-002 
-8.863910e-002 
-1.219004e-001 
-1.498546e-001 
-1.691006e-001 
-1.800449e-001 
-1.870951e-001 
-1.908756e-001 
-1.902124e-001 
-1.884913e-001 
-1.853122e-001 
-1.810065e-001 
-1.727120e-001 
-1.604847e-001 
-1.501471e-001 
-1.446788e-001 
-1.393931e-001 
-1.337465e-001 
-1.258599e-001 
-1.156081e-001 
-1.026730e-001 
-9.141650e-002 
-9.024800e-002 
-9.689740e-002 
-1.072349e-001 
-1.163905e-001 
-1.218086e-001 
-1.252597e-001 
-1.299500e-001 
-1.395092e-001 
-1.588207e-001 
-1.782066e-001 
-1.918623e-001 
-2.014977e-001 
-1.868570e-001 
-1.074357e-001 
2.061294e-002 
1.015758e-001 
7.484459e-002 
-1.219487e-002 
-7.001579e-002 
-8.223179e-002 
-6.852956e-002 
-3.145617e-003 
1.080839e-001 
1.463521e-001 
3.836152e-002 
-1.143894e-001 
-1.661720e-001 
-1.070766e-001 
-4.508701e-002 
-2.339494e-002 
-2.635537e-002 
-7.981153e-002 
-1.960160e-001 
-3.001093e-001 
-3.071939e-001 
-2.209840e-001 
-1.252968e-001 
-7.348242e-002 
-4.273696e-002 
-1.076606e-002 
2.540677e-002 
6.573998e-002 
1.067579e-001 
1.483632e-001 
1.896909e-001 
2.275778e-001 
2.606687e-001 
2.888001e-001 
3.105149e-001 
3.228669e-001 
3.259878e-001 
3.198643e-001 
3.074136e-001 
2.884146e-001 
2.632832e-001 
2.329862e-001 
1.958290e-001 
1.538541e-001 
1.081625e-001 
5.974493e-002 
1.139115e-002 
-3.306441e-002 
-7.503764e-002 
-1.124928e-001 
-1.447580e-001 
-1.739577e-001 
-1.944467e-001 
-2.089427e-001 
-2.202103e-001 
-2.249123e-001 
-2.234495e-001 
-2.213189e-001 
-2.176546e-001 
-2.145818e-001 
-2.122292e-001 
-2.063739e-001 
-1.996934e-001 
-1.910881e-001 
-1.818532e-001 
-1.766590e-001 
-1.759074e-001 
-1.712740e-001 
-1.620195e-001 
-1.524343e-001 
-1.426987e-001 
-1.369917e-001 
-1.393509e-001 
-1.490911e-001 
-1.624125e-001 
-1.708868e-001 
-1.707156e-001 
-1.735898e-001 
-1.837537e-001 
-1.966410e-001 
-2.149145e-001 
-2.338504e-001 
-2.478139e-001 
-2.496639e-001 
-2.059944e-001 
-9.155733e-002 
2.551642e-002 
6.954055e-002 
1.529739e-002 
-7.291575e-002 
-1.152207e-001 
-1.153096e-001 
-7.940820e-002 
1.696949e-002 
1.104624e-001 
8.191577e-002 
-5.626378e-002 
-1.903791e-001 
-1.989459e-001 
-1.264155e-001 
-7.667907e-002 
-6.595932e-002 
-9.238045e-002 
-1.851023e-001 
-3.126239e-001 
-3.878788e-001 
-3.590185e-001 
-2.582252e-001 
-1.788130e-001 
-1.398458e-001 
-1.153655e-001 
-8.698989e-002 
-5.112072e-002 
-1.101954e-002 
2.911576e-002 
6.753896e-002 
1.027246e-001 
1.363998e-001 
1.667493e-001 
1.912079e-001 
2.102249e-001 
2.219736e-001 
2.238226e-001 
2.159724e-001 
2.010778e-001 
1.831852e-001 
1.615050e-001 
1.323315e-001 
9.802849e-002 
5.968428e-002 
1.733149e-002 
-2.508045e-002 
-6.455246e-002 
-1.000120e-001 
-1.330115e-001 
-1.647977e-001 
-1.912449e-001 
-2.120896e-001 
-2.281584e-001 
-2.378587e-001 
-2.400549e-001 
-2.388735e-001 
-2.365653e-001 
-2.339984e-001 
-2.291667e-001 
-2.204597e-001 
-2.099196e-001 
-1.999556e-001 
-1.917295e-001 
-1.866251e-001 
-1.834115e-001 
-1.763575e-001 
-1.673623e-001 
-1.572135e-001 
-1.478698e-001 
-1.447202e-001 
-1.484595e-001 
-1.561553e-001 
-1.655327e-001 
-1.703028e-001 
-1.712202e-001 
-1.752465e-001 
-1.842736e-001 
-1.982298e-001 
-2.137113e-001 
-2.265012e-001 
-2.367575e-001 
-2.362273e-001 
-1.930919e-001 
-8.235531e-002 
2.997327e-002 
6.746021e-002 
1.422596e-002 
-6.063191e-002 
-9.413852e-002 
-9.170244e-002 
-5.411924e-002 
4.178038e-002 
1.326745e-001 
1.017493e-001 
-2.893720e-002 
-1.421432e-001 
-1.349543e-001 
-6.424762e-002 
-1.646055e-002 
-2.392912e-003 
-2.289915e-002 
-1.073761e-001 
-2.225042e-001 
-2.819233e-001 
-2.443888e-001 
-1.470548e-001 
-7.132782e-002 
-2.876949e-002 
2.136356e-003 
3.639031e-002 
7.613634e-002 
1.181582e-001 
1.567595e-001 
1.927551e-001 
2.284978e-001 
2.612865e-001 
2.886319e-001 
3.103882e-001 
3.252936e-001 
3.323659e-001 
3.296207e-001 
3.201351e-001 
3.073526e-001 
2.889337e-001 
2.647136e-001 
2.359387e-001 
2.020931e-001 
1.634991e-001 
1.222440e-001 
8.172449e-002 
4.518959e-002 
1.160882e-002 
-1.836543e-002 
-4.286293e-002 
-6.385071e-002 
-8.092776e-002 
-9.243854e-002 
-9.827979e-002 
-9.878470e-002 
-9.650783e-002 
-9.278140e-002 
-8.781615e-002 
-8.284929e-002 
-7.905529e-002 
-7.569941e-002 
-6.861019e-002 
-5.792699e-002 
-4.995686e-002 
-4.704533e-002 
-4.474716e-002 
-3.920482e-002 
-3.150585e-002 
-2.525615e-002 
-1.769656e-002 
-1.057985e-002 
-1.220804e-002 
-2.308566e-002 
-3.488464e-002 
-4.053386e-002 
-4.310535e-002 
-4.889970e-002 
-5.817870e-002 
-6.865449e-002 
-8.417815e-002 
-1.005847e-001 
-1.118235e-001 
-1.099244e-001 
-6.418160e-002 
4.627616e-002 
1.567569e-001 
1.932124e-001 
1.374519e-001 
5.634563e-002 
2.282700e-002 
2.615515e-002 
6.151276e-002 
1.541722e-001 
2.394575e-001 
2.055387e-001 
7.178432e-002 
-4.616752e-002 
-4.271614e-002 
2.822093e-002 
6.913778e-002 
7.606501e-002 
5.065037e-002 
-3.706442e-002 
-1.549414e-001 
-2.170448e-001 
-1.796625e-001 
-8.307966e-002 
-1.027783e-002 
2.859092e-002 
5.940258e-002 
9.327683e-002 
1.318381e-001 
1.738754e-001 
2.164113e-001 
2.541280e-001 
2.902840e-001 
3.271474e-001 
3.618833e-001 
3.881943e-001 
4.024588e-001 
4.093666e-001 
4.094600e-001 
3.985917e-001 
3.811675e-001 
3.614183e-001 
3.375020e-001 
3.065816e-001 
2.627692e-001 
2.147227e-001 
1.707401e-001 
1.274830e-001 
8.284008e-002 
4.132394e-002 
2.950835e-003 
-3.119938e-002 
-6.257884e-002 
-9.013388e-002 
-1.054016e-001 
-1.117184e-001 
-1.170407e-001 
-1.207428e-001 
-1.198542e-001 
-1.168393e-001 
-1.131127e-001 
-1.101516e-001 
-1.076898e-001 
-1.023485e-001 
-9.456295e-002 
-8.763129e-002 
-8.156101e-002 
-7.669046e-002 
-7.545105e-002 
-7.286282e-002 
-6.594310e-002 
-5.663602e-002 
-4.376671e-002 
-3.530528e-002 
-3.820457e-002 
-4.464766e-002 
-5.210532e-002 
-5.991152e-002 
-6.218374e-002 
-6.359860e-002 
-6.885677e-002 
-7.908765e-002 
-9.745710e-002 
-1.144174e-001 
-1.238145e-001 
-1.288108e-001 
-1.048969e-001 
-6.731112e-003 
1.238009e-001 
1.970324e-001 
1.619092e-001 
7.319417e-002 
2.014391e-002 
1.084409e-002 
3.110887e-002 
1.094330e-001 
2.196150e-001 
2.319561e-001 
1.103021e-001 
-4.260271e-002 
-8.003249e-002 
-1.567193e-002 
4.385132e-002 
6.213072e-002 
4.879014e-002 
-2.220593e-002 
-1.473765e-001 
-2.443165e-001 
-2.406102e-001 
-1.476896e-001 
-5.760431e-002 
-8.824323e-003 
1.917351e-002 
5.131944e-002 
8.989616e-002 
1.311907e-001 
1.715711e-001 
2.101974e-001 
2.474531e-001 
2.824599e-001 
3.126403e-001 
3.368435e-001 
3.536810e-001 
3.626498e-001 
3.631945e-001 
3.536912e-001 
3.371541e-001 
3.165501e-001 
2.904888e-001 
2.570540e-001 
2.165077e-001 
1.727095e-001 
1.264456e-001 
7.739048e-002 
2.937859e-002 
-1.389130e-002 
-5.399700e-002 
-9.166058e-002 
-1.237054e-001 
-1.490763e-001 
-1.677028e-001 
-1.814265e-001 
-1.889321e-001 
-1.907424e-001 
-1.907789e-001 
-1.916068e-001 
-1.902369e-001 
-1.875550e-001 
-1.856571e-001 
-1.853771e-001 
-1.855272e-001 
-1.835667e-001 
-1.803260e-001 
-1.761944e-001 
-1.733687e-001 
-1.736627e-001 
-1.763606e-001 
-1.752277e-001 
-1.704122e-001 
-1.633316e-001 
-1.547916e-001 
-1.502642e-001 
-1.524352e-001 
-1.608776e-001 
-1.729117e-001 
-1.808474e-001 
-1.796302e-001 
-1.815418e-001 
-1.887379e-001 
-1.998742e-001 
-2.162703e-001 
-2.314162e-001 
-2.420812e-001 
-2.452334e-001 
-2.134545e-001 
-1.121932e-001 
1.161088e-002 
8.268131e-002 
5.311439e-002 
-2.844834e-002 
-7.996007e-002 
-8.841503e-002 
-6.365196e-002 
1.891179e-002 
1.246953e-001 
1.348765e-001 
2.072516e-002 
-1.226702e-001 
-1.596252e-001 
-1.016635e-001 
-4.210685e-002 
-1.848226e-002 
-2.962017e-002 
-1.002694e-001 
-2.222353e-001 
-3.154864e-001 
-3.095032e-001 
-2.193992e-001 
-1.293057e-001 
-7.347566e-002 
-4.002868e-002 
-8.410184e-003 
2.877740e-002 
6.823781e-002 
1.098733e-001 
1.518552e-001 
1.907248e-001 
2.273152e-001 
2.602363e-001 
2.867534e-001 
3.057734e-001 
3.196569e-001 
3.243876e-001 
3.211576e-001 
3.132415e-001 
2.988119e-001 
2.779343e-001 
2.507898e-001 
2.181925e-001 
1.819801e-001 
1.427912e-001 
1.014151e-001 
6.503030e-002 
3.223961e-002 
-1.298693e-004 
-3.059017e-002 
-5.624879e-002 
-7.632375e-002 
-9.187740e-002 
-1.011497e-001 
-1.021900e-001 
-9.908420e-002 
-9.487347e-002 
-9.115511e-002 
-8.913744e-002 
-8.514752e-002 
-8.020557e-002 
-7.666160e-002 
-7.207859e-002 
-6.698104e-002 
-6.308633e-002 
-5.758148e-002 
-5.557038e-002 
-5.505941e-002 
-5.426082e-002 
-5.423341e-002 
-4.980363e-002 
-4.089297e-002 
-3.161170e-002 
-2.594711e-002 
-2.642076e-002 
-3.317325e-002 
-4.252439e-002 
-5.407426e-002 
-5.891351e-002 
-6.013117e-002 
-6.638832e-002 
-7.783632e-002 
-9.480265e-002 
-1.119838e-001 
-1.247834e-001 
-1.338298e-001 
-1.163137e-001 
-2.194157e-002 
1.127156e-001 
2.063030e-001 
2.203707e-001 
1.502357e-001 
7.553927e-002 
5.254332e-002 
6.627412e-002 
1.409553e-001 
2.593287e-001 
2.922679e-001 
2.108812e-001 
7.534269e-002 
-2.401617e-002 
2.723560e-003 
7.489269e-002 
1.071602e-001 
1.043027e-001 
4.102111e-002 
-8.679477e-002 
-1.974682e-001 
-2.356050e-001 
-1.795629e-001 
-7.792784e-002 
-1.112194e-002 
2.579711e-002 
5.818174e-002 
9.479557e-002 
1.368485e-001 
1.800155e-001 
2.208368e-001 
2.614941e-001 
3.010318e-001 
3.373257e-001 
3.658413e-001 
3.856431e-001 
3.986783e-001 
4.026119e-001 
3.938197e-001 
3.798033e-001 
3.629688e-001 
3.375420e-001 
3.035888e-001 
2.638504e-001 
2.202932e-001 
1.736648e-001 
1.231148e-001 
7.150521e-002 
2.609242e-002 
-1.567206e-002 
-5.749325e-002 
-9.259242e-002 
-1.199056e-001 
-1.421862e-001 
-1.575416e-001 
-1.670203e-001 
-1.708494e-001 
-1.684468e-001 
-1.656810e-001 
-1.644590e-001 
-1.603495e-001 
-1.568933e-001 
-1.544742e-001 
-1.519223e-001 
-1.502967e-001 
-1.478052e-001 
-1.434418e-001 
-1.395154e-001 
-1.359928e-001 
-1.323619e-001 
-1.321700e-001 
-1.306435e-001 
-1.251300e-001 
-1.182427e-001 
-1.093169e-001 
-1.001802e-001 
-9.891600e-002 
-1.038456e-001 
-1.138782e-001 
-1.241533e-001 
-1.266303e-001 
-1.297443e-001 
-1.384542e-001 
-1.470601e-001 
-1.609776e-001 
-1.806464e-001 
-1.965584e-001 
-2.074967e-001 
-1.999191e-001 
-1.359619e-001 
-1.438302e-002 
8.460012e-002 
9.809782e-002 
2.398818e-002 
-5.493156e-002 
-8.371616e-002 
-7.790975e-002 
-2.676279e-002 
8.264823e-002 
1.490871e-001 
7.745005e-002 
-6.956992e-002 
-1.678560e-001 
-1.410510e-001 
-7.105619e-002 
-3.315058e-002 
-2.754613e-002 
-6.612770e-002 
-1.742283e-001 
-2.933539e-001 
-3.339246e-001 
-2.733634e-001 
-1.696288e-001 
-1.003007e-001 
-6.212363e-002 
-3.283656e-002 
1.545682e-003 
4.006125e-002 
8.121625e-002 
1.233663e-001 
1.634925e-001 
2.007215e-001 
2.325147e-001 
2.590921e-001 
2.802260e-001 
2.941965e-001 
2.996929e-001 
2.953337e-001 
2.806488e-001 
2.606285e-001 
2.351378e-001 
2.023083e-001 
1.638443e-001 
1.221463e-001 
7.597674e-002 
2.736054e-002 
-2.259312e-002 
-6.881930e-002 
-1.095362e-001 
-1.481777e-001 
-1.824145e-001 
-2.099480e-001 
-2.305633e-001 
-2.463119e-001 
-2.553988e-001 
-2.600960e-001 
-2.586276e-001 
-2.561707e-001 
-2.513742e-001 
-2.455687e-001 
-2.423572e-001 
-2.393827e-001 
-2.371961e-001 
-2.363637e-001 
-2.349136e-001 
-2.313864e-001 
-2.257191e-001 
-2.194412e-001 
-2.185016e-001 
-2.203134e-001 
-2.201074e-001 
-2.150910e-001 
-2.046432e-001 
-1.918864e-001 
-1.772177e-001 
-1.676205e-001 
-1.689575e-001 
-1.751529e-001 
-1.828153e-001 
-1.833045e-001 
-1.773414e-001 
-1.753241e-001 
-1.785063e-001 
-1.847909e-001 
-1.996568e-001 
-2.143901e-001 
-2.241314e-001 
-2.174424e-001 
-2.245721e-001 
-1.836532e-001 
-8.359280e-002 
-3.298935e-002 
-7.704171e-002 
-1.588913e-001 
-2.106990e-001 
-2.077127e-001 
-1.981777e-001 
-1.846105e-001 
-6.910053e-002 
-1.731383e-002 
-1.213737e-001 
-2.445100e-001 
-2.606400e-001 
-1.974016e-001 
-1.329769e-001 
-1.154661e-001 
-1.021857e-001 
-1.043842e-001 
-1.877555e-001 
-2.568025e-001 
-2.321920e-001 
-1.375397e-001 
-5.194900e-002 
-1.787344e-004 
3.222824e-002 
6.502680e-002 
1.012636e-001 
1.403149e-001 
1.802722e-001 
2.198793e-001 
2.564530e-001 
2.912552e-001 
3.217479e-001 
3.433034e-001 
3.577642e-001 
3.658054e-001 
3.667858e-001 
3.602467e-001 
3.486485e-001 
3.301996e-001 
3.068583e-001 
2.755815e-001 
2.396900e-001 
2.026649e-001 
1.635028e-001 
1.211894e-001 
7.898705e-002 
4.117895e-002 
4.619142e-003 
-2.687747e-002 
-5.330568e-002 
-7.126039e-002 
-8.159806e-002 
-8.719126e-002 
-9.151461e-002 
-9.023878e-002 
-8.425243e-002 
-7.984643e-002 
-7.577717e-002 
-7.126731e-002 
-6.562619e-002 
-6.207930e-002 
-6.170307e-002 
-6.208752e-002 
-5.993230e-002 
-5.966047e-002 
-6.340645e-002 
-6.494867e-002 
-6.147849e-002 
-5.682028e-002 
-5.578186e-002 
-5.696320e-002 
-5.729355e-002 
-5.413157e-002 
-4.828854e-002 
-4.035004e-002 
-2.749572e-002 
-1.744722e-002 
-1.576268e-002 
-1.997613e-002 
-2.678777e-002 
-3.134281e-002 
-2.970889e-002 
-2.941820e-002 
-3.302313e-002 
-4.042191e-002 
-5.553162e-002 
-6.959152e-002 
-7.835528e-002 
-8.182724e-002 
-5.729791e-002 
3.193103e-002 
1.546031e-001 
2.296228e-001 
2.070895e-001 
1.231210e-001 
6.579669e-002 
5.833075e-002 
7.992279e-002 
1.513591e-001 
2.571284e-001 
2.826339e-001 
1.781695e-001 
3.380415e-002 
-1.667978e-002 
4.305270e-002 
1.091559e-001 
1.298821e-001 
1.206864e-001 
6.255751e-002 
-5.218699e-002 
-1.496115e-001 
-1.513957e-001 
-6.468307e-002 
2.863506e-002 
8.145887e-002 
1.112057e-001 
1.424546e-001 
1.795179e-001 
2.195443e-001 
2.626967e-001 
3.059562e-001 
3.441278e-001 
3.820580e-001 
4.175241e-001 
4.444231e-001 
4.640382e-001 
4.761515e-001 
4.803973e-001 
4.741537e-001 
4.581265e-001 
4.386194e-001 
4.144309e-001 
3.802372e-001 
3.393875e-001 
2.950531e-001 
2.484092e-001 
1.998814e-001 
1.498270e-001 
1.033458e-001 
6.192042e-002 
2.043675e-002 
-1.590653e-002 
-4.350709e-002 
-6.334163e-002 
-7.615599e-002 
-8.313392e-002 
-8.696992e-002 
-8.708380e-002 
-8.519920e-002 
-8.198029e-002 
-7.654176e-002 
-7.146369e-002 
-6.718108e-002 
-6.438433e-002 
-6.320844e-002 
-6.386726e-002 
-6.394822e-002 
-6.223796e-002 
-6.118193e-002 
-5.913657e-002 
-5.338722e-002 
-4.992687e-002 
-4.952911e-002 
-4.924804e-002 
-4.500679e-002 
-3.479562e-002 
-2.501396e-002 
-1.673338e-002 
-8.469965e-003 
-7.891854e-003 
-1.408023e-002 
-2.115047e-002 
-2.603544e-002 
-2.565330e-002 
-2.774558e-002 
-3.500077e-002 
-4.467294e-002 
-6.033397e-002 
-7.562063e-002 
-8.462347e-002 
-9.026270e-002 
-7.118535e-002 
1.580110e-002 
1.431495e-001 
2.201996e-001 
1.891322e-001 
1.029494e-001 
5.159177e-002 
4.546000e-002 
6.441265e-002 
1.365992e-001 
2.494233e-001 
2.767000e-001 
1.610809e-001 
8.939051e-003 
-3.069916e-002 
3.543229e-002 
9.731328e-002 
1.169611e-001 
1.113243e-001 
5.258305e-002 
-6.616685e-002 
-1.635209e-001 
-1.593443e-001 
-6.629152e-002 
2.447066e-002 
7.212237e-002 
1.008566e-001 
1.322406e-001 
1.688931e-001 
2.098948e-001 
2.516480e-001 
2.924613e-001 
3.306341e-001 
3.661612e-001 
3.999288e-001 
4.290276e-001 
4.501048e-001 
4.623532e-001 
4.648503e-001 
4.575932e-001 
4.432497e-001 
4.236340e-001 
4.006983e-001 
3.731296e-001 
3.386879e-001 
2.970270e-001 
2.518141e-001 
2.060324e-001 
1.594094e-001 
1.156112e-001 
7.785365e-002 
4.333541e-002 
1.179723e-002 
-1.466185e-002 
-3.480620e-002 
-4.716424e-002 
-5.488403e-002 
-5.935265e-002 
-5.696601e-002 
-5.187290e-002 
-4.811409e-002 
-4.376898e-002 
-3.989258e-002 
-3.860802e-002 
-3.917399e-002 
-4.142470e-002 
-4.277808e-002 
-4.320927e-002 
-4.596809e-002 
-5.009027e-002 
-5.288560e-002 
-5.402147e-002 
-5.623486e-002 
-5.907448e-002 
-6.263746e-002 
-6.513196e-002 
-6.385358e-002 
-5.894848e-002 
-5.191418e-002 
-4.374878e-002 
-4.203986e-002 
-4.896233e-002 
-5.796530e-002 
-6.888764e-002 
-7.490210e-002 
-7.497208e-002 
-7.789169e-002 
-8.664916e-002 
-1.023340e-001 
-1.238846e-001 
-1.400989e-001 
-1.520414e-001 
-1.565018e-001 
-1.203236e-001 
-1.751451e-002 
9.828668e-002 
1.481624e-001 
9.445773e-002 
8.227834e-003 
-3.654168e-002 
-4.586361e-002 
-1.886841e-002 
6.801456e-002 
1.638175e-001 
1.507917e-001 
1.940937e-002 
-1.167771e-001 
-1.284864e-001 
-6.401457e-002 
-1.352902e-002 
4.513093e-003 
-1.217072e-002 
-9.295356e-002 
-2.155595e-001 
-2.935725e-001 
-2.697949e-001 
-1.740817e-001 
-9.335287e-002 
-4.609539e-002 
-1.543698e-002 
1.575981e-002 
5.137677e-002 
9.295240e-002 
1.346508e-001 
1.736187e-001 
2.114595e-001 
2.473372e-001 
2.799594e-001 
3.070520e-001 
3.256157e-001 
3.387421e-001 
3.444620e-001 
3.405536e-001 
3.300065e-001 
3.125760e-001 
2.898156e-001 
2.621532e-001 
2.270928e-001 
1.871567e-001 
1.460792e-001 
1.013736e-001 
5.823196e-002 
1.737412e-002 
-2.087584e-002 
-5.357715e-002 
-8.152223e-002 
-1.049513e-001 
-1.213396e-001 
-1.323913e-001 
-1.390626e-001 
-1.398198e-001 
-1.402827e-001 
-1.380748e-001 
-1.329627e-001 
-1.288669e-001 
-1.260124e-001 
-1.245737e-001 
-1.238568e-001 
-1.223290e-001 
-1.240897e-001 
-1.273912e-001 
-1.271553e-001 
-1.263278e-001 
-1.249879e-001 
-1.239925e-001 
-1.241529e-001 
-1.242265e-001 
-1.246632e-001 
-1.217370e-001 
-1.123753e-001 
-1.020660e-001 
-9.314598e-002 
-9.016643e-002 
-9.481874e-002 
-1.028670e-001 
-1.123986e-001 
-1.179475e-001 
-1.186359e-001 
-1.229455e-001 
-1.320212e-001 
-1.453343e-001 
-1.629212e-001 
-1.770400e-001 
-1.842323e-001 
-1.700771e-001 
-8.769723e-002 
3.786754e-002 
1.100528e-001 
7.935148e-002 
-1.026254e-002 
-6.965571e-002 
-7.700469e-002 
-5.944560e-002 
7.223594e-003 
1.211106e-001 
1.514733e-001 
4.082286e-002 
-1.055184e-001 
-1.492850e-001 
-8.351013e-002 
-1.810146e-002 
2.026058e-003 
-1.105867e-003 
-5.516358e-002 
-1.723749e-001 
-2.674455e-001 
-2.655115e-001 
-1.752448e-001 
-8.034403e-002 
-2.965553e-002 
3.487106e-004 
3.091086e-002 
6.739331e-002 
1.097663e-001 
1.522461e-001 
1.937356e-001 
2.353240e-001 
2.744383e-001 
3.097815e-001 
3.354852e-001 
3.536877e-001 
3.664164e-001 
3.668882e-001 
3.581807e-001 
3.445599e-001 
3.251147e-001 
2.997853e-001 
2.652291e-001 
2.221905e-001 
1.766668e-001 
1.273624e-001 
7.706941e-002 
2.864985e-002 
-1.755325e-002 
-5.986619e-002 
-9.953543e-002 
-1.357035e-001 
-1.642592e-001 
-1.851029e-001 
-1.979724e-001 
-2.043001e-001 
-2.072341e-001 
-2.055366e-001 
-2.017362e-001 
-1.987912e-001 
-1.957628e-001 
-1.911940e-001 
-1.868023e-001 
-1.826150e-001 
-1.784304e-001 
-1.735036e-001 
-1.672791e-001 
-1.589384e-001 
-1.516361e-001 
-1.456364e-001 
-1.417846e-001 
-1.405785e-001 
-1.354072e-001 
-1.258486e-001 
-1.151412e-001 
-1.028994e-001 
-9.433632e-002 
-9.574394e-002 
-1.006547e-001 
-1.100291e-001 
-1.168182e-001 
-1.159043e-001 
-1.170988e-001 
-1.231920e-001 
-1.340428e-001 
-1.525541e-001 
-1.708776e-001 
-1.835893e-001 
-1.935100e-001 
-1.897070e-001 
-1.541293e-001 
-5.390500e-002 
6.878088e-002 
1.278508e-001 
8.425129e-002 
1.496166e-003 
-4.203810e-002 
-4.226801e-002 
-1.201517e-002 
7.149538e-002 
1.735517e-001 
1.675051e-001 
3.751561e-002 
-1.028568e-001 
-1.199659e-001 
-4.803596e-002 
7.535293e-003 
2.081203e-002 
4.868170e-003 
-6.946530e-002 
-1.931598e-001 
-2.768503e-001 
-2.542352e-001 
-1.515538e-001 
-6.297898e-002 
-1.526717e-002 
1.625595e-002 
5.548200e-002 
9.894164e-002 
1.417670e-001 
1.889865e-001 
2.394035e-001 
2.842459e-001 
3.235562e-001 
3.591043e-001 
3.879231e-001 
4.091128e-001 
4.197174e-001 
4.205668e-001 
4.162710e-001 
4.037930e-001 
3.804016e-001 
3.523349e-001 
3.182751e-001 
2.760980e-001 
2.304205e-001 
1.809880e-001 
1.298055e-001 
8.196151e-002 
3.724706e-002 
-4.420468e-003 
-4.033752e-002 
-7.237942e-002 
-9.930411e-002 
-1.187052e-001 
-1.308694e-001 
-1.370047e-001 
-1.376392e-001 
-1.337050e-001 
-1.293824e-001 
-1.253320e-001 
-1.234862e-001 
-1.225326e-001 
-1.193732e-001 
-1.160991e-001 
-1.134324e-001 
-1.047755e-001 
-9.451598e-002 
-8.890085e-002 
-8.695391e-002 
-8.789949e-002 
-8.367924e-002 
-7.377616e-002 
-6.546084e-002 
-5.545902e-002 
-4.735759e-002 
-4.971591e-002 
-5.978604e-002 
-7.318007e-002 
-8.254405e-002 
-8.366839e-002 
-8.693922e-002 
-9.597615e-002 
-1.073196e-001 
-1.250568e-001 
-1.437430e-001 
-1.579197e-001 
-1.519466e-001 
-8.399342e-002 
4.984410e-002 
1.599154e-001 
1.840190e-001 
1.119547e-001 
2.377190e-002 
-5.842623e-003 
5.983996e-003 
6.326041e-002 
1.780750e-001 
2.509568e-001 
1.859989e-001 
3.850506e-002 
-7.769913e-002 
-5.329727e-002 
3.330019e-002 
7.642955e-002 
7.917847e-002 
4.021291e-002 
-6.964761e-002 
-1.931710e-001 
-2.412915e-001 
-1.843445e-001 
-6.935676e-002 
5.274414e-003 
4.124046e-002 
7.499795e-002 
1.190205e-001 
1.648557e-001 
2.122319e-001 
2.581795e-001 
2.997994e-001 
3.385876e-001 
3.739922e-001 
4.053057e-001 
4.315281e-001 
4.495498e-001 
4.532296e-001 
4.468794e-001 
4.304992e-001 
4.094232e-001 
3.858073e-001 
3.555053e-001 
3.165096e-001 
2.723674e-001 
2.215752e-001 
1.676255e-001 
1.163736e-001 
6.618307e-002 
2.294034e-002 
-1.467482e-002 
-4.950488e-002 
-8.056728e-002 
-1.049960e-001 
-1.227313e-001 
-1.318826e-001 
-1.370309e-001 
-1.398254e-001 
-1.381648e-001 
-1.362867e-001 
-1.354875e-001 
-1.366434e-001 
-1.368702e-001 
-1.356228e-001 
-1.365255e-001 
-1.400528e-001 
-1.388387e-001 
-1.342833e-001 
-1.311683e-001 
-1.312432e-001 
-1.336407e-001 
-1.310916e-001 
-1.240350e-001 
-1.179474e-001 
-1.057313e-001 
-9.157402e-002 
-9.041092e-002 
-9.645612e-002 
-1.055914e-001 
-1.117712e-001 
-1.106052e-001 
-1.103310e-001 
-1.133694e-001 
-1.182986e-001 
-1.357723e-001 
-1.560199e-001 
-1.669016e-001 
-1.724265e-001 
-1.521002e-001 
-6.732037e-002 
6.293244e-002 
1.489888e-001 
1.292613e-001 
4.254533e-002 
-2.066680e-002 
-3.481025e-002 
-1.856388e-002 
4.930949e-002 
1.616149e-001 
2.006313e-001 
9.525301e-002 
-5.965238e-002 
-1.212664e-001 
-6.978240e-002 
-1.450149e-003 
2.501107e-002 
2.014606e-002 
-3.600654e-002 
-1.577480e-001 
-2.681744e-001 
-2.804725e-001 
-1.972039e-001 
-9.914273e-002 
-4.215245e-002 
-1.294687e-002 
1.696714e-002 
5.089816e-002 
8.841245e-002 
1.281040e-001 
1.670793e-001 
2.043383e-001 
2.377183e-001 
2.694509e-001 
2.975476e-001 
3.190387e-001 
3.336535e-001 
3.406043e-001 
3.358607e-001 
3.266415e-001 
3.122236e-001 
2.907759e-001 
2.652913e-001 
2.318149e-001 
1.947097e-001 
1.552832e-001 
1.119948e-001 
6.927565e-002 
3.121555e-002 
-9.068406e-003 
-4.267912e-002 
-7.226703e-002 
-1.003831e-001 
-1.208335e-001 
-1.360349e-001 
-1.456099e-001 
-1.499649e-001 
-1.522733e-001 
-1.517731e-001 
-1.453749e-001 
-1.449752e-001 
-1.440864e-001 
-1.400755e-001 
-1.379624e-001 
-1.342978e-001 
-1.260355e-001 
-1.201372e-001 
-1.160109e-001 
-1.143536e-001 
-1.173988e-001 
-1.139120e-001 
-1.060921e-001 
-9.917916e-002 
-8.820636e-002 
-8.339924e-002 
-9.126514e-002 
-1.008861e-001 
-1.140607e-001 
-1.245899e-001 
-1.253268e-001 
-1.278006e-001 
-1.360993e-001 
-1.473209e-001 
-1.671235e-001 
-1.830810e-001 
-1.891787e-001 
-1.784550e-001 
-9.870563e-002 
4.625742e-002 
1.495419e-001 
1.484677e-001 
6.575683e-002 
-9.745318e-003 
-2.601370e-002 
-1.422597e-002 
3.860067e-002 
1.553848e-001 
2.095416e-001 
1.059901e-001 
-6.218213e-002 
-1.564634e-001 
-1.206282e-001 
-5.459728e-002 
-3.647053e-002 
-4.722194e-002 
-1.016532e-001 
-2.355402e-001 
-3.689400e-001 
-4.090409e-001 
-3.448114e-001 
-2.452673e-001 
-1.850539e-001 
-1.549744e-001 
-1.260100e-001 
-9.062963e-002 
-5.301498e-002 
-1.010033e-002 
3.624633e-002 
8.573682e-002 
1.332735e-001 
1.759596e-001 
2.103214e-001 
2.371550e-001 
2.562369e-001 
2.661907e-001 
2.693196e-001 
2.671221e-001 
2.571414e-001 
2.375444e-001 
2.101935e-001 
1.746365e-001 
1.326768e-001 
8.948778e-002 
4.334368e-002 
-3.560019e-003 
-4.807020e-002 
-9.294316e-002 
-1.359837e-001 
-1.736686e-001 
-2.060106e-001 
-2.321990e-001 
-2.508464e-001 
-2.642071e-001 
-2.700820e-001 
-2.736045e-001 
-2.760702e-001 
-2.745924e-001 
-2.714164e-001 
-2.688538e-001 
-2.668233e-001 
-2.651925e-001 
-2.627438e-001 
-2.583133e-001 
-2.548768e-001 
-2.509964e-001 
-2.489119e-001 
-2.495217e-001 
-2.467068e-001 
-2.397117e-001 
-2.329323e-001 
-2.224562e-001 
-2.145881e-001 
-2.162531e-001 
-2.226544e-001 
-2.327010e-001 
-2.406521e-001 
-2.418172e-001 
-2.436873e-001 
-2.481106e-001 
-2.545700e-001 
-2.704302e-001 
-2.870515e-001 
-2.977688e-001 
-3.008528e-001 
-2.641070e-001 
-1.472758e-001 
4.241416e-004 
8.089454e-002 
3.991860e-002 
-5.065636e-002 
-9.858991e-002 
-1.045620e-001 
-7.725146e-002 
1.629510e-002 
1.352534e-001 
1.432539e-001 
2.627072e-003 
-1.602138e-001 
-1.859370e-001 
-1.168826e-001 
-6.426242e-002 
-4.691427e-002 
-6.203032e-002 
-1.460882e-001 
-2.881078e-001 
-3.955879e-001 
-3.861034e-001 
-2.870190e-001 
-2.020760e-001 
-1.536994e-001 
-1.200523e-001 
-8.660925e-002 
-4.799026e-002 
-6.050961e-003 
3.623176e-002 
7.796003e-002 
1.173454e-001 
1.554513e-001 
1.910466e-001 
2.183073e-001 
2.378792e-001 
2.494540e-001 
2.497872e-001 
2.420951e-001 
2.298890e-001 
2.118981e-001 
1.879062e-001 
1.573161e-001 
1.193358e-001 
7.610324e-002 
2.965260e-002 
-1.585466e-002 
-5.618696e-002 
-9.342782e-002 
-1.292747e-001 
-1.605435e-001 
-1.876373e-001 
-2.107309e-001 
-2.257320e-001 
-2.314652e-001 
-2.307790e-001 
-2.269645e-001 
-2.212929e-001 
-2.137272e-001 
-2.047078e-001 
-1.970255e-001 
-1.894588e-001 
-1.803920e-001 
-1.718979e-001 
-1.645008e-001 
-1.581867e-001 
-1.541426e-001 
-1.526079e-001 
-1.507664e-001 
-1.469608e-001 
-1.427944e-001 
-1.382680e-001 
-1.361523e-001 
-1.399254e-001 
-1.494982e-001 
-1.633006e-001 
-1.775190e-001 
-1.890231e-001 
-1.995930e-001 
-2.118080e-001 
-2.259487e-001 
-2.462858e-001 
-2.674621e-001 
-2.830053e-001 
-2.924642e-001 
-2.762850e-001 
-1.871462e-001 
-4.767484e-002 
4.438010e-002 
2.391141e-002 
-6.619767e-002 
-1.305478e-001 
-1.451389e-001 
-1.288836e-001 
-5.747735e-002 
5.984465e-002 
9.616328e-002 
-1.625998e-002 
-1.792981e-001 
-2.385322e-001 
-1.818509e-001 
-1.157455e-001 
-9.173132e-002 
-9.947615e-002 
-1.627106e-001 
-2.897339e-001 
-4.018341e-001 
-4.136650e-001 
-3.263627e-001 
-2.271829e-001 
-1.691652e-001 
-1.351890e-001 
-9.991305e-002 
-5.971612e-002 
-1.399909e-002 
3.161175e-002 
7.439325e-002 
1.164783e-001 
1.563148e-001 
1.908882e-001 
2.222041e-001 
2.476235e-001 
2.643550e-001 
2.718330e-001 
2.669053e-001 
2.546065e-001 
2.376518e-001 
2.149606e-001 
1.857738e-001 
1.522587e-001 
1.122255e-001 
6.642091e-002 
1.826905e-002 
-2.864693e-002 
-7.267267e-002 
-1.119720e-001 
-1.484535e-001 
-1.827742e-001 
-2.105077e-001 
-2.336007e-001 
-2.496289e-001 
-2.572978e-001 
-2.609215e-001 
-2.603754e-001 
-2.564258e-001 
-2.554918e-001 
-2.541642e-001 
-2.504154e-001 
-2.463321e-001 
-2.420940e-001 
-2.342323e-001 
-2.224979e-001 
-2.134279e-001 
-2.105541e-001 
-2.110505e-001 
-2.058339e-001 
-1.932244e-001 
-1.811078e-001 
-1.688316e-001 
-1.530512e-001 
-1.504551e-001 
-1.580417e-001 
-1.663093e-001 
-1.691933e-001 
-1.637950e-001 
-1.611165e-001 
-1.647531e-001 
-1.694674e-001 
-1.846280e-001 
-2.054762e-001 
-2.146386e-001 
-2.164952e-001 
-1.918199e-001 
-1.065973e-001 
3.184733e-002 
1.360812e-001 
1.346140e-001 
5.655267e-002 
-5.852787e-003 
-2.063310e-002 
-4.991779e-003 
5.761283e-002 
1.683821e-001 
2.230966e-001 
1.281232e-001 
-2.863713e-002 
-1.014278e-001 
-5.899070e-002 
5.736374e-003 
3.151188e-002 
2.280549e-002 
-2.969277e-002 
-1.475298e-001 
-2.685676e-001 
-2.944268e-001 
-2.227361e-001 
-1.280817e-001 
-6.737575e-002 
-3.333653e-002 
-9.173783e-004 
4.024571e-002 
8.044379e-002 
1.178002e-001 
1.547228e-001 
1.883996e-001 
2.218085e-001 
2.511259e-001 
2.720027e-001 
2.877391e-001 
2.979522e-001 
2.975215e-001 
2.875820e-001 
2.742568e-001 
2.586218e-001 
2.367119e-001 
2.058557e-001 
1.700338e-001 
1.324558e-001 
9.405061e-002 
5.549068e-002 
1.920226e-002 
-1.254513e-002 
-4.419023e-002 
-7.559561e-002 
-1.010526e-001 
-1.191999e-001 
-1.302861e-001 
-1.330649e-001 
-1.317857e-001 
-1.302058e-001 
-1.268778e-001 
-1.250182e-001 
-1.225695e-001 
-1.169286e-001 
-1.080898e-001 
-9.806381e-002 
-8.980761e-002 
-8.564825e-002 
-8.460015e-002 
-7.970204e-002 
-7.138752e-002 
-6.242250e-002 
-5.079987e-002 
-4.306866e-002 
-4.581023e-002 
-5.256482e-002 
-6.255925e-002 
-7.035638e-002 
-6.963682e-002 
-7.001781e-002 
-7.559201e-002 
-8.317674e-002 
-9.840794e-002 
-1.116525e-001 
-1.187403e-001 
-1.210807e-001 
-9.347983e-002 
5.830263e-003 
1.468431e-001 
2.343670e-001 
2.133058e-001 
1.308025e-001 
7.663447e-002 
6.838995e-002 
9.183304e-002 
1.715868e-001 
2.923054e-001 
3.239562e-001 
2.070464e-001 
5.076997e-002 
1.643703e-003 
6.378471e-002 
1.298007e-001 
1.531017e-001 
1.448508e-001 
7.996493e-002 
-4.945614e-002 
-1.600862e-001 
-1.656453e-001 
-7.557981e-002 
2.068847e-002 
7.347281e-002 
1.041819e-001 
1.386828e-001 
1.781526e-001 
2.195218e-001 
2.641956e-001 
3.093979e-001 
3.511685e-001 
3.914225e-001 
4.275996e-001 
4.585031e-001 
4.826973e-001 
4.972877e-001 
5.066181e-001 
5.075312e-001 
4.975063e-001 
4.838526e-001 
4.662853e-001 
4.379385e-001 
4.037308e-001 
3.669288e-001 
3.281653e-001 
2.884218e-001 
2.437236e-001 
2.023628e-001 
1.684598e-001 
1.345806e-001 
1.043712e-001 
8.258576e-002 
6.727039e-002 
5.862201e-002 
5.412282e-002 
5.101420e-002 
5.505519e-002 
6.113652e-002 
6.650715e-002 
7.411456e-002 
8.398988e-002 
9.626559e-002 
1.061110e-001 
1.092139e-001 
1.116198e-001 
1.202975e-001 
1.301830e-001 
1.400003e-001 
1.513524e-001 
1.593552e-001 
1.571876e-001 
1.469911e-001 
1.357932e-001 
1.305799e-001 
1.291156e-001 
1.251103e-001 
1.200074e-001 
1.121495e-001 
9.414675e-002 
7.617946e-002 
6.643796e-002 
6.565400e-002 
9.935316e-002 
2.036117e-001 
3.395687e-001 
4.161624e-001 
3.867508e-001 
2.972258e-001 
2.371572e-001 
2.262868e-001 
2.524518e-001 
3.377837e-001 
4.484506e-001 
4.580827e-001 
3.333164e-001 
1.817834e-001 
1.317128e-001 
1.894252e-001 
2.542086e-001 
2.766114e-001 
2.604374e-001 
1.838247e-001 
5.092079e-002 
-5.213252e-002 
-5.274637e-002 
3.480026e-002 
1.303333e-001 
1.843440e-001 
2.127761e-001 
2.430940e-001 
2.808114e-001 
3.193779e-001 
3.612141e-001 
4.038139e-001 
4.439684e-001 
4.820633e-001 
5.148702e-001 
5.425067e-001 
5.653524e-001 
5.786094e-001 
5.815635e-001 
5.768896e-001 
5.645985e-001 
5.459281e-001 
5.217652e-001 
4.926447e-001 
4.560713e-001 
4.142832e-001 
3.693859e-001 
3.218027e-001 
2.766344e-001 
2.344148e-001 
1.923745e-001 
1.551692e-001 
1.226671e-001 
9.258131e-002 
7.258185e-002 
6.054482e-002 
5.290065e-002 
5.176632e-002 
5.055587e-002 
5.091915e-002 
5.494615e-002 
5.807222e-002 
6.529019e-002 
7.842000e-002 
8.605792e-002 
8.806025e-002 
8.913207e-002 
9.228641e-002 
1.015692e-001 
1.090268e-001 
1.183319e-001 
1.282352e-001 
1.284021e-001 
1.184257e-001 
1.071680e-001 
9.906434e-002 
9.545960e-002 
9.134828e-002 
8.199797e-002 
7.110669e-002 
5.216322e-002 
3.202799e-002 
1.977728e-002 
1.319810e-002 
2.804093e-002 
1.092728e-001 
2.464560e-001 
3.443806e-001 
3.409121e-001 
2.580837e-001 
1.883548e-001 
1.705317e-001 
1.811160e-001 
2.422354e-001 
3.587787e-001 
4.077083e-001 
3.084539e-001 
1.489156e-001 
6.489663e-002 
1.086962e-001 
1.785327e-001 
2.033382e-001 
1.967685e-001 
1.410427e-001 
1.423015e-002 
-1.088822e-001 
-1.402256e-001 
-6.906160e-002 
3.248750e-002 
9.213763e-002 
1.238548e-001 
1.554887e-001 
1.947312e-001 
2.353304e-001 
2.767383e-001 
3.191412e-001 
3.607448e-001 
3.997176e-001 
4.364659e-001 
4.684690e-001 
4.924143e-001 
5.079318e-001 
5.125923e-001 
5.097959e-001 
5.000449e-001 
4.844530e-001 
4.654474e-001 
4.394845e-001 
4.055603e-001 
3.675159e-001 
3.265390e-001 
2.809108e-001 
2.340549e-001 
1.876356e-001 
1.465102e-001 
1.098249e-001 
7.536896e-002 
4.795491e-002 
2.649069e-002 
8.132406e-003 
-6.441324e-003 
-1.522208e-002 
-1.895096e-002 
-1.748314e-002 
-1.695233e-002 
-1.632403e-002 
-1.387543e-002 
-1.126540e-002 
-1.034653e-002 
-9.744374e-003 
-8.371862e-003 
-5.568307e-003 
7.843229e-004 
7.093419e-003 
1.632269e-002 
2.529474e-002 
2.496627e-002 
1.478419e-002 
3.480239e-003 
-6.957810e-003 
-1.236272e-002 
-1.690111e-002 
-2.338718e-002 
-3.042146e-002 
-4.687045e-002 
-6.983600e-002 
-8.768473e-002 
-9.789777e-002 
-9.523611e-002 
-4.529240e-002 
7.881167e-002 
2.062118e-001 
2.544989e-001 
1.983584e-001 
1.095683e-001 
6.725731e-002 
6.724212e-002 
1.063316e-001 
2.105962e-001 
3.043250e-001 
2.638528e-001 
1.198335e-001 
-1.741355e-002 
-2.981356e-002 
4.024443e-002 
8.861169e-002 
9.618749e-002 
6.362994e-002 
-4.199335e-002 
-1.794421e-001 
-2.572686e-001 
-2.348497e-001 
-1.393581e-001 
-6.251572e-002 
-2.537262e-002 
-1.431690e-003 
2.729078e-002 
6.170206e-002 
9.851385e-002 
1.356286e-001 
1.708905e-001 
2.053159e-001 
2.373869e-001 
2.683470e-001 
2.938883e-001 
3.106688e-001 
3.193080e-001 
3.202654e-001 
3.143667e-001 
3.004459e-001 
2.822121e-001 
2.603173e-001 
2.319788e-001 
1.970241e-001 
1.595317e-001 
1.184196e-001 
7.756477e-002 
3.852138e-002 
2.085738e-004 
-3.468394e-002 
-6.725845e-002 
-9.649872e-002 
-1.166408e-001 
-1.305745e-001 
-1.399880e-001 
-1.421219e-001 
-1.410426e-001 
-1.397092e-001 
-1.350229e-001 
-1.284179e-001 
-1.187673e-001 
-1.067291e-001 
-9.791916e-002 
-9.425211e-002 
-9.049616e-002 
-8.280487e-002 
-7.346297e-002 
-6.269097e-002 
-5.273482e-002 
-4.840271e-002 
-4.981327e-002 
-5.843612e-002 
-7.200968e-002 
-7.601342e-002 
-7.650448e-002 
-8.345312e-002 
-9.202898e-002 
-1.074695e-001 
-1.291859e-001 
-1.462110e-001 
-1.587259e-001 
-1.550682e-001 
-9.373670e-002 
3.006555e-002 
1.296778e-001 
1.385975e-001 
6.430462e-002 
-1.142399e-002 
-3.452856e-002 
-2.460590e-002 
2.397688e-002 
1.338252e-001 
2.072621e-001 
1.353121e-001 
-8.544249e-003 
-9.527709e-002 
-6.340998e-002 
1.050837e-002 
4.984266e-002 
5.627055e-002 
2.287558e-002 
-8.104688e-002 
-1.969691e-001 
-2.312567e-001 
-1.722769e-001 
-7.630716e-002 
-1.129899e-002 
2.292150e-002 
5.048070e-002 
8.290491e-002 
1.204564e-001 
1.605562e-001 
1.983432e-001 
2.330403e-001 
2.685700e-001 
3.018843e-001 
3.305782e-001 
3.559470e-001 
3.726440e-001 
3.799610e-001 
3.796892e-001 
3.723337e-001 
3.597283e-001 
3.437388e-001 
3.202952e-001 
2.932403e-001 
2.619931e-001 
2.235837e-001 
1.844361e-001 
1.480818e-001 
1.119208e-001 
7.800957e-002 
4.678530e-002 
1.677582e-002 
-5.111055e-003 
-2.280979e-002 
-3.718841e-002 
-4.321454e-002 
-4.420914e-002 
-4.340455e-002 
-3.999890e-002 
-3.548669e-002 
-2.899015e-002 
-2.058355e-002 
-1.081949e-002 
-4.692377e-006 
8.819271e-003 
1.164929e-002 
1.089638e-002 
1.409127e-002 
2.249463e-002 
3.119184e-002 
4.129024e-002 
4.825057e-002 
4.448573e-002 
3.385063e-002 
1.959948e-002 
1.128602e-002 
1.228127e-002 
1.051283e-002 
3.028542e-003 
-7.202661e-003 
-2.412385e-002 
-4.014777e-002 
-4.766654e-002 
-3.445045e-002 
4.106305e-002 
1.763407e-001 
2.973042e-001 
3.518703e-001 
3.117196e-001 
2.244311e-001 
1.767978e-001 
1.812460e-001 
2.349675e-001 
3.402832e-001 
4.118575e-001 
3.715136e-001 
2.465575e-001 
1.121259e-001 
8.454937e-002 
1.513942e-001 
2.027101e-001 
2.028158e-001 
1.564705e-001 
4.685453e-002 
-8.413804e-002 
-1.607594e-001 
-1.409938e-001 
-4.350180e-002 
4.286069e-002 
8.736828e-002 
1.186596e-001 
1.572090e-001 
1.975428e-001 
2.385575e-001 
2.806054e-001 
3.207450e-001 
3.569395e-001 
3.888062e-001 
4.178739e-001 
4.394760e-001 
4.538413e-001 
4.593159e-001 
4.539114e-001 
4.402015e-001 
4.208226e-001 
3.950135e-001 
3.629485e-001 
3.259002e-001 
2.870877e-001 
2.469063e-001 
2.022517e-001 
1.572899e-001 
1.162640e-001 
7.884464e-002 
4.257011e-002 
1.111577e-002 
-1.220186e-002 
-2.978803e-002 
-4.365216e-002 
-5.055789e-002 
-5.201153e-002 
-4.659836e-002 
-3.948905e-002 
-3.468163e-002 
-3.010693e-002 
-2.829575e-002 
-2.310519e-002 
-1.323764e-002 
-6.248663e-003 
-5.437968e-003 
-6.391427e-003 
-1.504007e-002 
-3.265774e-002 
-5.121734e-002 
-6.244654e-002 
-6.766059e-002 
-7.883760e-002 
-9.616321e-002 
-1.114090e-001 
-1.007018e-001 
-1.278424e-002 
9.499290e-002 
1.148676e-001 
4.081791e-002 
-3.251226e-002 
-5.878920e-002 
-6.512558e-002 
-5.956075e-002 
1.111995e-002 
1.163665e-001 
7.985000e-002 
-8.427529e-002 
-1.816918e-001 
-1.303985e-001 
-5.641151e-002 
-3.259041e-002 
-2.846586e-002 
-3.269310e-002 
-1.009840e-001 
-2.231915e-001 
-2.743487e-001 
-2.077754e-001 
-1.081711e-001 
-5.592965e-002 
-2.695908e-002 
8.708281e-003 
4.848658e-002 
8.800874e-002 
1.281751e-001 
1.676282e-001 
2.060183e-001 
2.412207e-001 
2.707506e-001 
2.936819e-001 
3.109542e-001 
3.185316e-001 
3.190948e-001 
3.096693e-001 
2.932561e-001 
2.749951e-001 
2.485797e-001 
2.110988e-001 
1.691446e-001 
1.246103e-001 
8.020118e-002 
3.496995e-002 
-1.334306e-002 
-5.543455e-002 
-9.100765e-002 
-1.249458e-001 
-1.547334e-001 
-1.790274e-001 
-1.972892e-001 
-2.079808e-001 
-2.165373e-001 
-2.209155e-001 
-2.176318e-001 
-2.104888e-001 
-2.043563e-001 
-1.991589e-001 
-1.923394e-001 
-1.815242e-001 
-1.709070e-001 
-1.650834e-001 
-1.591090e-001 
-1.543152e-001 
-1.497148e-001 
-1.412461e-001 
-1.294837e-001 
-1.198219e-001 
-1.178007e-001 
-1.224053e-001 
-1.265363e-001 
-1.313564e-001 
-1.384182e-001 
-1.384807e-001 
-1.427934e-001 
-1.557508e-001 
-1.720478e-001 
-1.886589e-001 
-1.964111e-001 
-2.001203e-001 
-1.923419e-001 
-1.145135e-001 
3.463926e-002 
1.470861e-001 
1.675964e-001 
9.975360e-002 
2.721324e-002 
3.296823e-003 
3.789965e-003 
5.841949e-002 
1.845329e-001 
2.533928e-001 
1.684672e-001 
9.361068e-003 
-9.484384e-002 
-6.531915e-002 
-4.394359e-004 
3.052605e-002 
3.681133e-002 
-6.888838e-003 
-1.300858e-001 
-2.669143e-001 
-3.207725e-001 
-2.622429e-001 
-1.612206e-001 
-9.991919e-002 
-5.931445e-002 
-2.143973e-002 
2.087545e-002 
5.829806e-002 
8.950323e-002 
1.225180e-001 
1.633538e-001 
1.956417e-001 
2.264291e-001 
2.568935e-001 
2.729377e-001 
2.773922e-001 
2.708478e-001 
2.527740e-001 
2.267612e-001 
2.021108e-001 
1.736432e-001 
1.416346e-001 
9.640845e-002 
4.598965e-002 
-7.002889e-003 
-6.545336e-002 
-1.272704e-001 
-1.842016e-001 
-2.214738e-001 
-2.542999e-001 
-3.020097e-001 
-3.457730e-001 
-3.750272e-001 
-4.002442e-001 
-4.150968e-001 
-4.221277e-001 
-4.201593e-001 
-4.093313e-001 
-4.116791e-001 
-4.188731e-001 
-4.123626e-001 
-4.021565e-001 
-3.943013e-001 
-3.903595e-001 
-3.848918e-001 
-3.768632e-001 
-3.692944e-001 
-3.617627e-001 
-3.539973e-001 
-3.488471e-001 
-3.475310e-001 
-3.552586e-001 
-3.639652e-001 
-3.628159e-001 
-3.634802e-001 
-3.704311e-001 
-3.809061e-001 
-3.937258e-001 
-4.030987e-001 
-4.082280e-001 
-4.120753e-001 
-3.946452e-001 
-3.153331e-001 
-1.831081e-001 
-8.323214e-002 
-6.938486e-002 
-1.313877e-001 
-1.995387e-001 
-2.216221e-001 
-2.099251e-001 
-1.525349e-001 
-3.693760e-002 
2.613517e-002 
-5.104858e-002 
-1.905940e-001 
-2.822388e-001 
-2.621501e-001 
-1.884702e-001 
-1.474998e-001 
-1.439531e-001 
-1.793524e-001 
-2.876282e-001 
-4.074396e-001 
-4.461254e-001 
-3.935035e-001 
-2.907209e-001 
-2.094415e-001 
-1.736254e-001 
-1.435144e-001 
-1.020519e-001 
-6.700196e-002 
-3.288670e-002 
7.133489e-003 
5.083727e-002 
9.753750e-002 
1.326520e-001 
1.596996e-001 
1.903677e-001 
2.111662e-001 
2.158139e-001 
2.114384e-001 
2.067658e-001 
2.004854e-001 
1.827768e-001 
1.579491e-001 
1.295186e-001 
9.005625e-002 
4.939579e-002 
5.781430e-003 
-3.647451e-002 
-6.844206e-002 
-1.016512e-001 
-1.404616e-001 
-1.764564e-001 
-2.118534e-001 
-2.317171e-001 
-2.375517e-001 
-2.526087e-001 
-2.627617e-001 
-2.606355e-001 
-2.560070e-001 
-2.551488e-001 
-2.470204e-001 
-2.376993e-001 
-2.296834e-001 
-2.266213e-001 
-2.287724e-001 
-2.246191e-001 
-2.132380e-001 
-2.110090e-001 
-2.128282e-001 
-2.110596e-001 
-2.336633e-001 
-2.522169e-001 
-2.503542e-001 
-2.546124e-001 
-2.609210e-001 
-2.701965e-001 
-2.928928e-001 
-3.102408e-001 
-3.331786e-001 
-3.578387e-001 
-3.259475e-001 
-2.314238e-001 
-1.135687e-001 
-3.510798e-002 
-6.162461e-002 
-1.519257e-001 
-2.167922e-001 
-2.399429e-001 
-2.230697e-001 
-1.467256e-001 
-5.185513e-002 
-3.354807e-002 
-1.448700e-001 
-3.026908e-001 
-3.603918e-001 
-3.061725e-001 
-2.488549e-001 
-2.342421e-001 
-2.487116e-001 
-3.157776e-001 
-4.411485e-001 
-5.517466e-001 
-5.669008e-001 
-4.924754e-001 
-4.092467e-001 
-3.780082e-001 
-3.608623e-001 
-3.283945e-001 
-3.034389e-001 
-2.805448e-001 
-2.466471e-001 
-2.189523e-001 
-1.915408e-001 
-1.673736e-001 
-1.471126e-001 
-1.134092e-001 
-9.415214e-002 
-9.720078e-002 
-1.000834e-001 
-1.021818e-001 
-1.103509e-001 
-1.229990e-001 
-1.416470e-001 
-1.600234e-001 
-1.885000e-001 
-2.306618e-001 
-2.701414e-001 
-3.122959e-001 
-3.377914e-001 
-3.712105e-001 
-4.110288e-001 
-4.375056e-001 
-4.624251e-001 
-4.838120e-001 
-4.933759e-001 
-5.031169e-001 
-5.051656e-001 
-4.919339e-001 
-4.941733e-001 
-4.843922e-001 
-4.716561e-001 
-4.582346e-001 
-4.477414e-001 
-4.435382e-001 
-4.405344e-001 
-4.270956e-001 
-4.120486e-001 
-4.001789e-001 
-3.884638e-001 
-3.875940e-001 
-3.900648e-001 
-4.047230e-001 
-4.164189e-001 
-4.238327e-001 
-4.290247e-001 
-4.371841e-001 
-4.471931e-001 
-4.656857e-001 
-4.884037e-001 
-5.005537e-001 
-5.079541e-001 
-5.081379e-001 
-4.637567e-001 
-3.570627e-001 
-2.554077e-001 
-2.301449e-001 
-2.977429e-001 
-3.700386e-001 
-3.915527e-001 
-3.965914e-001 
-3.594139e-001 
-2.573483e-001 
-1.842663e-001 
-2.353433e-001 
-3.721877e-001 
-4.750110e-001 
-4.629993e-001 
-3.989495e-001 
-3.604356e-001 
-3.478240e-001 
-3.825030e-001 
-4.882705e-001 
-6.052220e-001 
-6.512881e-001 
-6.107941e-001 
-5.210534e-001 
-4.436425e-001 
-4.060346e-001 
-3.848480e-001 
-3.574101e-001 
-3.281372e-001 
-2.939826e-001 
-2.578008e-001 
-2.191174e-001 
-1.742196e-001 
-1.360171e-001 
-1.077020e-001 
-9.014403e-002 
-8.192253e-002 
-8.242734e-002 
-8.078857e-002 
-7.487949e-002 
-6.579177e-002 
-8.428067e-002 
-1.183508e-001 
-1.486156e-001 
-1.886780e-001 
-2.179736e-001 
-2.410251e-001 
-2.645277e-001 
-2.819916e-001 
-3.074715e-001 
-3.570406e-001 
-3.784032e-001 
-3.803419e-001 
-3.896526e-001 
-3.851841e-001 
-3.829402e-001 
-3.843703e-001 
-3.837071e-001 
-3.831374e-001 
-3.713089e-001 
-3.415408e-001 
-3.239829e-001 
-3.128917e-001 
-2.984812e-001 
-2.946231e-001 
-2.897289e-001 
-2.773367e-001 
-2.560808e-001 
-2.369956e-001 
-2.280580e-001 
-2.226980e-001 
-2.190867e-001 
-2.212919e-001 
-2.262880e-001 
-2.224502e-001 
-2.140656e-001 
-2.108634e-001 
-2.150943e-001 
-2.223996e-001 
-2.243627e-001 
-2.226883e-001 
-2.141667e-001 
-1.598971e-001 
-3.876250e-002 
6.641117e-002 
9.481527e-002 
4.545042e-002 
-1.808287e-002 
-3.134547e-002 
-1.539503e-002 
2.833322e-002 
1.295735e-001 
2.071708e-001 
1.631883e-001 
4.787194e-002 
-4.090896e-002 
-1.707040e-002 
6.147769e-002 
9.760392e-002 
1.022390e-001 
7.851513e-002 
-5.714755e-003 
-1.017002e-001 
-1.362566e-001 
-8.623375e-002 
1.268240e-002 
7.646567e-002 
1.036627e-001 
1.358821e-001 
1.754327e-001 
2.181679e-001 
2.629778e-001 
3.039167e-001 
3.436540e-001 
3.814902e-001 
4.118875e-001 
4.451708e-001 
4.789859e-001 
4.984858e-001 
5.084812e-001 
5.134465e-001 
5.096561e-001 
4.995757e-001 
4.872362e-001 
4.707650e-001 
4.576459e-001 
4.410593e-001 
4.205836e-001 
4.034566e-001 
3.841828e-001 
3.620149e-001 
3.489464e-001 
3.427976e-001 
3.397609e-001 
3.445473e-001 
3.516875e-001 
3.645662e-001 
3.764306e-001 
3.877444e-001 
4.069247e-001 
4.314436e-001 
4.505466e-001 
4.693168e-001 
4.865500e-001 
4.992943e-001 
5.063515e-001 
5.048478e-001 
5.046073e-001 
5.113948e-001 
5.161274e-001 
5.168183e-001 
5.194028e-001 
5.169049e-001 
5.074619e-001 
4.876498e-001 
4.674208e-001 
4.612008e-001 
4.588738e-001 
4.478734e-001 
4.325473e-001 
