57
0.4948
1.8889e+003
5.5605
-2.198649e-003 
-5.836158e-003 
-9.233525e-003 
-1.269195e-002 
-1.611184e-002 
-1.949337e-002 
-2.293604e-002 
-2.613954e-002 
-3.077688e-002 
-3.601611e-002 
-3.641928e-002 
-3.417706e-002 
-3.174876e-002 
-2.872343e-002 
-2.400440e-002 
-1.638728e-002 
-6.168198e-003 
5.564614e-003 
2.148388e-002 
4.025377e-002 
5.921020e-002 
7.904039e-002 
1.005072e-001 
1.243436e-001 
1.483225e-001 
1.688439e-001 
1.862718e-001 
2.027895e-001 
2.183276e-001 
2.328434e-001 
2.425396e-001 
2.481471e-001 
2.497382e-001 
2.472125e-001 
2.416672e-001 
2.351677e-001 
2.269337e-001 
2.151803e-001 
1.988770e-001 
1.786554e-001 
1.585641e-001 
1.398295e-001 
1.215674e-001 
1.023890e-001 
8.193536e-002 
6.053950e-002 
4.161411e-002 
2.500848e-002 
9.964035e-003 
-3.885187e-003 
-1.829678e-002 
-3.238171e-002 
-4.364189e-002 
-5.295336e-002 
-5.929632e-002 
-6.450992e-002 
-7.170323e-002 
-7.899693e-002 
-8.537940e-002 
-8.956807e-002 
-9.067095e-002 
-9.143460e-002 
-9.377065e-002 
-9.618713e-002 
-9.915168e-002 
-1.018612e-001 
-1.038527e-001 
-1.053025e-001 
-1.078265e-001 
-1.100493e-001 
-1.110537e-001 
-1.124710e-001 
-1.138420e-001 
-1.166724e-001 
-1.217629e-001 
-1.257495e-001 
-1.279858e-001 
-1.291742e-001 
-1.277852e-001 
-1.290016e-001 
-1.335034e-001 
-1.374349e-001 
-1.416857e-001 
-1.438050e-001 
-1.437121e-001 
-1.434013e-001 
-1.440586e-001 
-1.465744e-001 
-1.498350e-001 
-1.506547e-001 
-1.508366e-001 
-1.520299e-001 
-1.520761e-001 
-1.525693e-001 
-1.517421e-001 
-1.501702e-001 
-1.483638e-001 
-1.469078e-001 
-1.465158e-001 
-1.462455e-001 
-1.440986e-001 
-1.400478e-001 
-1.361384e-001 
-1.318367e-001 
-1.294731e-001 
-1.283296e-001 
-1.262660e-001 
-1.220145e-001 
-1.171804e-001 
-1.135479e-001 
-1.114180e-001 
-1.092636e-001 
-1.070200e-001 
-1.048802e-001 
-1.025302e-001 
-1.007006e-001 
-1.000651e-001 
-9.999195e-002 
-9.907618e-002 
-9.674644e-002 
-9.379213e-002 
-9.314511e-002 
-9.518308e-002 
-9.731185e-002 
-9.655213e-002 
-9.456263e-002 
-9.239301e-002 
-9.140307e-002 
-9.258451e-002 
-9.492537e-002 
-9.673598e-002 
-9.653535e-002 
-9.307177e-002 
-9.031230e-002 
-9.131695e-002 
-9.294585e-002 
-9.433039e-002 
-9.554692e-002 
-9.479881e-002 
-9.393754e-002 
-9.381473e-002 
-9.467673e-002 
-9.689297e-002 
-9.796861e-002 
-9.724056e-002 
-9.754613e-002 
-9.985291e-002 
-1.025418e-001 
-1.044707e-001 
-1.046664e-001 
-1.052618e-001 
-1.065190e-001 
-1.077526e-001 
-1.094090e-001 
-1.121256e-001 
-1.143456e-001 
-1.143196e-001 
-1.128602e-001 
-1.130375e-001 
-1.155584e-001 
-1.167106e-001 
-1.162042e-001 
-1.163538e-001 
-1.181649e-001 
-1.191489e-001 
-1.186380e-001 
-1.176328e-001 
-1.173188e-001 
-1.173813e-001 
-1.165713e-001 
-1.174247e-001 
-1.205727e-001 
-1.211492e-001 
-1.186229e-001 
-1.170136e-001 
-1.163699e-001 
-1.173024e-001 
-1.177932e-001 
-1.166788e-001 
-1.162871e-001 
-1.156355e-001 
-1.129636e-001 
-1.122892e-001 
-1.138062e-001 
-1.139857e-001 
-1.128456e-001 
-1.101925e-001 
-1.093309e-001 
-1.110594e-001 
-1.114580e-001 
-1.096024e-001 
-1.072119e-001 
-1.053292e-001 
-1.042624e-001 
-1.042586e-001 
-1.053009e-001 
-1.074028e-001 
-1.066335e-001 
-1.033841e-001 
-1.012637e-001 
-1.023764e-001 
-1.052551e-001 
-1.062297e-001 
-1.046555e-001 
-1.030074e-001 
-1.025516e-001 
-1.012793e-001 
-1.007668e-001 
-1.016668e-001 
-1.017621e-001 
-1.008610e-001 
-9.954444e-002 
-9.837355e-002 
-9.819455e-002 
-9.690038e-002 
-9.330261e-002 
-9.050174e-002 
-8.814783e-002 
-8.656071e-002 
-8.708441e-002 
-8.448814e-002 
-7.949159e-002 
-7.606356e-002 
-7.427596e-002 
-7.327665e-002 
-7.271520e-002 
-7.089053e-002 
-6.800515e-002 
-6.247725e-002 
-5.488077e-002 
-5.064183e-002 
-4.821919e-002 
-4.416468e-002 
-3.800665e-002 
-3.120130e-002 
-2.472131e-002 
-1.819760e-002 
-1.169903e-002 
-5.725425e-003 
1.583801e-003 
9.356331e-003 
1.479992e-002 
1.850064e-002 
2.077422e-002 
2.287843e-002 
2.621201e-002 
2.840140e-002 
2.894109e-002 
2.823973e-002 
2.583274e-002 
2.381086e-002 
2.378936e-002 
2.448723e-002 
2.564808e-002 
2.584129e-002 
2.483737e-002 
2.510974e-002 
2.587995e-002 
2.517728e-002 
2.319953e-002 
2.082976e-002 
1.860023e-002 
1.767481e-002 
1.807072e-002 
1.922745e-002 
1.873870e-002 
1.359987e-002 
6.599249e-003 
2.005105e-003 
-1.318586e-003 
-4.517828e-003 
-7.963918e-003 
-1.375357e-002 
-2.025134e-002 
-2.674190e-002 
-3.319383e-002 
-3.632646e-002 
-3.799191e-002 
-4.059617e-002 
-4.286551e-002 
-4.394579e-002 
-4.443983e-002 
-4.473663e-002 
-4.662153e-002 
-4.921870e-002 
-5.070831e-002 
-5.067038e-002 
-4.871174e-002 
-4.582868e-002 
-4.404228e-002 
-4.443748e-002 
-4.485096e-002 
-4.280466e-002 
-3.806006e-002 
-3.225011e-002 
-2.532587e-002 
-1.752821e-002 
-8.151297e-003 
3.860632e-003 
2.247305e-002 
4.850971e-002 
7.940632e-002 
1.145706e-001 
1.589808e-001 
2.188542e-001 
2.971464e-001 
3.931678e-001 
5.053665e-001 
6.371044e-001 
7.877243e-001 
9.584641e-001 
1.154269e+000 
1.369114e+000 
1.578743e+000 
1.750192e+000 
1.858522e+000 
1.908995e+000 
1.925367e+000 
1.925599e+000 
1.921785e+000 
1.910523e+000 
1.869683e+000 
1.776446e+000 
1.623037e+000 
1.430337e+000 
1.236466e+000 
1.058707e+000 
8.918624e-001 
7.207758e-001 
5.313352e-001 
3.232634e-001 
1.127066e-001 
-7.167595e-002 
-2.032755e-001 
-2.744195e-001 
-3.002966e-001 
-3.049783e-001 
-3.074335e-001 
-3.114141e-001 
-3.192950e-001 
-3.283198e-001 
-3.343862e-001 
-3.393088e-001 
-3.418682e-001 
-3.440630e-001 
-3.472673e-001 
-3.482748e-001 
-3.472386e-001 
-3.493866e-001 
-3.511500e-001 
-3.519812e-001 
-3.536328e-001 
-3.540544e-001 
-3.550541e-001 
-3.568284e-001 
-3.577370e-001 
-3.607115e-001 
-3.663524e-001 
-3.680500e-001 
-3.668099e-001 
-3.663828e-001 
-3.674471e-001 
-3.712363e-001 
-3.745905e-001 
-3.743766e-001 
-3.739549e-001 
-3.733769e-001 
-3.700772e-001 
-3.687237e-001 
-3.706792e-001 
-3.709325e-001 
-3.683768e-001 
-3.646142e-001 
-3.605550e-001 
-3.578522e-001 
-3.558159e-001 
-3.523185e-001 
-3.490229e-001 
-3.465433e-001 
-3.416628e-001 
-3.375685e-001 
-3.347743e-001 
-3.293127e-001 
-3.227403e-001 
-3.177698e-001 
-3.127484e-001 
-3.096218e-001 
-3.051767e-001 
-2.971132e-001 
-2.887768e-001 
-2.793460e-001 
-2.703746e-001 
-2.629173e-001 
-2.557735e-001 
-2.458330e-001 
-2.328965e-001 
-2.171997e-001 
-2.024429e-001 
-1.877201e-001 
-1.724230e-001 
-1.544978e-001 
-1.329024e-001 
-1.104401e-001 
-8.719053e-002 
-6.391268e-002 
-4.056658e-002 
-1.473273e-002 
1.380897e-002 
4.246237e-002 
7.155784e-002 
9.794533e-002 
1.232964e-001 
1.498954e-001 
1.771600e-001 
2.041120e-001 
2.288927e-001 
2.484511e-001 
2.639524e-001 
2.785125e-001 
2.924849e-001 
3.043815e-001 
3.112935e-001 
3.137000e-001 
3.123131e-001 
3.083292e-001 
3.017941e-001 
2.939220e-001 
2.848599e-001 
2.713649e-001 
2.537514e-001 
2.352445e-001 
2.179174e-001 
2.008641e-001 
1.818072e-001 
1.612370e-001 
1.412354e-001 
1.227137e-001 
1.053216e-001 
8.932264e-002 
7.352570e-002 
5.877743e-002 
4.443287e-002 
3.060107e-002 
2.020762e-002 
1.161426e-002 
3.103224e-003 
-6.750696e-003 
-1.635984e-002 
-2.254083e-002 
-2.571436e-002 
-2.948110e-002 
-3.366397e-002 
-3.767031e-002 
-4.191253e-002 
-4.628492e-002 
-5.023329e-002 
-5.069315e-002 
-5.110407e-002 
-5.463748e-002 
-5.915806e-002 
-6.235144e-002 
-6.329495e-002 
-6.465319e-002 
-6.781471e-002 
-7.071199e-002 
-7.278751e-002 
-7.481315e-002 
-7.632003e-002 
-7.837953e-002 
-8.015985e-002 
-8.368628e-002 
-8.866002e-002 
-9.151009e-002 
-9.248999e-002 
-9.259632e-002 
-9.336042e-002 
-9.722409e-002 
-9.982446e-002 
-9.976918e-002 
-1.010286e-001 
-1.002676e-001 
-9.904131e-002 
-1.001968e-001 
-1.015311e-001 
-1.015800e-001 
-9.988213e-002 
-9.603529e-002 
-9.532414e-002 
-9.641116e-002 
-9.482222e-002 
-9.347020e-002 
-9.209627e-002 
-8.832042e-002 
-8.450336e-002 
-8.243631e-002 
-8.149116e-002 
-8.148659e-002 
-7.930425e-002 
-7.646074e-002 
-7.552303e-002 
-7.461599e-002 
-7.253742e-002 
-7.014725e-002 
-6.722485e-002 
-6.454518e-002 
-6.315158e-002 
-6.294116e-002 
-6.225274e-002 
-5.961175e-002 
-5.536022e-002 
-5.070023e-002 
-4.903072e-002 
-4.947160e-002 
-4.989671e-002 
-4.990912e-002 
-4.824262e-002 
-4.489532e-002 
-4.377653e-002 
-4.463555e-002 
-4.699038e-002 
-4.968176e-002 
-4.952607e-002 
-4.894702e-002 
-5.025939e-002 
-5.292495e-002 
-5.638871e-002 
-5.843684e-002 
-5.947259e-002 
-6.046221e-002 
-6.124982e-002 
-6.340173e-002 
-6.617858e-002 
-6.739577e-002 
-6.736113e-002 
-6.597794e-002 
-6.585593e-002 
-6.853070e-002 
-7.035936e-002 
-7.177914e-002 
-7.152578e-002 
-6.955862e-002 
-6.873871e-002 
-7.071626e-002 
-7.351395e-002 
-7.544324e-002 
-7.551815e-002 
-7.529213e-002 
-7.602245e-002 
-7.687106e-002 
-7.882382e-002 
-8.170276e-002 
-8.315445e-002 
-8.174202e-002 
-8.022912e-002 
-8.155491e-002 
-8.447860e-002 
-8.525247e-002 
-8.369763e-002 
-8.289321e-002 
-8.252842e-002 
-8.126425e-002 
-8.131090e-002 
-8.304055e-002 
-8.415383e-002 
-8.392184e-002 
-8.216233e-002 
-8.220104e-002 
-8.385637e-002 
-8.378497e-002 
-8.304904e-002 
-8.377205e-002 
-8.527119e-002 
-8.670563e-002 
-8.777944e-002 
-8.706264e-002 
-8.592298e-002 
-8.500504e-002 
-8.407228e-002 
-8.474100e-002 
-8.657385e-002 
-8.651305e-002 
-8.451745e-002 
-8.236059e-002 
-8.080485e-002 
-8.119205e-002 
-8.142120e-002 
-8.029469e-002 
-7.958569e-002 
-7.747873e-002 
-7.594116e-002 
-7.678879e-002 
-7.892370e-002 
-7.995043e-002 
-7.871247e-002 
-7.717721e-002 
-7.785173e-002 
-7.838795e-002 
-7.790943e-002 
-7.931689e-002 
-7.985826e-002 
-7.900949e-002 
-7.797913e-002 
-7.738290e-002 
-7.856262e-002 
-7.876647e-002 
-7.600481e-002 
-7.492209e-002 
-7.658344e-002 
-7.771912e-002 
-7.878938e-002 
-7.822137e-002 
-7.512877e-002 
-7.310275e-002 
-7.190541e-002 
-7.239083e-002 
-7.474279e-002 
-7.549501e-002 
-7.391519e-002 
-7.180661e-002 
-6.996269e-002 
-7.010864e-002 
-7.181286e-002 
-7.156322e-002 
-7.020291e-002 
-6.788736e-002 
-6.667824e-002 
-6.626530e-002 
-6.698485e-002 
-6.735326e-002 
-6.547071e-002 
-6.257114e-002 
-6.071150e-002 
-5.999104e-002 
-6.010604e-002 
-6.047753e-002 
-5.834697e-002 
-5.664206e-002 
-5.397307e-002 
-4.986609e-002 
-4.729786e-002 
-4.391763e-002 
-3.766652e-002 
-3.330228e-002 
-2.995143e-002 
-2.577165e-002 
-2.208289e-002 
-1.554035e-002 
-6.404598e-003 
9.953554e-004 
7.658109e-003 
1.282486e-002 
1.532288e-002 
2.063160e-002 
2.793507e-002 
3.272582e-002 
3.557915e-002 
3.730939e-002 
3.552229e-002 
3.342847e-002 
3.426502e-002 
3.613668e-002 
3.723825e-002 
3.476028e-002 
3.069346e-002 
2.975491e-002 
3.176369e-002 
3.086373e-002 
2.988322e-002 
3.067401e-002 
2.896508e-002 
2.540504e-002 
2.241337e-002 
2.066076e-002 
1.974444e-002 
1.733918e-002 
1.244401e-002 
1.013780e-002 
8.996734e-003 
5.666464e-003 
5.380813e-004 
-5.616130e-003 
-1.159902e-002 
-1.651225e-002 
-2.075697e-002 
-2.451538e-002 
-2.915609e-002 
-3.511874e-002 
-4.072061e-002 
-4.479516e-002 
-4.666809e-002 
-4.704497e-002 
-4.728850e-002 
-4.773490e-002 
-4.953348e-002 
-5.094247e-002 
-5.031235e-002 
-5.000548e-002 
-5.130797e-002 
-5.325053e-002 
-5.348787e-002 
-5.263335e-002 
-5.172115e-002 
-4.983397e-002 
-4.814555e-002 
-4.950093e-002 
-4.996639e-002 
-4.721481e-002 
-4.225909e-002 
-3.690769e-002 
-3.296046e-002 
-2.627601e-002 
-1.541475e-002 
-2.882469e-003 
1.630616e-002 
4.429804e-002 
7.609865e-002 
1.124829e-001 
1.573874e-001 
2.167993e-001 
2.938984e-001 
3.842498e-001 
4.877649e-001 
6.084069e-001 
7.423592e-001 
8.919270e-001 
1.061527e+000 
1.252202e+000 
1.461626e+000 
1.674598e+000 
1.873900e+000 
2.047205e+000 
2.176596e+000 
2.254029e+000 
2.288999e+000 
2.291367e+000 
2.270751e+000 
2.224971e+000 
2.143894e+000 
2.025342e+000 
1.867172e+000 
1.672783e+000 
1.463846e+000 
1.256367e+000 
1.053141e+000 
8.493219e-001 
6.373211e-001 
4.201984e-001 
2.100480e-001 
2.084977e-002 
-1.315183e-001 
-2.384860e-001 
-3.058593e-001 
-3.433900e-001 
-3.640532e-001 
-3.742711e-001 
-3.791533e-001 
-3.827358e-001 
-3.865639e-001 
-3.926284e-001 
-4.006761e-001 
-4.081729e-001 
-4.141126e-001 
-4.203828e-001 
-4.248447e-001 
-4.284003e-001 
-4.299243e-001 
-4.301213e-001 
-4.295088e-001 
-4.284810e-001 
-4.287779e-001 
-4.314400e-001 
-4.339002e-001 
-4.338097e-001 
-4.329193e-001 
-4.322837e-001 
-4.342227e-001 
-4.363171e-001 
-4.381445e-001 
-4.408174e-001 
-4.417862e-001 
-4.415070e-001 
-4.428742e-001 
-4.456407e-001 
-4.487472e-001 
-4.504971e-001 
-4.494201e-001 
-4.491338e-001 
-4.506819e-001 
-4.526575e-001 
-4.554518e-001 
-4.564433e-001 
-4.553196e-001 
-4.533782e-001 
-4.508524e-001 
-4.496288e-001 
-4.497072e-001 
-4.485643e-001 
-4.465098e-001 
-4.439678e-001 
-4.415704e-001 
-4.400003e-001 
-4.369866e-001 
-4.320028e-001 
-4.268959e-001 
-4.220633e-001 
-4.185769e-001 
-4.162726e-001 
-4.132962e-001 
-4.093580e-001 
-4.033472e-001 
-3.957862e-001 
-3.898570e-001 
-3.869249e-001 
-3.837353e-001 
-3.790883e-001 
-3.715035e-001 
-3.627083e-001 
-3.557114e-001 
-3.492307e-001 
-3.415397e-001 
-3.331149e-001 
-3.233163e-001 
-3.115821e-001 
-2.997922e-001 
-2.872387e-001 
-2.740894e-001 
-2.598138e-001 
-2.423080e-001 
-2.221963e-001 
-2.034247e-001 
-1.850999e-001 
-1.660727e-001 
-1.450808e-001 
-1.207656e-001 
-9.549643e-002 
-7.093391e-002 
-4.628143e-002 
-2.148883e-002 
3.979115e-003 
3.165688e-002 
5.913325e-002 
8.539709e-002 
1.105140e-001 
1.329193e-001 
1.551251e-001 
1.782311e-001 
1.997081e-001 
2.180168e-001 
2.332152e-001 
2.446131e-001 
2.536512e-001 
2.610023e-001 
2.654539e-001 
2.667169e-001 
2.632798e-001 
2.562365e-001 
2.465851e-001 
2.363461e-001 
2.236070e-001 
2.077349e-001 
1.899803e-001 
1.710232e-001 
1.516480e-001 
1.338285e-001 
1.162932e-001 
9.665684e-002 
7.803062e-002 
5.976281e-002 
4.251452e-002 
2.832853e-002 
1.602798e-002 
4.583604e-003 
-6.216472e-003 
-1.774803e-002 
-2.798493e-002 
-3.504246e-002 
-4.169463e-002 
-4.819414e-002 
-5.411007e-002 
-5.938426e-002 
-6.314345e-002 
-6.533067e-002 
-6.830946e-002 
-7.273454e-002 
-7.732967e-002 
-8.274532e-002 
-8.644237e-002 
-8.836227e-002 
-8.972575e-002 
-9.101877e-002 
-9.441145e-002 
-9.899526e-002 
-1.018472e-001 
-1.035613e-001 
-1.060105e-001 
-1.074640e-001 
-1.099616e-001 
-1.127282e-001 
-1.146579e-001 
-1.169772e-001 
-1.182797e-001 
-1.199409e-001 
-1.238211e-001 
-1.269250e-001 
-1.270709e-001 
-1.269550e-001 
-1.267104e-001 
-1.292662e-001 
-1.330605e-001 
-1.347837e-001 
-1.366873e-001 
-1.384057e-001 
-1.386967e-001 
-1.385790e-001 
-1.393167e-001 
-1.412688e-001 
-1.423550e-001 
-1.391116e-001 
-1.357782e-001 
-1.361451e-001 
-1.372983e-001 
-1.375863e-001 
-1.348394e-001 
-1.314403e-001 
-1.295375e-001 
-1.264868e-001 
-1.242925e-001 
-1.238328e-001 
-1.225078e-001 
-1.195733e-001 
-1.150390e-001 
-1.106349e-001 
-1.097385e-001 
-1.093503e-001 
-1.069605e-001 
-1.037023e-001 
-1.007023e-001 
-9.948720e-002 
-9.831051e-002 
-9.724424e-002 
-9.587972e-002 
-9.290665e-002 
-8.937738e-002 
-8.700341e-002 
-8.656959e-002 
-8.717505e-002 
-8.679499e-002 
-8.533747e-002 
-8.442071e-002 
-8.306638e-002 
-8.238093e-002 
-8.336164e-002 
-8.384733e-002 
-8.331866e-002 
-8.283559e-002 
-8.405747e-002 
-8.564935e-002 
-8.633322e-002 
-8.608415e-002 
-8.482425e-002 
-8.485056e-002 
-8.687164e-002 
-9.054287e-002 
-9.420721e-002 
-9.544500e-002 
-9.421750e-002 
-9.386188e-002 
-9.416269e-002 
-9.577377e-002 
-9.933161e-002 
-1.021337e-001 
-1.031548e-001 
-1.027328e-001 
-1.024774e-001 
-1.040608e-001 
-1.064617e-001 
-1.075559e-001 
-1.072247e-001 
-1.077715e-001 
-1.096783e-001 
-1.112195e-001 
-1.124465e-001 
-1.129917e-001 
-1.133987e-001 
-1.131631e-001 
-1.129507e-001 
-1.138072e-001 
-1.164426e-001 
-1.168894e-001 
-1.148762e-001 
-1.136191e-001 
-1.137578e-001 
-1.144139e-001 
-1.131133e-001 
-1.115898e-001 
-1.090996e-001 
-1.064574e-001 
-1.060343e-001 
-1.071265e-001 
-1.084546e-001 
-1.088260e-001 
-1.067744e-001 
-1.040481e-001 
-1.032431e-001 
-1.024321e-001 
-1.042025e-001 
-1.060491e-001 
-1.051255e-001 
-1.039875e-001 
-1.028861e-001 
-1.007234e-001 
-9.875102e-002 
-9.766878e-002 
-9.737266e-002 
-9.790320e-002 
-9.642960e-002 
-9.456785e-002 
-9.310957e-002 
-9.031235e-002 
-8.621082e-002 
-8.509163e-002 
-8.562328e-002 
-8.474444e-002 
-8.204626e-002 
-7.926755e-002 
-7.781754e-002 
-7.704242e-002 
-7.632120e-002 
-7.651436e-002 
-7.715323e-002 
-7.515415e-002 
-7.248326e-002 
-7.213332e-002 
-7.328113e-002 
-7.278350e-002 
-7.116627e-002 
-6.948545e-002 
-6.804186e-002 
-6.833587e-002 
-7.055568e-002 
-7.208854e-002 
-7.182585e-002 
-6.934004e-002 
-6.627259e-002 
-6.684552e-002 
-6.875229e-002 
-6.984903e-002 
-6.955923e-002 
-6.631029e-002 
-6.171799e-002 
-5.881000e-002 
-5.757445e-002 
-5.808409e-002 
-5.903347e-002 
-5.589032e-002 
-5.048209e-002 
-4.543646e-002 
-4.146679e-002 
-3.797332e-002 
-3.356545e-002 
-2.789039e-002 
-2.285248e-002 
-1.828565e-002 
-1.201377e-002 
-6.605574e-003 
-8.583316e-004 
6.223067e-003 
1.325509e-002 
1.984034e-002 
2.490074e-002 
2.791135e-002 
3.183808e-002 
3.686906e-002 
4.057743e-002 
4.275095e-002 
4.322558e-002 
4.346855e-002 
4.444712e-002 
4.461012e-002 
4.469864e-002 
4.409475e-002 
4.317896e-002 
4.328761e-002 
4.281920e-002 
4.381553e-002 
4.525306e-002 
4.287557e-002 
3.754329e-002 
3.308829e-002 
2.987916e-002 
2.858034e-002 
2.635314e-002 
2.247180e-002 
1.882219e-002 
1.357002e-002 
6.686012e-003 
2.072681e-003 
-2.832681e-004 
-5.225144e-003 
-1.216650e-002 
-1.788562e-002 
-2.214482e-002 
-2.566970e-002 
-2.953752e-002 
-3.399826e-002 
-3.671565e-002 
-3.902219e-002 
-4.131666e-002 
-3.965292e-002 
-3.676782e-002 
-3.619565e-002 
-3.711722e-002 
-3.930245e-002 
-3.944903e-002 
-3.835034e-002 
-3.850782e-002 
-3.859418e-002 
-3.858400e-002 
-3.921822e-002 
-3.935943e-002 
-3.906702e-002 
-3.795782e-002 
-3.673601e-002 
-3.811637e-002 
-3.717517e-002 
-3.333428e-002 
-2.732387e-002 
-1.955862e-002 
-1.098197e-002 
-3.354817e-005 
1.621565e-002 
3.791547e-002 
6.645651e-002 
1.026491e-001 
1.425924e-001 
1.923682e-001 
2.564870e-001 
3.362861e-001 
4.330672e-001 
5.450865e-001 
6.683771e-001 
8.045246e-001 
9.567076e-001 
1.131563e+000 
1.331108e+000 
1.538822e+000 
1.735311e+000 
1.903839e+000 
2.029466e+000 
2.108341e+000 
2.148918e+000 
2.162550e+000 
2.156074e+000 
2.122468e+000 
2.052278e+000 
1.944348e+000 
1.799986e+000 
1.625073e+000 
1.432994e+000 
1.237731e+000 
1.044063e+000 
8.502117e-001 
6.499316e-001 
4.448041e-001 
2.453376e-001 
6.264650e-002 
-8.894199e-002 
-1.987647e-001 
-2.685381e-001 
-3.061269e-001 
-3.233027e-001 
-3.340368e-001 
-3.400004e-001 
-3.436693e-001 
-3.495567e-001 
-3.546863e-001 
-3.611958e-001 
-3.686835e-001 
-3.739171e-001 
-3.791299e-001 
-3.831114e-001 
-3.841027e-001 
-3.871996e-001 
-3.912961e-001 
-3.932656e-001 
-3.948004e-001 
-3.929235e-001 
-3.909922e-001 
-3.913333e-001 
-3.926777e-001 
-3.948054e-001 
-3.964750e-001 
-3.968353e-001 
-3.970579e-001 
-3.970093e-001 
-3.961783e-001 
-3.976504e-001 
-3.991070e-001 
-3.989038e-001 
-3.978823e-001 
-3.977913e-001 
-4.001176e-001 
-4.010763e-001 
-3.999067e-001 
-3.974364e-001 
-3.963617e-001 
-3.963175e-001 
-3.960625e-001 
-3.949001e-001 
-3.940354e-001 
-3.922198e-001 
-3.890002e-001 
-3.879711e-001 
-3.875153e-001 
-3.882998e-001 
-3.864627e-001 
-3.816573e-001 
-3.779478e-001 
-3.770884e-001 
-3.766803e-001 
-3.766851e-001 
-3.751917e-001 
-3.709232e-001 
-3.661499e-001 
-3.607090e-001 
-3.577037e-001 
-3.561587e-001 
-3.533144e-001 
-3.487016e-001 
-3.427733e-001 
-3.362519e-001 
-3.304307e-001 
-3.252206e-001 
-3.187835e-001 
-3.113799e-001 
-3.029856e-001 
-2.951187e-001 
-2.875617e-001 
-2.790758e-001 
-2.696186e-001 
-2.590405e-001 
-2.477588e-001 
-2.356549e-001 
-2.242456e-001 
-2.123679e-001 
-1.994274e-001 
-1.842957e-001 
-1.670448e-001 
-1.498126e-001 
-1.324871e-001 
-1.131421e-001 
-9.203629e-002 
-7.079511e-002 
-4.779939e-002 
-2.545825e-002 
-2.717242e-003 
2.202592e-002 
4.785330e-002 
7.510570e-002 
1.028203e-001 
1.277516e-001 
1.509557e-001 
1.746287e-001 
1.959920e-001 
2.184813e-001 
2.399895e-001 
2.561380e-001 
2.693752e-001 
2.800508e-001 
2.877876e-001 
2.947688e-001 
2.979882e-001 
2.966019e-001 
2.942019e-001 
2.870333e-001 
2.780142e-001 
2.693071e-001 
2.562430e-001 
2.408467e-001 
2.241138e-001 
2.055783e-001 
1.891037e-001 
1.743283e-001 
1.574724e-001 
1.410640e-001 
1.231210e-001 
1.047816e-001 
9.030596e-002 
7.796964e-002 
6.634598e-002 
5.594213e-002 
4.535109e-002 
3.452728e-002 
2.690477e-002 
2.001753e-002 
1.339325e-002 
7.432717e-003 
6.059278e-004 
-4.694708e-003 
-6.814426e-003 
-8.674868e-003 
-1.120107e-002 
-1.428935e-002 
-2.019392e-002 
-2.558616e-002 
-2.862083e-002 
-2.967797e-002 
-2.912145e-002 
-3.129280e-002 
-3.695679e-002 
-4.219629e-002 
-4.605793e-002 
-4.923213e-002 
-5.119006e-002 
-5.461944e-002 
-5.790041e-002 
-6.128662e-002 
-6.526243e-002 
-6.744041e-002 
-6.839767e-002 
-7.223119e-002 
-7.789697e-002 
-8.311626e-002 
-8.598916e-002 
-8.581223e-002 
-8.684128e-002 
-8.834368e-002 
-9.055423e-002 
-9.369931e-002 
-9.736797e-002 
-9.880358e-002 
-9.770737e-002 
-9.648746e-002 
-9.782826e-002 
-9.859987e-002 
-9.674054e-002 
-9.499549e-002 
-9.312066e-002 
-9.244812e-002 
-9.120598e-002 
-8.880746e-002 
-8.640207e-002 
-8.232378e-002 
-7.665690e-002 
-7.335975e-002 
-7.304347e-002 
-7.234674e-002 
-7.028874e-002 
-6.666558e-002 
-6.299050e-002 
-6.030802e-002 
-5.853770e-002 
-5.752048e-002 
-5.693367e-002 
-5.542711e-002 
-5.367456e-002 
-5.314689e-002 
-5.436773e-002 
-5.590153e-002 
-5.565883e-002 
-5.437066e-002 
-5.360440e-002 
-5.440929e-002 
-5.632996e-002 
-5.833136e-002 
-5.928937e-002 
-6.070046e-002 
-6.106434e-002 
-6.133069e-002 
-6.422383e-002 
-6.761010e-002 
-6.917753e-002 
-6.994297e-002 
-7.078358e-002 
-7.270352e-002 
-7.523627e-002 
-7.630821e-002 
-7.765266e-002 
-7.858180e-002 
-7.865857e-002 
-8.016468e-002 
-8.458475e-002 
-8.873285e-002 
-9.001557e-002 
-8.944434e-002 
-9.057892e-002 
-9.367196e-002 
-9.649327e-002 
-9.922622e-002 
-1.011223e-001 
-1.031660e-001 
-1.034676e-001 
-1.038249e-001 
-1.063916e-001 
-1.104027e-001 
-1.115317e-001 
-1.104046e-001 
-1.091462e-001 
-1.095841e-001 
-1.116714e-001 
-1.116453e-001 
-1.112010e-001 
-1.100072e-001 
-1.086662e-001 
-1.072677e-001 
-1.070139e-001 
-1.077480e-001 
-1.080026e-001 
-1.055853e-001 
-1.035194e-001 
-1.039635e-001 
-1.044843e-001 
-1.048993e-001 
-1.034560e-001 
-1.019304e-001 
-1.022643e-001 
-1.017928e-001 
-1.021721e-001 
-1.046196e-001 
-1.048212e-001 
-1.016751e-001 
-9.856624e-002 
-9.836478e-002 
-1.013777e-001 
-1.032745e-001 
-1.021507e-001 
-1.008535e-001 
-9.923308e-002 
-9.724564e-002 
-9.551437e-002 
-9.627216e-002 
-9.739669e-002 
-9.552955e-002 
-9.297116e-002 
-9.213478e-002 
-9.188284e-002 
-9.181853e-002 
-9.054278e-002 
-8.799361e-002 
-8.672626e-002 
-8.633123e-002 
-8.701863e-002 
-8.826443e-002 
-8.721977e-002 
-8.365190e-002 
-8.068406e-002 
-7.949611e-002 
-8.014401e-002 
-8.200354e-002 
-8.302026e-002 
-8.117902e-002 
-7.913318e-002 
-7.742768e-002 
-7.637925e-002 
-7.823271e-002 
-7.931222e-002 
-7.922534e-002 
-7.924313e-002 
-7.864417e-002 
-7.877818e-002 
-7.976618e-002 
-7.817040e-002 
-7.721346e-002 
-7.792205e-002 
-7.777504e-002 
-7.851479e-002 
-7.896720e-002 
-7.748958e-002 
-7.464507e-002 
-7.089544e-002 
-6.836161e-002 
-6.859257e-002 
-6.851823e-002 
-6.565824e-002 
-6.131423e-002 
-5.649774e-002 
-5.094293e-002 
-4.658008e-002 
-4.250055e-002 
-3.821029e-002 
-3.387390e-002 
-2.758444e-002 
-2.023484e-002 
-1.575267e-002 
-1.071710e-002 
-4.401668e-003 
1.927921e-003 
7.949204e-003 
9.733299e-003 
1.079356e-002 
1.374209e-002 
1.539193e-002 
1.666435e-002 
1.839075e-002 
1.837810e-002 
1.688202e-002 
1.436255e-002 
1.283841e-002 
1.424749e-002 
1.502254e-002 
1.349755e-002 
1.004881e-002 
5.121262e-003 
-1.027986e-004 
-4.411811e-003 
-7.465562e-003 
-1.100943e-002 
-1.537753e-002 
-2.029036e-002 
-2.601944e-002 
-3.186625e-002 
-3.733938e-002 
-4.295423e-002 
-4.744974e-002 
-5.185548e-002 
-5.631630e-002 
-6.036674e-002 
-6.604675e-002 
-7.263457e-002 
-7.743873e-002 
-7.982875e-002 
-7.978192e-002 
-7.773214e-002 
-7.604253e-002 
-7.677075e-002 
-7.897158e-002 
-8.103308e-002 
-8.072802e-002 
-7.794747e-002 
-7.508412e-002 
-7.445189e-002 
-7.468761e-002 
-7.576519e-002 
-7.539549e-002 
-7.134011e-002 
-6.741094e-002 
-6.378516e-002 
-5.796564e-002 
-5.031107e-002 
-3.913737e-002 
-2.147046e-002 
2.063724e-003 
3.228692e-002 
6.756574e-002 
1.101151e-001 
1.696441e-001 
2.481711e-001 
3.415992e-001 
4.520906e-001 
5.794253e-001 
7.231518e-001 
8.832816e-001 
1.063139e+000 
1.266989e+000 
1.487265e+000 
1.704163e+000 
1.898082e+000 
2.052606e+000 
2.153624e+000 
2.205112e+000 
2.221600e+000 
2.217831e+000 
2.193762e+000 
2.141014e+000 
2.049162e+000 
1.911511e+000 
1.731455e+000 
1.525167e+000 
1.318031e+000 
1.118606e+000 
9.214215e-001 
7.157854e-001 
5.007323e-001 
2.830217e-001 
8.009347e-002 
-8.887593e-002 
-2.122327e-001 
-2.886624e-001 
-3.317150e-001 
-3.556225e-001 
-3.708753e-001 
-3.805163e-001 
-3.878661e-001 
-3.944357e-001 
-4.027801e-001 
-4.131186e-001 
-4.219829e-001 
-4.289705e-001 
-4.341083e-001 
-4.377118e-001 
-4.403615e-001 
-4.431071e-001 
-4.438604e-001 
-4.433638e-001 
-4.426500e-001 
-4.412842e-001 
-4.421134e-001 
-4.442579e-001 
-4.463609e-001 
-4.472140e-001 
-4.469353e-001 
-4.458737e-001 
-4.462821e-001 
-4.477518e-001 
-4.496008e-001 
-4.510290e-001 
-4.505575e-001 
-4.508811e-001 
-4.526958e-001 
-4.556380e-001 
-4.575878e-001 
-4.578254e-001 
-4.563763e-001 
-4.546727e-001 
-4.540747e-001 
-4.552379e-001 
-4.556263e-001 
-4.533978e-001 
-4.490268e-001 
-4.449476e-001 
-4.423564e-001 
-4.407175e-001 
-4.402114e-001 
-4.396784e-001 
-4.361410e-001 
-4.311349e-001 
-4.259617e-001 
-4.219303e-001 
-4.201536e-001 
-4.161107e-001 
-4.102389e-001 
-4.052953e-001 
-4.012909e-001 
-3.968511e-001 
-3.923394e-001 
-3.858747e-001 
-3.793257e-001 
-3.737521e-001 
-3.666860e-001 
-3.602737e-001 
-3.548935e-001 
-3.477019e-001 
-3.383036e-001 
-3.286871e-001 
-3.180735e-001 
-3.095598e-001 
-3.010142e-001 
-2.883465e-001 
-2.749479e-001 
-2.619553e-001 
-2.478406e-001 
-2.328088e-001 
-2.149692e-001 
-1.944488e-001 
-1.744821e-001 
-1.521208e-001 
-1.297697e-001 
-1.086870e-001 
-8.483108e-002 
-5.716767e-002 
-2.730762e-002 
2.753156e-003 
3.045715e-002 
5.697304e-002 
8.408728e-002 
1.116381e-001 
1.412276e-001 
1.692003e-001 
1.933285e-001 
2.139012e-001 
2.315605e-001 
2.486040e-001 
2.648577e-001 
2.776574e-001 
2.863609e-001 
2.901019e-001 
2.887157e-001 
2.868942e-001 
2.837643e-001 
2.774173e-001 
2.679203e-001 
2.548049e-001 
2.380802e-001 
2.209734e-001 
2.031870e-001 
1.850760e-001 
1.674113e-001 
1.471138e-001 
1.264974e-001 
1.084563e-001 
9.119566e-002 
7.460372e-002 
5.874936e-002 
4.190573e-002 
2.848653e-002 
1.728115e-002 
6.409211e-003 
-2.183284e-003 
-1.095012e-002 
-2.016964e-002 
-2.721602e-002 
-3.361954e-002 
-3.770406e-002 
-3.980412e-002 
-4.390894e-002 
-4.802865e-002 
-5.036421e-002 
-5.178576e-002 
-5.184035e-002 
-5.275147e-002 
-5.532008e-002 
-5.793286e-002 
-6.135841e-002 
-6.346548e-002 
-6.345354e-002 
-6.390749e-002 
-6.656332e-002 
-7.118117e-002 
-7.655724e-002 
-7.950208e-002 
-8.115390e-002 
-8.320618e-002 
-8.525619e-002 
-8.933016e-002 
-9.407597e-002 
-9.778844e-002 
-1.013408e-001 
-1.037338e-001 
-1.055027e-001 
-1.090599e-001 
-1.118763e-001 
-1.141340e-001 
-1.155609e-001 
-1.150248e-001 
-1.165861e-001 
-1.190186e-001 
-1.193510e-001 
-1.196235e-001 
-1.194432e-001 
-1.186553e-001 
-1.195762e-001 
-1.191905e-001 
-1.182767e-001 
-1.183956e-001 
-1.167003e-001 
-1.150595e-001 
-1.150676e-001 
-1.144790e-001 
-1.129167e-001 
-1.099066e-001 
-1.047937e-001 
-1.020077e-001 
-1.012866e-001 
-1.004687e-001 
-9.908563e-002 
-9.511320e-002 
-8.943679e-002 
-8.454930e-002 
-8.115927e-002 
-7.994874e-002 
-7.916615e-002 
-7.604234e-002 
-7.180831e-002 
-6.699242e-002 
-6.363915e-002 
-6.293886e-002 
-6.222172e-002 
-6.027889e-002 
-5.673016e-002 
-5.264547e-002 
-5.105920e-002 
-5.140480e-002 
-5.203156e-002 
-5.219051e-002 
-5.003225e-002 
-4.743496e-002 
-4.673913e-002 
-4.720638e-002 
-4.953489e-002 
-5.172741e-002 
-5.136469e-002 
-4.976402e-002 
-4.882682e-002 
-4.923162e-002 
-5.155409e-002 
-5.345297e-002 
-5.401863e-002 
-5.512814e-002 
-5.514491e-002 
-5.515148e-002 
-5.583632e-002 
-5.719694e-002 
-5.724457e-002 
-5.692738e-002 
-5.790972e-002 
-5.971344e-002 
-6.091233e-002 
-6.063924e-002 
-6.053290e-002 
-6.030864e-002 
-6.266825e-002 
-6.373256e-002 
-6.520746e-002 
-6.735724e-002 
-6.716888e-002 
-6.641673e-002 
-6.778065e-002 
-6.849088e-002 
-6.923880e-002 
-6.989944e-002 
-6.658605e-002 
-6.667716e-002 
-6.746327e-002 
-6.691214e-002 
-6.690571e-002 
-6.570859e-002 
-6.142029e-002 
-5.899798e-002 
-5.823282e-002 
-5.812958e-002 
-5.922921e-002 
-5.709486e-002 
-5.318814e-002 
-5.054494e-002 
-4.959291e-002 
-4.906415e-002 
-5.071205e-002 
-5.079988e-002 
-4.866005e-002 
-4.693196e-002 
-4.621800e-002 
-4.672771e-002 
-4.797861e-002 
-4.751058e-002 
-4.443059e-002 
-4.251307e-002 
-4.187357e-002 
-4.315712e-002 
-4.454782e-002 
-4.446573e-002 
-4.233118e-002 
-4.010771e-002 
-3.948707e-002 
-3.940639e-002 
-4.021729e-002 
-4.140618e-002 
-4.129960e-002 
-3.921335e-002 
-3.828666e-002 
-3.777228e-002 
-3.884043e-002 
-3.913341e-002 
-3.686028e-002 
-3.649623e-002 
-3.822118e-002 
-3.938783e-002 
-3.896092e-002 
-3.804317e-002 
-3.593161e-002 
-3.494282e-002 
-3.475664e-002 
-3.523677e-002 
-3.672293e-002 
-3.667453e-002 
-3.455674e-002 
-3.245289e-002 
-3.233730e-002 
-3.351642e-002 
-3.589108e-002 
-3.686329e-002 
-3.661583e-002 
-3.698961e-002 
-3.756691e-002 
-3.820720e-002 
-3.847961e-002 
-3.659375e-002 
-3.346364e-002 
-3.095019e-002 
-2.877125e-002 
-2.759657e-002 
-2.507904e-002 
-1.921245e-002 
-1.240177e-002 
-5.274874e-003 
1.565067e-003 
6.463326e-003 
1.197435e-002 
1.893423e-002 
2.702026e-002 
3.618610e-002 
4.299375e-002 
4.709734e-002 
5.167427e-002 
5.575016e-002 
5.808263e-002 
5.912988e-002 
5.781747e-002 
5.531162e-002 
5.214768e-002 
4.944899e-002 
4.952359e-002 
4.883383e-002 
4.504736e-002 
3.984667e-002 
3.689551e-002 
3.629438e-002 
3.640687e-002 
3.596683e-002 
3.663922e-002 
3.515338e-002 
3.020659e-002 
2.637201e-002 
2.455906e-002 
2.482733e-002 
2.280888e-002 
1.923858e-002 
1.739460e-002 
1.724658e-002 
1.472624e-002 
1.106657e-002 
6.410838e-003 
6.683102e-004 
-4.447999e-003 
-8.923365e-003 
-1.122992e-002 
-1.295666e-002 
-1.678121e-002 
-2.325969e-002 
-2.856554e-002 
-3.082506e-002 
-3.014719e-002 
-2.860563e-002 
-2.845323e-002 
-3.015056e-002 
-3.341218e-002 
-3.635255e-002 
-3.776470e-002 
-3.826431e-002 
-3.859628e-002 
-3.913676e-002 
-3.947280e-002 
-3.910775e-002 
-3.825576e-002 
-3.634398e-002 
-3.373218e-002 
-3.248677e-002 
-3.083815e-002 
-2.503742e-002 
-1.580141e-002 
-5.205299e-003 
6.888558e-003 
2.285970e-002 
4.451543e-002 
7.164587e-002 
1.039092e-001 
1.439503e-001 
1.941974e-001 
2.565251e-001 
3.335692e-001 
4.279673e-001 
5.402702e-001 
6.677359e-001 
8.063185e-001 
9.567806e-001 
1.128750e+000 
1.326755e+000 
1.542284e+000 
1.760414e+000 
1.963253e+000 
2.130768e+000 
2.248707e+000 
2.313901e+000 
2.339221e+000 
2.341370e+000 
2.319676e+000 
2.266815e+000 
2.179051e+000 
2.050828e+000 
1.880897e+000 
1.679957e+000 
1.465318e+000 
1.253343e+000 
1.047291e+000 
8.392391e-001 
6.253484e-001 
4.092462e-001 
1.985169e-001 
8.409091e-003 
-1.419247e-001 
-2.452247e-001 
-3.061162e-001 
-3.370422e-001 
-3.527199e-001 
-3.624689e-001 
-3.695467e-001 
-3.776610e-001 
-3.853958e-001 
-3.917147e-001 
-4.003276e-001 
-4.082546e-001 
-4.138444e-001 
-4.180907e-001 
-4.204194e-001 
-4.228037e-001 
-4.259778e-001 
-4.272011e-001 
-4.276485e-001 
-4.270143e-001 
-4.240129e-001 
-4.224291e-001 
-4.226957e-001 
-4.235628e-001 
-4.241083e-001 
-4.231534e-001 
-4.218643e-001 
-4.210037e-001 
-4.215679e-001 
-4.231803e-001 
-4.249277e-001 
-4.238267e-001 
-4.216365e-001 
-4.210009e-001 
-4.215334e-001 
-4.226958e-001 
-4.224746e-001 
-4.211417e-001 
-4.183479e-001 
-4.147883e-001 
-4.123178e-001 
-4.131766e-001 
-4.132294e-001 
-4.108036e-001 
-4.072279e-001 
-4.040530e-001 
-4.025039e-001 
-4.001978e-001 
-3.978537e-001 
-3.957313e-001 
-3.916562e-001 
-3.871541e-001 
-3.845399e-001 
-3.829536e-001 
-3.812558e-001 
-3.768589e-001 
-3.704126e-001 
-3.659064e-001 
-3.615470e-001 
-3.573299e-001 
-3.541160e-001 
-3.488933e-001 
-3.415508e-001 
-3.337971e-001 
-3.280196e-001 
-3.228921e-001 
-3.169960e-001 
-3.101019e-001 
-3.020865e-001 
-2.931593e-001 
-2.842291e-001 
-2.748309e-001 
-2.647150e-001 
-2.526329e-001 
-2.373205e-001 
-2.224509e-001 
-2.081218e-001 
-1.919992e-001 
-1.738270e-001 
-1.544484e-001 
-1.319283e-001 
-1.075061e-001 
-8.337977e-002 
-5.866865e-002 
-3.329017e-002 
-5.277686e-003 
2.575125e-002 
5.707910e-002 
8.623595e-002 
1.154853e-001 
1.448289e-001 
1.742590e-001 
2.030189e-001 
2.287321e-001 
2.523163e-001 
2.738649e-001 
2.923366e-001 
3.081229e-001 
3.232278e-001 
3.345604e-001 
3.395716e-001 
3.392441e-001 
3.370794e-001 
3.337746e-001 
3.273878e-001 
3.172461e-001 
3.029117e-001 
2.856839e-001 
2.653752e-001 
2.444915e-001 
2.253427e-001 
2.063059e-001 
1.848363e-001 
1.624959e-001 
1.414895e-001 
1.220943e-001 
1.044964e-001 
8.751381e-002 
7.212018e-002 
5.744886e-002 
4.392665e-002 
3.268029e-002 
2.444920e-002 
1.771219e-002 
9.632512e-003 
1.872329e-003 
-4.023866e-003 
-7.542300e-003 
-9.601197e-003 
-1.120152e-002 
-1.494945e-002 
-1.876463e-002 
-2.359076e-002 
-2.810762e-002 
-2.929965e-002 
-3.155679e-002 
-3.446534e-002 
-3.730044e-002 
-4.148676e-002 
-4.485818e-002 
-4.671015e-002 
-5.096518e-002 
-5.482691e-002 
-5.913028e-002 
-6.332201e-002 
-6.385597e-002 
-6.429270e-002 
-6.675678e-002 
-6.971940e-002 
-7.372148e-002 
-7.732100e-002 
-7.770203e-002 
-7.710484e-002 
-7.632774e-002 
-7.721708e-002 
-8.101533e-002 
-8.500896e-002 
-8.591843e-002 
-8.476021e-002 
-8.235271e-002 
-7.982050e-002 
-7.975197e-002 
-8.004199e-002 
-7.907280e-002 
-7.733315e-002 
-7.515362e-002 
-7.266942e-002 
-7.071924e-002 
-6.803482e-002 
-6.537061e-002 
-6.270560e-002 
-5.991232e-002 
-5.818957e-002 
-5.701383e-002 
-5.603170e-002 
-5.384711e-002 
-5.038765e-002 
-4.814718e-002 
-4.900066e-002 
-5.112673e-002 
-5.307498e-002 
-5.228607e-002 
-5.071152e-002 
-5.047158e-002 
-5.055523e-002 
-5.082804e-002 
-5.279709e-002 
-5.473769e-002 
-5.460535e-002 
-5.286849e-002 
-5.253118e-002 
-5.494827e-002 
-5.660595e-002 
-5.553439e-002 
-5.498270e-002 
-5.642530e-002 
-5.753614e-002 
-5.815275e-002 
-5.882024e-002 
-6.016758e-002 
-6.008151e-002 
-5.853058e-002 
-5.928615e-002 
-6.298748e-002 
-6.472531e-002 
-6.478108e-002 
-6.397084e-002 
-6.402625e-002 
-6.531450e-002 
-6.626768e-002 
-6.736576e-002 
-6.843617e-002 
-6.789568e-002 
-6.772598e-002 
-6.855523e-002 
-6.961315e-002 
-7.130948e-002 
-7.115946e-002 
-6.998406e-002 
-6.993344e-002 
-7.185734e-002 
-7.456584e-002 
-7.633206e-002 
-7.591938e-002 
-7.436083e-002 
-7.300992e-002 
-7.314522e-002 
-7.487007e-002 
-7.791173e-002 
-7.973254e-002 
-7.870555e-002 
-7.757322e-002 
-7.688690e-002 
-7.698037e-002 
-7.856749e-002 
-7.789371e-002 
-7.675800e-002 
-7.700000e-002 
-7.762058e-002 
-7.832385e-002 
-7.804076e-002 
-7.690048e-002 
-7.600795e-002 
-7.417250e-002 
-7.306777e-002 
-7.550832e-002 
-7.695656e-002 
-7.634235e-002 
-7.362872e-002 
-7.162287e-002 
-7.153279e-002 
-7.140764e-002 
-7.160492e-002 
-7.157467e-002 
-6.956024e-002 
-6.721887e-002 
-6.700243e-002 
-6.748423e-002 
-6.775249e-002 
-6.563438e-002 
-6.359414e-002 
-6.276175e-002 
-6.156600e-002 
-6.196794e-002 
-6.348738e-002 
-6.347683e-002 
-6.081026e-002 
-5.743913e-002 
-5.560405e-002 
-5.683830e-002 
-5.755760e-002 
-5.667081e-002 
-5.537614e-002 
-5.482789e-002 
-5.458681e-002 
-5.361473e-002 
-5.304142e-002 
-5.218424e-002 
-5.083833e-002 
-4.866219e-002 
-4.727704e-002 
-4.738933e-002 
-4.698191e-002 
-4.386910e-002 
-4.035878e-002 
-3.818427e-002 
-3.553639e-002 
-3.261451e-002 
-2.874650e-002 
-2.347205e-002 
-1.655494e-002 
-9.415804e-003 
-4.512715e-003 
-6.544907e-004 
5.262797e-003 
1.436272e-002 
2.344646e-002 
3.146978e-002 
3.844405e-002 
4.435996e-002 
4.947322e-002 
5.496337e-002 
6.075618e-002 
6.602282e-002 
6.869151e-002 
6.769888e-002 
6.738557e-002 
6.931438e-002 
7.298202e-002 
7.442230e-002 
7.303717e-002 
6.999173e-002 
6.774581e-002 
6.615970e-002 
6.603195e-002 
6.755540e-002 
6.782531e-002 
6.433526e-002 
5.780246e-002 
5.355090e-002 
4.974210e-002 
4.642002e-002 
4.235326e-002 
3.837606e-002 
3.435989e-002 
2.895522e-002 
2.212805e-002 
1.552624e-002 
8.256887e-003 
-5.739737e-004 
-7.377737e-003 
-1.239262e-002 
-1.652756e-002 
-2.208946e-002 
-2.900395e-002 
-3.511614e-002 
-3.959757e-002 
-4.273903e-002 
-4.425855e-002 
-4.461542e-002 
-4.620760e-002 
-4.816315e-002 
-4.925345e-002 
-4.945352e-002 
-4.846775e-002 
-4.830117e-002 
-4.998675e-002 
-5.129193e-002 
-5.069123e-002 
-4.844794e-002 
-4.352915e-002 
-3.902297e-002 
-3.673205e-002 
-3.451422e-002 
-3.045916e-002 
-2.205080e-002 
-7.454313e-003 
1.147179e-002 
3.388306e-002 
6.168327e-002 
9.471450e-002 
1.355548e-001 
1.899192e-001 
2.615934e-001 
3.496094e-001 
4.547181e-001 
5.765182e-001 
7.139407e-001 
8.673164e-001 
1.038388e+000 
1.231987e+000 
1.446659e+000 
1.666073e+000 
1.866985e+000 
2.028362e+000 
2.132245e+000 
2.180571e+000 
2.192930e+000 
2.188020e+000 
2.169743e+000 
2.125897e+000 
2.041436e+000 
1.910380e+000 
1.734052e+000 
1.527525e+000 
1.319574e+000 
1.124010e+000 
9.328489e-001 
7.324546e-001 
5.189731e-001 
3.036665e-001 
1.018372e-001 
-7.156146e-002 
-2.005495e-001 
-2.795634e-001 
-3.205071e-001 
-3.391974e-001 
-3.470075e-001 
-3.504248e-001 
-3.537033e-001 
-3.601663e-001 
-3.691703e-001 
-3.779455e-001 
-3.830101e-001 
-3.851561e-001 
-3.867288e-001 
-3.906573e-001 
-3.956182e-001 
-3.991269e-001 
-3.995966e-001 
-3.988842e-001 
-3.974683e-001 
-3.953273e-001 
-3.952318e-001 
-3.965554e-001 
-3.985657e-001 
-3.993320e-001 
-3.995881e-001 
-4.000764e-001 
-4.006136e-001 
-3.992606e-001 
-3.977738e-001 
-3.971511e-001 
-3.968802e-001 
-3.984441e-001 
-4.003533e-001 
-4.006761e-001 
-3.980359e-001 
-3.939854e-001 
-3.901969e-001 
-3.889182e-001 
-3.890426e-001 
-3.888756e-001 
-3.867885e-001 
-3.822336e-001 
-3.773439e-001 
-3.734292e-001 
-3.711858e-001 
-3.679045e-001 
-3.646497e-001 
-3.614848e-001 
-3.576678e-001 
-3.529693e-001 
-3.492350e-001 
-3.450613e-001 
-3.387905e-001 
-3.315987e-001 
-3.241292e-001 
-3.204498e-001 
-3.176338e-001 
-3.115598e-001 
-3.027218e-001 
-2.931682e-001 
-2.822411e-001 
-2.721634e-001 
-2.631920e-001 
-2.544907e-001 
-2.456979e-001 
-2.323344e-001 
-2.160288e-001 
-2.006850e-001 
-1.861438e-001 
-1.696654e-001 
-1.519559e-001 
-1.330534e-001 
-1.131251e-001 
-9.164353e-002 
-6.722906e-002 
-4.117880e-002 
-1.551679e-002 
1.136737e-002 
3.959882e-002 
6.636302e-002 
9.405838e-002 
1.240946e-001 
1.549188e-001 
1.855528e-001 
2.127532e-001 
2.342214e-001 
2.542378e-001 
2.720741e-001 
2.887331e-001 
3.050440e-001 
3.155125e-001 
3.190330e-001 
3.177237e-001 
3.109835e-001 
3.024934e-001 
2.936862e-001 
2.812295e-001 
2.661489e-001 
2.465263e-001 
2.228031e-001 
1.994887e-001 
1.767270e-001 
1.534263e-001 
1.317502e-001 
1.097512e-001 
8.802948e-002 
6.914814e-002 
5.077282e-002 
3.291098e-002 
1.694578e-002 
3.074713e-003 
-8.126995e-003 
-1.692262e-002 
-2.525551e-002 
-3.316106e-002 
-4.025580e-002 
-4.912963e-002 
-5.730294e-002 
-6.164889e-002 
-6.490713e-002 
-6.921107e-002 
-7.450941e-002 
-8.131157e-002 
-8.694706e-002 
-9.077018e-002 
-9.595832e-002 
-9.955125e-002 
-1.037100e-001 
-1.100677e-001 
-1.143981e-001 
-1.177941e-001 
-1.219544e-001 
-1.263942e-001 
-1.327097e-001 
-1.386655e-001 
-1.418064e-001 
-1.449812e-001 
-1.454545e-001 
-1.449410e-001 
-1.482109e-001 
-1.531392e-001 
-1.572650e-001 
-1.575317e-001 
-1.549317e-001 
-1.539084e-001 
-1.539933e-001 
-1.527355e-001 
-1.526796e-001 
-1.529582e-001 
-1.518368e-001 
-1.488264e-001 
-1.450133e-001 
-1.435651e-001 
-1.426781e-001 
-1.386886e-001 
-1.346934e-001 
-1.335352e-001 
-1.337705e-001 
-1.333764e-001 
-1.303750e-001 
-1.277572e-001 
-1.264073e-001 
-1.237745e-001 
-1.216774e-001 
-1.235886e-001 
-1.258768e-001 
-1.258309e-001 
-1.231982e-001 
-1.213488e-001 
-1.241257e-001 
-1.267504e-001 
-1.273579e-001 
-1.293747e-001 
-1.314934e-001 
-1.316287e-001 
-1.324111e-001 
-1.337758e-001 
-1.361298e-001 
-1.389392e-001 
-1.394165e-001 
-1.417256e-001 
-1.454458e-001 
-1.475647e-001 
-1.481499e-001 
-1.476632e-001 
-1.459447e-001 
-1.462573e-001 
-1.475183e-001 
-1.488824e-001 
-1.500273e-001 
-1.480971e-001 
-1.448735e-001 
-1.426298e-001 
-1.417371e-001 
-1.429753e-001 
-1.441786e-001 
-1.427417e-001 
-1.415745e-001 
-1.408731e-001 
-1.399888e-001 
-1.408526e-001 
-1.414028e-001 
-1.398558e-001 
-1.401185e-001 
-1.403438e-001 
-1.413656e-001 
-1.448734e-001 
-1.464611e-001 
-1.452508e-001 
-1.439376e-001 
-1.418362e-001 
-1.419746e-001 
-1.452650e-001 
-1.468185e-001 
-1.468878e-001 
-1.449907e-001 
-1.407514e-001 
-1.385178e-001 
-1.380573e-001 
-1.374055e-001 
-1.367299e-001 
-1.369333e-001 
-1.367637e-001 
-1.360174e-001 
-1.346325e-001 
-1.344173e-001 
-1.345365e-001 
-1.332078e-001 
-1.319872e-001 
-1.329900e-001 
-1.349288e-001 
-1.347308e-001 
-1.328458e-001 
-1.306223e-001 
-1.304107e-001 
-1.311750e-001 
-1.329467e-001 
-1.337610e-001 
-1.326586e-001 
-1.302238e-001 
-1.288994e-001 
-1.275818e-001 
-1.272437e-001 
-1.270141e-001 
-1.253118e-001 
-1.232565e-001 
-1.202883e-001 
-1.190980e-001 
-1.206836e-001 
-1.216722e-001 
-1.199247e-001 
-1.182438e-001 
-1.162079e-001 
-1.154095e-001 
-1.161214e-001 
-1.152209e-001 
-1.138741e-001 
-1.134090e-001 
-1.120199e-001 
-1.112204e-001 
-1.111963e-001 
-1.102028e-001 
-1.094307e-001 
-1.082543e-001 
-1.064082e-001 
-1.068922e-001 
-1.083297e-001 
-1.068431e-001 
-1.032766e-001 
-9.809657e-002 
-9.318065e-002 
-9.057499e-002 
-8.816137e-002 
-8.479104e-002 
-8.008144e-002 
-7.354752e-002 
-6.595968e-002 
-5.974161e-002 
-5.435392e-002 
-4.973243e-002 
-4.424077e-002 
-3.704051e-002 
-3.066968e-002 
-2.555319e-002 
-2.217919e-002 
-1.924021e-002 
-1.685623e-002 
-1.480227e-002 
-1.399245e-002 
-1.441670e-002 
-1.629704e-002 
-1.743720e-002 
-1.728188e-002 
-1.728086e-002 
-1.770428e-002 
-1.847775e-002 
-1.909793e-002 
-1.981875e-002 
-1.997786e-002 
-1.936830e-002 
-1.954662e-002 
-2.327118e-002 
-2.758340e-002 
-3.047691e-002 
-3.183764e-002 
-3.370169e-002 
-3.705324e-002 
-4.056887e-002 
-4.494004e-002 
-5.111434e-002 
-5.577089e-002 
-5.774600e-002 
-6.126011e-002 
-6.645421e-002 
-7.267256e-002 
-7.812576e-002 
-8.169583e-002 
-8.459463e-002 
-8.712378e-002 
-8.891848e-002 
-9.147005e-002 
-9.325549e-002 
-9.233704e-002 
-9.193132e-002 
-9.206054e-002 
-9.283306e-002 
-9.372944e-002 
-9.510678e-002 
-9.600326e-002 
-9.502444e-002 
-9.418912e-002 
-9.514825e-002 
-9.657820e-002 
-9.505715e-002 
-9.105468e-002 
-8.626859e-002 
-8.380712e-002 
-8.198853e-002 
-7.973744e-002 
-7.678414e-002 
-7.158321e-002 
-6.425078e-002 
-5.497507e-002 
-4.566493e-002 
-3.497695e-002 
-2.198376e-002 
-3.122174e-003 
2.362635e-002 
5.428189e-002 
8.551497e-002 
1.217043e-001 
1.668010e-001 
2.239317e-001 
2.955436e-001 
3.783091e-001 
4.753133e-001 
5.871740e-001 
7.087293e-001 
8.429269e-001 
9.954980e-001 
1.167113e+000 
1.357040e+000 
1.557322e+000 
1.758789e+000 
1.949152e+000 
2.107926e+000 
2.218264e+000 
2.277878e+000 
2.299116e+000 
2.294938e+000 
2.266981e+000 
2.211123e+000 
2.123667e+000 
1.996529e+000 
1.828974e+000 
1.630694e+000 
1.421011e+000 
1.218014e+000 
1.018933e+000 
8.136230e-001 
6.025604e-001 
3.909030e-001 
1.854493e-001 
2.260807e-003 
-1.448576e-001 
-2.483859e-001 
-3.113748e-001 
-3.471737e-001 
-3.662380e-001 
-3.758216e-001 
-3.847886e-001 
-3.957368e-001 
-4.058117e-001 
-4.153195e-001 
-4.221952e-001 
-4.269023e-001 
-4.326874e-001 
-4.400185e-001 
-4.468689e-001 
-4.506680e-001 
-4.500982e-001 
-4.472841e-001 
-4.442967e-001 
-4.426888e-001 
-4.439085e-001 
-4.450995e-001 
-4.437384e-001 
-4.403925e-001 
-4.374328e-001 
-4.372710e-001 
-4.372976e-001 
-4.361566e-001 
-4.363803e-001 
-4.366043e-001 
-4.350271e-001 
-4.351295e-001 
-4.365838e-001 
-4.367758e-001 
-4.356965e-001 
-4.331049e-001 
-4.323375e-001 
-4.345360e-001 
-4.360146e-001 
-4.354286e-001 
-4.347118e-001 
-4.309517e-001 
-4.264771e-001 
-4.258679e-001 
-4.270886e-001 
-4.268980e-001 
-4.235511e-001 
-4.186445e-001 
-4.147272e-001 
-4.120739e-001 
-4.098799e-001 
-4.097447e-001 
-4.094698e-001 
-4.069372e-001 
-4.013789e-001 
-3.964748e-001 
-3.946049e-001 
-3.917637e-001 
-3.879346e-001 
-3.849346e-001 
-3.819028e-001 
-3.797475e-001 
-3.769238e-001 
-3.708394e-001 
-3.651811e-001 
-3.600754e-001 
-3.547759e-001 
-3.520335e-001 
-3.487500e-001 
-3.438164e-001 
-3.373832e-001 
-3.281532e-001 
-3.197688e-001 
-3.137196e-001 
-3.085288e-001 
-3.018668e-001 
-2.938639e-001 
-2.840752e-001 
-2.732119e-001 
-2.621510e-001 
-2.520512e-001 
-2.401721e-001 
-2.257416e-001 
-2.101956e-001 
-1.936568e-001 
-1.791200e-001 
-1.631888e-001 
-1.436932e-001 
-1.228630e-001 
-9.979343e-002 
-7.368459e-002 
-4.974968e-002 
-2.604033e-002 
-1.004046e-003 
2.501993e-002 
5.407333e-002 
8.318715e-002 
1.092060e-001 
1.355229e-001 
1.619892e-001 
1.870727e-001 
2.123991e-001 
2.360594e-001 
2.567348e-001 
2.732016e-001 
2.875688e-001 
2.998876e-001 
3.113088e-001 
3.188924e-001 
3.213170e-001 
3.209531e-001 
3.189413e-001 
3.138543e-001 
3.065402e-001 
2.980631e-001 
2.849753e-001 
2.692831e-001 
2.532886e-001 
2.384261e-001 
2.231145e-001 
2.057093e-001 
1.865685e-001 
1.684113e-001 
1.513169e-001 
1.350982e-001 
1.212526e-001 
1.104980e-001 
9.772749e-002 
8.364264e-002 
7.206702e-002 
6.274219e-002 
5.565212e-002 
4.845327e-002 
3.989135e-002 
3.376451e-002 
2.904686e-002 
2.400033e-002 
2.324980e-002 
2.103854e-002 
1.675933e-002 
1.344656e-002 
9.376334e-003 
6.811697e-003 
6.791504e-003 
5.180838e-003 
2.815682e-003 
5.941724e-004 
-2.828649e-003 
-3.978845e-003 
-3.307280e-003 
-5.453636e-003 
-8.426368e-003 
-1.196828e-002 
-1.675477e-002 
-1.992022e-002 
-2.105793e-002 
-2.405024e-002 
-2.885987e-002 
-3.431522e-002 
-4.065661e-002 
-4.426031e-002 
-4.680664e-002 
-4.934333e-002 
-5.159178e-002 
-5.510688e-002 
-5.982068e-002 
-6.267040e-002 
-6.475545e-002 
-6.695347e-002 
-6.932155e-002 
-7.223145e-002 
-7.291338e-002 
-7.214697e-002 
-7.076145e-002 
-6.914988e-002 
-6.868244e-002 
-6.858097e-002 
-6.840360e-002 
-6.781784e-002 
-6.549661e-002 
-6.296115e-002 
-6.217238e-002 
-6.162371e-002 
-6.085275e-002 
-5.870928e-002 
-5.517170e-002 
-5.314661e-002 
-5.230482e-002 
-5.171831e-002 
-5.078425e-002 
-4.935811e-002 
-4.813207e-002 
-4.816458e-002 
-4.811976e-002 
-4.939617e-002 
-5.175094e-002 
-5.203607e-002 
-5.009744e-002 
-4.847304e-002 
-4.890908e-002 
-5.003176e-002 
-5.034280e-002 
-4.897627e-002 
-4.891568e-002 
-4.879953e-002 
-4.917344e-002 
-5.082139e-002 
-5.147506e-002 
-4.962357e-002 
-4.731027e-002 
-4.561785e-002 
-4.587645e-002 
-4.823774e-002 
-5.015575e-002 
-5.203355e-002 
-5.099977e-002 
-4.938986e-002 
-5.019757e-002 
-5.277481e-002 
-5.444071e-002 
-5.545345e-002 
-5.608790e-002 
-5.766567e-002 
-5.960771e-002 
-6.079317e-002 
-6.294935e-002 
-6.393974e-002 
-6.370672e-002 
-6.439058e-002 
-6.672419e-002 
-6.903282e-002 
-7.105862e-002 
-7.067131e-002 
-6.890479e-002 
-6.781408e-002 
-6.778533e-002 
-6.987838e-002 
-7.219826e-002 
-7.237069e-002 
-7.146873e-002 
-7.038939e-002 
-6.999246e-002 
-7.062843e-002 
-7.015045e-002 
-6.892798e-002 
-6.657456e-002 
-6.404358e-002 
-6.448157e-002 
-6.610066e-002 
-6.665295e-002 
-6.665475e-002 
-6.486870e-002 
-6.253379e-002 
-6.183753e-002 
-6.287901e-002 
-6.478053e-002 
-6.540381e-002 
-6.379006e-002 
-6.225325e-002 
-6.120742e-002 
-6.113974e-002 
-6.069603e-002 
-6.138368e-002 
-6.175182e-002 
-6.166456e-002 
-6.248960e-002 
-6.251032e-002 
-6.149099e-002 
-5.976757e-002 
-5.839257e-002 
-5.759148e-002 
-5.900826e-002 
-5.956280e-002 
-6.143107e-002 
-5.985020e-002 
-5.557858e-002 
-5.325475e-002 
-5.267940e-002 
-5.232797e-002 
-5.181177e-002 
-4.978483e-002 
-4.768039e-002 
-4.649087e-002 
-4.263293e-002 
-4.074271e-002 
-3.973336e-002 
-3.799629e-002 
-3.638965e-002 
-3.586226e-002 
-3.555058e-002 
-3.732425e-002 
-3.649194e-002 
-3.295228e-002 
-3.056048e-002 
-3.068359e-002 
-3.310853e-002 
-3.551361e-002 
-3.578262e-002 
-3.494725e-002 
-3.454079e-002 
-3.212225e-002 
-3.113112e-002 
-3.270669e-002 
-3.349722e-002 
-3.088245e-002 
-2.725362e-002 
-2.426095e-002 
-2.342084e-002 
-2.270264e-002 
-1.976374e-002 
-1.542597e-002 
-1.016834e-002 
-3.773356e-003 
4.388769e-004 
3.216533e-003 
7.036959e-003 
1.247085e-002 
2.042491e-002 
2.823640e-002 
3.447641e-002 
3.960897e-002 
4.448434e-002 
4.954915e-002 
5.549557e-002 
6.069829e-002 
6.516348e-002 
6.688190e-002 
6.726834e-002 
6.990841e-002 
7.164091e-002 
7.056500e-002 
6.844609e-002 
6.593363e-002 
6.391404e-002 
6.148140e-002 
5.872143e-002 
5.926488e-002 
5.895658e-002 
5.388754e-002 
5.084947e-002 
5.124480e-002 
5.144877e-002 
4.909756e-002 
4.459582e-002 
4.168416e-002 
4.028970e-002 
3.635678e-002 
3.368328e-002 
3.308060e-002 
2.880761e-002 
2.184901e-002 
1.499668e-002 
1.081940e-002 
8.117171e-003 
3.259827e-003 
-3.548691e-003 
-9.183516e-003 
-1.591984e-002 
-2.151750e-002 
-2.446313e-002 
-2.704830e-002 
-2.977615e-002 
-3.305036e-002 
-3.595643e-002 
-3.732049e-002 
-3.719678e-002 
-3.859024e-002 
-4.010597e-002 
-4.231651e-002 
-4.448767e-002 
-4.400638e-002 
-4.213997e-002 
-4.258827e-002 
-4.510456e-002 
-4.789370e-002 
-5.078715e-002 
-5.089421e-002 
-5.037520e-002 
-4.873888e-002 
-4.696771e-002 
-4.691257e-002 
-4.720554e-002 
-4.367914e-002 
-3.635815e-002 
-2.682349e-002 
-1.555925e-002 
-1.267085e-003 
1.975990e-002 
4.695925e-002 
8.048650e-002 
1.197517e-001 
1.680764e-001 
2.291881e-001 
3.062482e-001 
4.018304e-001 
5.159870e-001 
6.462593e-001 
7.902246e-001 
9.479560e-001 
1.124739e+000 
1.327578e+000 
1.552421e+000 
1.786301e+000 
2.013093e+000 
2.216512e+000 
2.384031e+000 
2.508394e+000 
2.587832e+000 
2.629060e+000 
2.637051e+000 
2.606069e+000 
2.533043e+000 
2.420161e+000 
2.269699e+000 
2.085329e+000 
1.873905e+000 
1.646743e+000 
1.414902e+000 
1.179344e+000 
9.365098e-001 
6.928581e-001 
4.563676e-001 
2.357003e-001 
4.227594e-002 
-1.139392e-001 
-2.282996e-001 
-3.057925e-001 
-3.558974e-001 
-3.864626e-001 
-4.031128e-001 
-4.132576e-001 
-4.205569e-001 
-4.284775e-001 
-4.387272e-001 
-4.488797e-001 
-4.576921e-001 
-4.641256e-001 
-4.686202e-001 
-4.722224e-001 
-4.764229e-001 
-4.800539e-001 
-4.826036e-001 
-4.832135e-001 
-4.807874e-001 
-4.795110e-001 
-4.805285e-001 
-4.832223e-001 
-4.860888e-001 
-4.886846e-001 
-4.889131e-001 
-4.884915e-001 
-4.903233e-001 
-4.920611e-001 
-4.944134e-001 
-4.962416e-001 
-4.970770e-001 
-4.990476e-001 
-5.014975e-001 
-5.026870e-001 
-5.041258e-001 
-5.045547e-001 
-5.028659e-001 
-5.020956e-001 
-5.022181e-001 
-5.030607e-001 
-5.040021e-001 
-5.017664e-001 
-4.974895e-001 
-4.942020e-001 
-4.917566e-001 
-4.896696e-001 
-4.880027e-001 
-4.852706e-001 
-4.827050e-001 
-4.806891e-001 
-4.775152e-001 
-4.750231e-001 
-4.722146e-001 
-4.674677e-001 
-4.630050e-001 
-4.597010e-001 
-4.574179e-001 
-4.561322e-001 
-4.525569e-001 
-4.452402e-001 
-4.374073e-001 
-4.303188e-001 
-4.253905e-001 
-4.214707e-001 
-4.161418e-001 
-4.091318e-001 
-4.003431e-001 
-3.905504e-001 
-3.806024e-001 
-3.716439e-001 
-3.627064e-001 
-3.509942e-001 
-3.365130e-001 
-3.230842e-001 
-3.098010e-001 
-2.949316e-001 
-2.771204e-001 
-2.565740e-001 
-2.357798e-001 
-2.141707e-001 
-1.910761e-001 
-1.680261e-001 
-1.430544e-001 
-1.136112e-001 
-8.199673e-002 
-5.028225e-002 
-2.079663e-002 
8.473041e-003 
3.917452e-002 
7.123276e-002 
1.040345e-001 
1.351936e-001 
1.613914e-001 
1.850282e-001 
2.077709e-001 
2.296688e-001 
2.498450e-001 
2.645484e-001 
2.754820e-001 
2.814330e-001 
2.821594e-001 
2.827704e-001 
2.837680e-001 
2.802395e-001 
2.712288e-001 
2.563009e-001 
2.400133e-001 
2.249452e-001 
2.073420e-001 
1.900560e-001 
1.732764e-001 
1.528448e-001 
1.313300e-001 
1.104223e-001 
9.219652e-002 
7.659539e-002 
5.971730e-002 
4.337761e-002 
3.027748e-002 
1.807807e-002 
7.629171e-003 
-2.021743e-003 
-1.166595e-002 
-1.914802e-002 
-2.702814e-002 
-3.269095e-002 
-3.459737e-002 
-3.756419e-002 
-4.142290e-002 
-4.457868e-002 
-4.780711e-002 
-4.874179e-002 
-4.901359e-002 
-5.008867e-002 
-5.006137e-002 
-5.080612e-002 
-5.304102e-002 
-5.364050e-002 
-5.357150e-002 
-5.475761e-002 
-5.798372e-002 
-6.107326e-002 
-6.315512e-002 
-6.400498e-002 
-6.510241e-002 
-6.772264e-002 
-7.108956e-002 
-7.429451e-002 
-7.784119e-002 
-8.003269e-002 
-8.007786e-002 
-8.216695e-002 
-8.529152e-002 
-8.928606e-002 
-9.290442e-002 
-9.468758e-002 
-9.509848e-002 
-9.573251e-002 
-9.743994e-002 
-9.996441e-002 
-1.011716e-001 
-9.973663e-002 
-9.846204e-002 
-9.810424e-002 
-9.862001e-002 
-9.816302e-002 
-9.600053e-002 
-9.301310e-002 
-8.813850e-002 
-8.307497e-002 
-8.131949e-002 
-8.219205e-002 
-8.059261e-002 
-7.548326e-002 
-6.836600e-002 
-6.211095e-002 
-5.840922e-002 
-5.542765e-002 
-5.301600e-002 
-5.193620e-002 
-4.937218e-002 
-4.396298e-002 
-4.007324e-002 
-3.832390e-002 
-3.720185e-002 
-3.586322e-002 
-3.365548e-002 
-3.320386e-002 
-3.494393e-002 
-3.496821e-002 
-3.349935e-002 
-3.211370e-002 
-3.072111e-002 
-3.066257e-002 
-3.286836e-002 
-3.568257e-002 
-3.851224e-002 
-3.967663e-002 
-3.863401e-002 
-3.809416e-002 
-4.003875e-002 
-4.345367e-002 
-4.685460e-002 
-4.929091e-002 
-4.978041e-002 
-5.097605e-002 
-5.274835e-002 
-5.565668e-002 
-5.896109e-002 
-6.044708e-002 
-6.059901e-002 
-6.221207e-002 
-6.480805e-002 
-6.704755e-002 
-6.810303e-002 
-6.857992e-002 
-7.023318e-002 
-7.002202e-002 
-6.988662e-002 
-7.217848e-002 
-7.394667e-002 
-7.396407e-002 
-7.236467e-002 
-7.136330e-002 
-7.351661e-002 
-7.472653e-002 
-7.389654e-002 
-7.350276e-002 
-7.244981e-002 
-7.221744e-002 
-7.375675e-002 
-7.477440e-002 
-7.584422e-002 
-7.506016e-002 
-7.254930e-002 
-7.247468e-002 
-7.353366e-002 
-7.518793e-002 
-7.776297e-002 
-7.783320e-002 
-7.646623e-002 
-7.608270e-002 
-7.662473e-002 
-7.848361e-002 
-7.927498e-002 
-7.742314e-002 
-7.522870e-002 
-7.385210e-002 
-7.279521e-002 
-7.322585e-002 
-7.385947e-002 
-7.310139e-002 
-7.064457e-002 
-6.822536e-002 
-6.753191e-002 
-6.728971e-002 
-6.661760e-002 
-6.427594e-002 
-6.172907e-002 
-5.966003e-002 
-5.896083e-002 
-5.927705e-002 
-5.867937e-002 
-5.645729e-002 
-5.456303e-002 
-5.431930e-002 
-5.407663e-002 
-5.470470e-002 
-5.445706e-002 
-5.264842e-002 
-4.876777e-002 
-4.442712e-002 
-4.445541e-002 
-4.760405e-002 
-4.812409e-002 
-4.588137e-002 
-4.400084e-002 
-4.213765e-002 
-4.047783e-002 
-3.981036e-002 
-3.942786e-002 
-3.896434e-002 
-3.687505e-002 
-3.402370e-002 
-3.297727e-002 
-3.311887e-002 
-3.186474e-002 
-2.951425e-002 
-2.761141e-002 
-2.524234e-002 
-2.418410e-002 
-2.488378e-002 
-2.424370e-002 
-1.971730e-002 
-1.430479e-002 
-9.826438e-003 
-6.137206e-003 
-3.726071e-003 
-1.123400e-003 
2.306007e-003 
6.868342e-003 
1.297495e-002 
1.915880e-002 
2.405393e-002 
2.964748e-002 
3.713749e-002 
4.341395e-002 
4.721274e-002 
5.035388e-002 
5.225693e-002 
5.434033e-002 
5.805741e-002 
6.142687e-002 
6.293380e-002 
6.221968e-002 
5.855611e-002 
5.559795e-002 
5.579547e-002 
5.717460e-002 
5.763216e-002 
5.596889e-002 
5.383778e-002 
5.182096e-002 
5.019013e-002 
4.980028e-002 
5.018265e-002 
4.835009e-002 
4.487741e-002 
4.128370e-002 
4.057589e-002 
4.082917e-002 
3.818133e-002 
3.414055e-002 
2.940062e-002 
2.286888e-002 
1.526196e-002 
1.045882e-002 
6.860841e-003 
2.130128e-003 
-5.064363e-003 
-1.067879e-002 
-1.382645e-002 
-1.723617e-002 
-2.202909e-002 
-2.639111e-002 
-2.862225e-002 
-3.052552e-002 
-3.168372e-002 
-3.231338e-002 
-3.195680e-002 
-3.331233e-002 
-3.656482e-002 
-3.790065e-002 
-3.665394e-002 
-3.496732e-002 
-3.450221e-002 
-3.563040e-002 
-3.670936e-002 
-3.552486e-002 
-3.386370e-002 
-3.093787e-002 
-2.607071e-002 
-2.180280e-002 
-1.656765e-002 
-7.258380e-003 
9.331976e-003 
3.363424e-002 
6.270752e-002 
9.553822e-002 
1.361348e-001 
1.875176e-001 
2.536149e-001 
3.388873e-001 
4.416668e-001 
5.606530e-001 
6.945246e-001 
8.423096e-001 
1.008671e+000 
1.197436e+000 
1.407804e+000 
1.631339e+000 
1.849553e+000 
2.039464e+000 
2.183562e+000 
2.270428e+000 
2.305957e+000 
2.310719e+000 
2.296998e+000 
2.263275e+000 
2.198443e+000 
2.092057e+000 
1.939085e+000 
1.744002e+000 
1.525961e+000 
1.311286e+000 
1.108222e+000 
9.059606e-001 
6.937874e-001 
4.723583e-001 
2.527569e-001 
5.176710e-002 
-1.133362e-001 
-2.286785e-001 
-2.958539e-001 
-3.304704e-001 
-3.482215e-001 
-3.577455e-001 
-3.632627e-001 
-3.678961e-001 
-3.743612e-001 
-3.826844e-001 
-3.891552e-001 
-3.938647e-001 
-3.971116e-001 
-4.004308e-001 
-4.037024e-001 
-4.063594e-001 
-4.091066e-001 
-4.099559e-001 
-4.084096e-001 
-4.067751e-001 
-4.078066e-001 
-4.112834e-001 
-4.151059e-001 
-4.159645e-001 
-4.153432e-001 
-4.141064e-001 
-4.133871e-001 
-4.150480e-001 
-4.172027e-001 
-4.199168e-001 
-4.204512e-001 
-4.186763e-001 
-4.180923e-001 
-4.194923e-001 
-4.203274e-001 
-4.203642e-001 
-4.176621e-001 
-4.151196e-001 
-4.145960e-001 
-4.141076e-001 
-4.157459e-001 
-4.166715e-001 
-4.142928e-001 
-4.109212e-001 
-4.080131e-001 
-4.069641e-001 
-4.079711e-001 
-4.070734e-001 
-4.041727e-001 
-4.012528e-001 
-3.968557e-001 
-3.935449e-001 
-3.920227e-001 
-3.888154e-001 
-3.844713e-001 
-3.796329e-001 
-3.746575e-001 
-3.703253e-001 
-3.655854e-001 
-3.587049e-001 
-3.508913e-001 
-3.423564e-001 
-3.341013e-001 
-3.272151e-001 
-3.192985e-001 
-3.090872e-001 
-2.950717e-001 
-2.792987e-001 
-2.633843e-001 
-2.482166e-001 
-2.327217e-001 
-2.145483e-001 
-1.915183e-001 
-1.669088e-001 
-1.431531e-001 
-1.177693e-001 
-9.291168e-002 
-6.649590e-002 
-3.751988e-002 
-5.345396e-003 
2.743884e-002 
5.808070e-002 
8.580705e-002 
1.137880e-001 
1.427044e-001 
1.692089e-001 
1.937339e-001 
2.151309e-001 
2.334040e-001 
2.493320e-001 
2.635051e-001 
2.752880e-001 
2.840874e-001 
2.869982e-001 
2.850333e-001 
2.819725e-001 
2.757234e-001 
2.675332e-001 
2.566395e-001 
2.408298e-001 
2.232151e-001 
2.054646e-001 
1.855071e-001 
1.669866e-001 
1.481843e-001 
1.255564e-001 
1.040283e-001 
8.499093e-002 
6.718957e-002 
5.064729e-002 
3.290617e-002 
1.420374e-002 
-1.929577e-003 
-1.760192e-002 
-2.961900e-002 
-3.691340e-002 
-4.435272e-002 
-5.513355e-002 
-6.588936e-002 
-7.391437e-002 
-7.823922e-002 
-8.160338e-002 
-8.545337e-002 
-8.838211e-002 
-9.335477e-002 
-9.906939e-002 
-1.023844e-001 
-1.028357e-001 
-1.024661e-001 
-1.038318e-001 
-1.082898e-001 
-1.118956e-001 
-1.131050e-001 
-1.141402e-001 
-1.150739e-001 
-1.161896e-001 
-1.184444e-001 
-1.203124e-001 
-1.223961e-001 
-1.256777e-001 
-1.272747e-001 
-1.279782e-001 
-1.313819e-001 
-1.347726e-001 
-1.363192e-001 
-1.381911e-001 
-1.407331e-001 
-1.466602e-001 
-1.531807e-001 
-1.552942e-001 
-1.568865e-001 
-1.603550e-001 
-1.628667e-001 
-1.653938e-001 
-1.691054e-001 
-1.721380e-001 
-1.748669e-001 
-1.751702e-001 
-1.742829e-001 
-1.765585e-001 
-1.787844e-001 
-1.775653e-001 
-1.750445e-001 
-1.729924e-001 
-1.711923e-001 
-1.707308e-001 
-1.696888e-001 
-1.676648e-001 
-1.658551e-001 
-1.617236e-001 
-1.570706e-001 
-1.558877e-001 
-1.559231e-001 
-1.542996e-001 
-1.513791e-001 
-1.478836e-001 
-1.456388e-001 
-1.448859e-001 
-1.430392e-001 
-1.412226e-001 
-1.410594e-001 
-1.397960e-001 
-1.388341e-001 
-1.389257e-001 
-1.383432e-001 
-1.367236e-001 
-1.336784e-001 
-1.297613e-001 
-1.292589e-001 
-1.321838e-001 
-1.338563e-001 
-1.351423e-001 
-1.334471e-001 
-1.308252e-001 
-1.307127e-001 
-1.319503e-001 
-1.339521e-001 
-1.368597e-001 
-1.369476e-001 
-1.343429e-001 
-1.332533e-001 
-1.330478e-001 
-1.346509e-001 
-1.366657e-001 
-1.375816e-001 
-1.381880e-001 
-1.386806e-001 
-1.391791e-001 
-1.409919e-001 
-1.425361e-001 
-1.420325e-001 
-1.409388e-001 
-1.420937e-001 
-1.447811e-001 
-1.469879e-001 
-1.479965e-001 
-1.493430e-001 
-1.500885e-001 
-1.499466e-001 
-1.509310e-001 
-1.532604e-001 
-1.557486e-001 
-1.563566e-001 
-1.561641e-001 
-1.563514e-001 
-1.577039e-001 
-1.578449e-001 
-1.567336e-001 
-1.550404e-001 
-1.532292e-001 
-1.533214e-001 
-1.549462e-001 
-1.561485e-001 
-1.556354e-001 
-1.529474e-001 
-1.495148e-001 
-1.484445e-001 
-1.496968e-001 
-1.516656e-001 
-1.536720e-001 
-1.528161e-001 
-1.494023e-001 
-1.462207e-001 
-1.442345e-001 
-1.446811e-001 
-1.457022e-001 
-1.456836e-001 
-1.451093e-001 
-1.442736e-001 
-1.431780e-001 
-1.434257e-001 
-1.425790e-001 
-1.405070e-001 
-1.402302e-001 
-1.410464e-001 
-1.431194e-001 
-1.437498e-001 
-1.428699e-001 
-1.433708e-001 
-1.444383e-001 
-1.448793e-001 
-1.484614e-001 
-1.531633e-001 
-1.546669e-001 
-1.536995e-001 
-1.519496e-001 
-1.523990e-001 
-1.547502e-001 
-1.572527e-001 
-1.578667e-001 
-1.565880e-001 
-1.536939e-001 
-1.517965e-001 
-1.526893e-001 
-1.543997e-001 
-1.531411e-001 
-1.493643e-001 
-1.457208e-001 
-1.419202e-001 
-1.404131e-001 
-1.409832e-001 
-1.414291e-001 
-1.391623e-001 
-1.329882e-001 
-1.257575e-001 
-1.224724e-001 
-1.214221e-001 
-1.186511e-001 
-1.142719e-001 
-1.075808e-001 
-1.004171e-001 
-9.234681e-002 
-8.305959e-002 
-7.567087e-002 
-6.991731e-002 
-6.246044e-002 
-5.527317e-002 
-4.873491e-002 
-4.317268e-002 
-3.895742e-002 
-3.155001e-002 
-2.448468e-002 
-2.154884e-002 
-1.986269e-002 
-1.941884e-002 
-1.996070e-002 
-1.903337e-002 
-1.847017e-002 
-1.737852e-002 
-1.601691e-002 
-1.781762e-002 
-1.920604e-002 
-1.986996e-002 
-2.157166e-002 
-2.365388e-002 
-2.562553e-002 
-2.913695e-002 
-3.314120e-002 
-3.597409e-002 
-3.800754e-002 
-4.086094e-002 
-4.614661e-002 
-5.158436e-002 
-5.632549e-002 
-5.979209e-002 
-6.407737e-002 
-6.778112e-002 
-7.020102e-002 
-7.338687e-002 
-7.789909e-002 
-8.130396e-002 
-8.386198e-002 
-8.669115e-002 
-8.982039e-002 
-9.229512e-002 
-9.228901e-002 
-9.090856e-002 
-9.076679e-002 
-9.291959e-002 
-9.524945e-002 
-9.645016e-002 
-9.652203e-002 
-9.641717e-002 
-9.547040e-002 
-9.580277e-002 
-9.796505e-002 
-1.008976e-001 
-1.023154e-001 
-1.005356e-001 
-9.672237e-002 
-9.490460e-002 
-9.417172e-002 
-9.136081e-002 
-8.672426e-002 
-7.821343e-002 
-6.631488e-002 
-5.178640e-002 
-3.306916e-002 
-1.010436e-002 
1.695878e-002 
5.199673e-002 
9.561998e-002 
1.488008e-001 
2.151896e-001 
2.961071e-001 
3.941378e-001 
5.092284e-001 
6.365772e-001 
7.755764e-001 
9.299130e-001 
1.103502e+000 
1.298277e+000 
1.504876e+000 
1.706463e+000 
1.882814e+000 
2.012446e+000 
2.086983e+000 
2.119271e+000 
2.127078e+000 
2.117010e+000 
2.083594e+000 
2.016849e+000 
1.913085e+000 
1.768423e+000 
1.585498e+000 
1.385786e+000 
1.189812e+000 
1.000132e+000 
8.077534e-001 
6.079396e-001 
4.032658e-001 
2.022293e-001 
1.459087e-002 
-1.423835e-001 
-2.544905e-001 
-3.232931e-001 
-3.594073e-001 
-3.783652e-001 
-3.894457e-001 
-3.993913e-001 
-4.084945e-001 
-4.176763e-001 
-4.258998e-001 
-4.328035e-001 
-4.388084e-001 
-4.457875e-001 
-4.541913e-001 
-4.606407e-001 
-4.642718e-001 
-4.654035e-001 
-4.666890e-001 
-4.669131e-001 
-4.678088e-001 
-4.694868e-001 
-4.697810e-001 
-4.687774e-001 
-4.685277e-001 
-4.694325e-001 
-4.713530e-001 
-4.722742e-001 
-4.723721e-001 
-4.741354e-001 
-4.763799e-001 
-4.784996e-001 
-4.812309e-001 
-4.828328e-001 
-4.817263e-001 
-4.798301e-001 
-4.788815e-001 
-4.798805e-001 
-4.823990e-001 
-4.829258e-001 
-4.819722e-001 
-4.807973e-001 
-4.795541e-001 
-4.790905e-001 
-4.784838e-001 
-4.779455e-001 
-4.774171e-001 
-4.752657e-001 
-4.730933e-001 
-4.738500e-001 
-4.750032e-001 
-4.757965e-001 
-4.741793e-001 
-4.708999e-001 
-4.699635e-001 
-4.702429e-001 
-4.693904e-001 
-4.673497e-001 
-4.632326e-001 
-4.587832e-001 
-4.541674e-001 
-4.488468e-001 
-4.445039e-001 
-4.410988e-001 
-4.360957e-001 
-4.283989e-001 
-4.206439e-001 
-4.153549e-001 
-4.108907e-001 
-4.027343e-001 
-3.916801e-001 
-3.802254e-001 
-3.705063e-001 
-3.603540e-001 
-3.504349e-001 
-3.404896e-001 
-3.286838e-001 
-3.136577e-001 
-2.958423e-001 
-2.783973e-001 
-2.625216e-001 
-2.449791e-001 
-2.242799e-001 
-2.010227e-001 
-1.755205e-001 
-1.495184e-001 
-1.221352e-001 
-9.414290e-002 
-6.560799e-002 
-3.536205e-002 
-4.257956e-003 
2.602847e-002 
5.549598e-002 
8.178329e-002 
1.066158e-001 
1.301115e-001 
1.503757e-001 
1.692200e-001 
1.860171e-001 
1.994936e-001 
2.099379e-001 
2.143769e-001 
2.129156e-001 
2.091447e-001 
2.028594e-001 
1.945744e-001 
1.846772e-001 
1.716438e-001 
1.555556e-001 
1.363901e-001 
1.154227e-001 
9.766582e-002 
8.293704e-002 
6.712959e-002 
4.869783e-002 
2.933958e-002 
1.244939e-002 
-1.165425e-003 
-1.267491e-002 
-2.267677e-002 
-3.235162e-002 
-4.339320e-002 
-5.497269e-002 
-6.382362e-002 
-6.699657e-002 
-6.682957e-002 
-6.787646e-002 
-7.258382e-002 
-7.973242e-002 
-8.365091e-002 
-8.466368e-002 
-8.474455e-002 
-8.464711e-002 
-8.596677e-002 
-8.908282e-002 
-9.335312e-002 
-9.816775e-002 
-9.902753e-002 
-9.815843e-002 
-1.013783e-001 
-1.066999e-001 
-1.110625e-001 
-1.139086e-001 
-1.165259e-001 
-1.205348e-001 
-1.243844e-001 
-1.275532e-001 
-1.318956e-001 
-1.354247e-001 
-1.372117e-001 
-1.375656e-001 
-1.400407e-001 
-1.441607e-001 
-1.463466e-001 
-1.467467e-001 
-1.471401e-001 
-1.477636e-001 
-1.500035e-001 
-1.520507e-001 
-1.519565e-001 
-1.522059e-001 
-1.512879e-001 
-1.495985e-001 
-1.490645e-001 
-1.492149e-001 
-1.484078e-001 
-1.460075e-001 
-1.420258e-001 
-1.390305e-001 
-1.395028e-001 
-1.407768e-001 
-1.404544e-001 
-1.382401e-001 
-1.357139e-001 
-1.330565e-001 
-1.309123e-001 
-1.304254e-001 
-1.304314e-001 
-1.298938e-001 
-1.289866e-001 
-1.286991e-001 
-1.300505e-001 
-1.324715e-001 
-1.320377e-001 
-1.313374e-001 
-1.317625e-001 
-1.318109e-001 
-1.330110e-001 
-1.358147e-001 
-1.371856e-001 
-1.360327e-001 
-1.339956e-001 
-1.339064e-001 
-1.368533e-001 
-1.389273e-001 
-1.402971e-001 
-1.412016e-001 
-1.403855e-001 
-1.396419e-001 
-1.402964e-001 
-1.416733e-001 
-1.423911e-001 
-1.406692e-001 
-1.390262e-001 
-1.400686e-001 
-1.414924e-001 
-1.429593e-001 
-1.445732e-001 
-1.422393e-001 
-1.384090e-001 
-1.368788e-001 
-1.373013e-001 
-1.398344e-001 
-1.408415e-001 
-1.385256e-001 
-1.362630e-001 
-1.350379e-001 
-1.342872e-001 
-1.357676e-001 
-1.362606e-001 
-1.347663e-001 
-1.327612e-001 
-1.297687e-001 
-1.285401e-001 
-1.293015e-001 
-1.293079e-001 
-1.279729e-001 
-1.257647e-001 
-1.236574e-001 
-1.241673e-001 
-1.243394e-001 
-1.226873e-001 
-1.207496e-001 
-1.176949e-001 
-1.144437e-001 
-1.123771e-001 
-1.111846e-001 
-1.109544e-001 
-1.094978e-001 
-1.062999e-001 
-1.052211e-001 
-1.060158e-001 
-1.052466e-001 
-1.036181e-001 
-1.019599e-001 
-1.006802e-001 
-9.941527e-002 
-9.894463e-002 
-1.011077e-001 
-1.022009e-001 
-1.001491e-001 
-9.755137e-002 
-9.756152e-002 
-1.001408e-001 
-1.023210e-001 
-1.014689e-001 
-1.012858e-001 
-9.942698e-002 
-9.562600e-002 
-9.448608e-002 
-9.453809e-002 
-9.517537e-002 
-9.435645e-002 
-9.104262e-002 
-8.953240e-002 
-9.078329e-002 
-9.007297e-002 
-8.913786e-002 
-8.780729e-002 
-8.661987e-002 
-8.656203e-002 
-8.593755e-002 
-8.667230e-002 
-8.831166e-002 
-8.736212e-002 
-8.566297e-002 
-8.539191e-002 
-8.555467e-002 
-8.684206e-002 
-8.675603e-002 
-8.511377e-002 
-8.351738e-002 
-8.193875e-002 
-8.069564e-002 
-8.018692e-002 
-7.732644e-002 
-7.204344e-002 
-6.803260e-002 
-6.402910e-002 
-5.975858e-002 
-5.633320e-002 
-5.107488e-002 
-4.328439e-002 
-3.485495e-002 
-2.666287e-002 
-2.175998e-002 
-1.793562e-002 
-1.194948e-002 
-5.929487e-003 
3.372173e-004 
6.236928e-003 
8.874571e-003 
9.660323e-003 
9.271423e-003 
9.040078e-003 
1.029483e-002 
9.321059e-003 
6.431212e-003 
3.827286e-003 
9.530370e-004 
-1.398910e-003 
-2.703636e-003 
-3.898398e-003 
-5.372771e-003 
-7.763713e-003 
-9.379458e-003 
-9.405278e-003 
-8.826531e-003 
-9.328883e-003 
-1.272154e-002 
-1.667624e-002 
-1.870333e-002 
-2.064083e-002 
-2.199978e-002 
-2.351616e-002 
-2.767658e-002 
-3.221695e-002 
-3.791677e-002 
-4.427033e-002 
-4.844264e-002 
-5.254127e-002 
-5.897578e-002 
-6.516698e-002 
-7.021072e-002 
-7.329119e-002 
-7.540493e-002 
-7.915763e-002 
-8.185711e-002 
-8.385660e-002 
-8.510914e-002 
-8.461432e-002 
-8.307424e-002 
-8.257178e-002 
-8.372760e-002 
-8.566423e-002 
-8.599650e-002 
-8.440273e-002 
-8.320236e-002 
-8.053747e-002 
-7.734132e-002 
-7.467990e-002 
-7.067628e-002 
-6.348015e-002 
-5.327477e-002 
-4.047109e-002 
-2.505472e-002 
-3.221217e-003 
2.643529e-002 
6.219982e-002 
1.043600e-001 
1.542680e-001 
2.157935e-001 
2.938013e-001 
3.905126e-001 
5.070443e-001 
6.416006e-001 
7.890897e-001 
9.511726e-001 
1.133833e+000 
1.341159e+000 
1.568191e+000 
1.797524e+000 
2.002558e+000 
2.162917e+000 
2.267239e+000 
2.322541e+000 
2.346142e+000 
2.348643e+000 
2.329960e+000 
2.281260e+000 
2.191375e+000 
2.052336e+000 
1.870696e+000 
1.664564e+000 
1.453923e+000 
1.244604e+000 
1.032753e+000 
8.143917e-001 
5.900204e-001 
3.635330e-001 
1.474123e-001 
-3.647780e-002 
-1.738494e-001 
-2.639098e-001 
-3.176064e-001 
-3.490138e-001 
-3.676755e-001 
-3.811370e-001 
-3.958401e-001 
-4.100649e-001 
-4.213434e-001 
-4.316927e-001 
-4.415378e-001 
-4.518189e-001 
-4.598502e-001 
-4.623687e-001 
-4.634989e-001 
-4.648069e-001 
-4.657453e-001 
-4.684360e-001 
-4.718588e-001 
-4.743944e-001 
-4.740170e-001 
-4.711925e-001 
-4.699013e-001 
-4.720601e-001 
-4.744838e-001 
-4.754697e-001 
-4.756578e-001 
-4.749698e-001 
-4.734713e-001 
-4.724774e-001 
-4.715378e-001 
-4.711478e-001 
-4.716471e-001 
-4.703794e-001 
-4.688091e-001 
-4.693157e-001 
-4.692543e-001 
-4.665148e-001 
-4.616432e-001 
-4.567448e-001 
-4.553202e-001 
-4.545532e-001 
-4.524747e-001 
-4.503883e-001 
-4.472900e-001 
-4.415865e-001 
-4.354859e-001 
-4.319360e-001 
-4.313558e-001 
-4.298766e-001 
-4.262700e-001 
-4.217052e-001 
-4.174357e-001 
-4.127226e-001 
-4.076972e-001 
-4.024913e-001 
-3.978888e-001 
-3.931860e-001 
-3.879692e-001 
-3.818265e-001 
-3.752264e-001 
-3.676490e-001 
-3.567561e-001 
-3.458433e-001 
-3.364504e-001 
-3.281634e-001 
-3.174293e-001 
-3.033525e-001 
-2.864240e-001 
-2.697510e-001 
-2.518051e-001 
-2.335296e-001 
-2.161087e-001 
-1.964955e-001 
-1.718087e-001 
-1.445547e-001 
-1.189120e-001 
-9.356713e-002 
-6.766907e-002 
-3.880613e-002 
-7.498587e-003 
2.428953e-002 
5.585686e-002 
8.717129e-002 
1.154556e-001 
1.439520e-001 
1.748285e-001 
2.047287e-001 
2.325081e-001 
2.570352e-001 
2.772990e-001 
2.949999e-001 
3.114470e-001 
3.248322e-001 
3.355341e-001 
3.417095e-001 
3.433889e-001 
3.423358e-001 
3.392019e-001 
3.320062e-001 
3.210487e-001 
3.067029e-001 
2.895234e-001 
2.717756e-001 
2.541681e-001 
2.357481e-001 
2.150939e-001 
1.922794e-001 
1.684070e-001 
1.469265e-001 
1.281169e-001 
1.109860e-001 
9.529035e-002 
7.923210e-002 
6.352946e-002 
4.943560e-002 
3.770059e-002 
2.945558e-002 
2.280511e-002 
1.555288e-002 
9.009333e-003 
4.679797e-003 
1.826274e-003 
9.666187e-004 
-7.385635e-004 
-3.178113e-003 
-4.228905e-003 
-3.886614e-003 
-2.822792e-003 
-1.341695e-003 
-1.061520e-003 
-1.229579e-003 
-2.851960e-003 
-5.256154e-003 
-5.078801e-003 
-3.287372e-003 
-3.351484e-003 
-5.766048e-003 
-8.735123e-003 
-9.588655e-003 
-1.016685e-002 
-1.258409e-002 
-1.436451e-002 
-1.668062e-002 
-2.075866e-002 
-2.487003e-002 
-2.674728e-002 
-2.689878e-002 
-2.805361e-002 
-3.315649e-002 
-3.673155e-002 
-3.733862e-002 
-3.709661e-002 
-3.656814e-002 
-3.622614e-002 
-3.624885e-002 
-3.622666e-002 
-3.773216e-002 
-3.841363e-002 
-3.492575e-002 
-3.247496e-002 
-3.205657e-002 
-3.144816e-002 
-2.967007e-002 
-2.546581e-002 
-2.114626e-002 
-2.067649e-002 
-2.005919e-002 
-1.821142e-002 
-1.768091e-002 
-1.553320e-002 
-1.224157e-002 
-1.022939e-002 
-9.712309e-003 
-1.152300e-002 
-1.301860e-002 
-1.084732e-002 
-7.869595e-003 
-6.334237e-003 
-5.625808e-003 
-6.207405e-003 
-6.902752e-003 
-6.938911e-003 
-7.070252e-003 
-7.111659e-003 
-8.100938e-003 
-9.554399e-003 
-9.789519e-003 
-8.761719e-003 
-8.490928e-003 
-9.552463e-003 
-1.185463e-002 
-1.482239e-002 
-1.720064e-002 
-1.784826e-002 
-1.721298e-002 
-1.697090e-002 
-1.916770e-002 
-2.350133e-002 
-2.640004e-002 
-2.803567e-002 
-2.918721e-002 
-2.998646e-002 
-3.104296e-002 
-3.242306e-002 
-3.315905e-002 
-3.453410e-002 
-3.588737e-002 
-3.790683e-002 
-4.088593e-002 
-4.192773e-002 
-4.222118e-002 
-4.216569e-002 
-4.133132e-002 
-4.272057e-002 
-4.651630e-002 
-4.943833e-002 
-5.218480e-002 
-5.120637e-002 
-4.893513e-002 
-5.020362e-002 
-5.189819e-002 
-5.426339e-002 
-5.608987e-002 
-5.514698e-002 
-5.414322e-002 
-5.472143e-002 
-5.438852e-002 
-5.491119e-002 
-5.522282e-002 
-5.368650e-002 
-5.347333e-002 
-5.261370e-002 
-5.291811e-002 
-5.457911e-002 
-5.463105e-002 
-5.153271e-002 
-4.866093e-002 
-4.758780e-002 
-4.839280e-002 
-4.962665e-002 
-4.813921e-002 
-4.595089e-002 
-4.395096e-002 
-4.278711e-002 
-4.152884e-002 
-4.282603e-002 
-4.389494e-002 
-4.341856e-002 
-4.243498e-002 
-4.230635e-002 
-4.392205e-002 
-4.597870e-002 
-4.582058e-002 
-4.504873e-002 
-4.622952e-002 
-4.726127e-002 
-4.924955e-002 
-5.128694e-002 
-5.203989e-002 
-5.037290e-002 
-4.864812e-002 
-4.960079e-002 
-5.292890e-002 
-5.464226e-002 
-5.408376e-002 
-5.217364e-002 
-4.942629e-002 
-4.738738e-002 
-4.671060e-002 
-4.892961e-002 
-5.034696e-002 
-4.760271e-002 
-4.292654e-002 
-4.016762e-002 
-3.940518e-002 
-3.802591e-002 
-3.475967e-002 
-2.999031e-002 
-2.361113e-002 
-1.608415e-002 
-8.716349e-003 
-1.785436e-003 
4.646634e-003 
1.343128e-002 
2.402268e-002 
3.334695e-002 
4.165189e-002 
4.761839e-002 
5.185746e-002 
5.735707e-002 
6.257617e-002 
6.569122e-002 
6.808541e-002 
6.902274e-002 
7.017463e-002 
7.120585e-002 
7.110758e-002 
7.072341e-002 
7.030720e-002 
6.855218e-002 
6.653176e-002 
6.506972e-002 
6.175919e-002 
5.728331e-002 
5.338961e-002 
5.034955e-002 
4.753516e-002 
4.606770e-002 
4.370854e-002 
4.014436e-002 
3.423027e-002 
2.784610e-002 
2.525390e-002 
2.421661e-002 
2.054900e-002 
1.455363e-002 
7.322460e-003 
4.056481e-004 
-4.135383e-003 
-7.042536e-003 
-7.037947e-003 
-7.032932e-003 
-1.063118e-002 
-1.553404e-002 
-1.819906e-002 
-1.782971e-002 
-1.605737e-002 
-1.554511e-002 
-1.632225e-002 
-1.697984e-002 
-1.760711e-002 
-1.655908e-002 
-1.331887e-002 
-9.384600e-003 
-4.823462e-003 
6.593086e-004 
9.013219e-003 
2.204491e-002 
3.920775e-002 
6.221765e-002 
9.234716e-002 
1.279861e-001 
1.727911e-001 
2.316852e-001 
3.060066e-001 
3.965769e-001 
5.039290e-001 
6.301729e-001 
7.770427e-001 
9.417247e-001 
1.123390e+000 
1.326431e+000 
1.550956e+000 
1.787671e+000 
2.020457e+000 
2.231730e+000 
2.403001e+000 
2.521188e+000 
2.587278e+000 
2.614217e+000 
2.613656e+000 
2.584950e+000 
2.519530e+000 
2.411644e+000 
2.260092e+000 
2.067416e+000 
1.848064e+000 
1.620307e+000 
1.392357e+000 
1.162424e+000 
9.244405e-001 
6.821515e-001 
4.470508e-001 
2.286187e-001 
3.894294e-002 
-1.090537e-001 
-2.129443e-001 
-2.787942e-001 
-3.165734e-001 
-3.388933e-001 
-3.520377e-001 
-3.624419e-001 
-3.759989e-001 
-3.898343e-001 
-4.011973e-001 
-4.093446e-001 
-4.148809e-001 
-4.209118e-001 
-4.284992e-001 
-4.338791e-001 
-4.369955e-001 
-4.379432e-001 
-4.374163e-001 
-4.374259e-001 
-4.383017e-001 
-4.413087e-001 
-4.448949e-001 
-4.458257e-001 
-4.448617e-001 
-4.445039e-001 
-4.455998e-001 
-4.481411e-001 
-4.497817e-001 
-4.513448e-001 
-4.530952e-001 
-4.535892e-001 
-4.539335e-001 
-4.553450e-001 
-4.548392e-001 
-4.547103e-001 
-4.541341e-001 
-4.531459e-001 
-4.537602e-001 
-4.529513e-001 
-4.516560e-001 
-4.500042e-001 
-4.470056e-001 
-4.445032e-001 
-4.454848e-001 
-4.448520e-001 
-4.422238e-001 
-4.382210e-001 
-4.343628e-001 
-4.318286e-001 
-4.292992e-001 
-4.270040e-001 
-4.248258e-001 
-4.215248e-001 
-4.169811e-001 
-4.137438e-001 
-4.117459e-001 
-4.091824e-001 
-4.042004e-001 
-3.984878e-001 
-3.926774e-001 
-3.873847e-001 
-3.831643e-001 
-3.798681e-001 
-3.750237e-001 
-3.676350e-001 
-3.587334e-001 
-3.508115e-001 
-3.431170e-001 
-3.345433e-001 
-3.244971e-001 
-3.113507e-001 
-2.969001e-001 
-2.826633e-001 
-2.685143e-001 
-2.533293e-001 
-2.361050e-001 
-2.157325e-001 
-1.930856e-001 
-1.696456e-001 
-1.459741e-001 
-1.222619e-001 
-9.674303e-002 
-6.699897e-002 
-3.552557e-002 
-4.873330e-003 
2.658750e-002 
5.737620e-002 
8.703441e-002 
1.174820e-001 
1.480738e-001 
1.774794e-001 
2.061508e-001 
2.323774e-001 
2.573329e-001 
2.818057e-001 
3.014133e-001 
3.167801e-001 
3.288719e-001 
3.373770e-001 
3.438131e-001 
3.489385e-001 
3.492414e-001 
3.457647e-001 
3.381887e-001 
3.255832e-001 
3.122728e-001 
2.984473e-001 
2.823523e-001 
2.643432e-001 
2.440026e-001 
2.223171e-001 
2.031854e-001 
1.840873e-001 
1.647167e-001 
1.467306e-001 
1.275673e-001 
1.098503e-001 
9.556802e-002 
8.312355e-002 
7.340404e-002 
6.311672e-002 
5.082269e-002 
4.025570e-002 
3.243996e-002 
2.666654e-002 
2.307840e-002 
1.883926e-002 
1.388108e-002 
9.080299e-003 
2.913451e-003 
-1.412438e-003 
-3.872208e-003 
-6.722822e-003 
-1.151868e-002 
-1.544533e-002 
-1.818945e-002 
-2.031751e-002 
-2.330958e-002 
-2.689079e-002 
-3.039659e-002 
-3.414645e-002 
-3.671876e-002 
-3.825631e-002 
-3.856344e-002 
-4.175875e-002 
-4.692995e-002 
-5.118972e-002 
-5.406300e-002 
-5.582809e-002 
-5.732042e-002 
-5.980983e-002 
-6.422161e-002 
-6.915775e-002 
-7.325745e-002 
-7.497630e-002 
-7.666122e-002 
-7.911338e-002 
-8.226813e-002 
-8.650437e-002 
-9.006427e-002 
-9.197215e-002 
-9.247554e-002 
-9.338398e-002 
-9.540624e-002 
-9.780008e-002 
-9.893637e-002 
-9.976513e-002 
-1.014829e-001 
-1.024195e-001 
-1.023471e-001 
-1.021099e-001 
-1.007820e-001 
-9.848997e-002 
-9.680101e-002 
-9.593800e-002 
-9.551387e-002 
-9.465800e-002 
-9.122691e-002 
-8.682499e-002 
-8.300183e-002 
-8.088882e-002 
-8.015590e-002 
-7.885512e-002 
-7.506229e-002 
-6.964059e-002 
-6.547309e-002 
-6.339365e-002 
-6.264855e-002 
-6.259072e-002 
-6.165069e-002 
-5.920413e-002 
-5.702507e-002 
-5.650368e-002 
-5.834655e-002 
-6.072175e-002 
-6.083769e-002 
-5.946652e-002 
-5.839966e-002 
-5.908327e-002 
-6.204811e-002 
-6.438620e-002 
-6.675843e-002 
-6.802733e-002 
-6.762071e-002 
-6.926864e-002 
-7.304010e-002 
-7.545635e-002 
-7.754615e-002 
-7.771298e-002 
-7.693539e-002 
-7.917939e-002 
-8.233482e-002 
-8.677980e-002 
-9.109149e-002 
-9.182880e-002 
-9.199788e-002 
-9.518468e-002 
-9.766980e-002 
-1.003215e-001 
-1.014533e-001 
-1.015590e-001 
-1.022838e-001 
-1.023278e-001 
-1.034711e-001 
-1.068768e-001 
-1.084016e-001 
-1.072397e-001 
-1.061054e-001 
-1.058175e-001 
-1.102239e-001 
-1.137094e-001 
-1.142097e-001 
-1.126636e-001 
-1.107765e-001 
-1.094706e-001 
-1.096541e-001 
-1.114724e-001 
-1.141467e-001 
-1.157689e-001 
-1.141625e-001 
-1.129107e-001 
-1.126400e-001 
-1.141766e-001 
-1.153266e-001 
-1.157640e-001 
-1.157115e-001 
-1.161732e-001 
-1.173474e-001 
-1.181604e-001 
-1.189245e-001 
-1.185585e-001 
-1.188197e-001 
-1.197827e-001 
-1.203747e-001 
-1.200063e-001 
-1.203728e-001 
-1.197756e-001 
-1.177773e-001 
-1.167703e-001 
-1.163249e-001 
-1.156345e-001 
-1.135994e-001 
-1.091976e-001 
-1.054548e-001 
-1.047889e-001 
-1.033772e-001 
-1.005721e-001 
-9.896834e-002 
-9.624991e-002 
-9.339913e-002 
-9.327299e-002 
-9.439989e-002 
-9.669851e-002 
-9.780689e-002 
-9.566199e-002 
-9.558872e-002 
-9.780629e-002 
-9.864903e-002 
-1.012153e-001 
-1.031289e-001 
-1.037566e-001 
-1.044627e-001 
-1.055766e-001 
-1.082818e-001 
-1.111653e-001 
-1.105037e-001 
-1.085880e-001 
-1.074199e-001 
-1.067881e-001 
-1.064828e-001 
-1.048754e-001 
-1.026121e-001 
-9.898142e-002 
-9.430243e-002 
-9.053979e-002 
-8.866919e-002 
-8.716893e-002 
-8.236531e-002 
-7.401767e-002 
-6.789915e-002 
-6.312619e-002 
-5.757565e-002 
-5.147121e-002 
-4.474418e-002 
-3.782934e-002 
-2.939161e-002 
-1.923887e-002 
-1.365040e-002 
-9.808337e-003 
-2.052662e-003 
6.328175e-003 
1.293085e-002 
1.604969e-002 
1.758540e-002 
2.030086e-002 
2.192070e-002 
2.212841e-002 
2.371956e-002 
2.404635e-002 
2.078507e-002 
1.691287e-002 
1.457922e-002 
1.522673e-002 
1.660730e-002 
1.632003e-002 
1.469568e-002 
1.294944e-002 
1.189681e-002 
1.201144e-002 
1.280664e-002 
1.327513e-002 
1.333095e-002 
1.208095e-002 
1.079292e-002 
8.690074e-003 
7.231511e-003 
5.097698e-003 
1.314603e-003 
-3.111172e-003 
-5.391676e-003 
-6.855091e-003 
-1.017772e-002 
-1.581048e-002 
-2.259851e-002 
-2.728172e-002 
-3.115948e-002 
-3.408144e-002 
-3.610903e-002 
-3.777991e-002 
-4.118149e-002 
-4.499328e-002 
-4.618059e-002 
-4.502175e-002 
-4.503784e-002 
-4.887345e-002 
-5.304430e-002 
-5.625099e-002 
-5.733847e-002 
-5.640220e-002 
-5.388812e-002 
-5.223459e-002 
-5.450139e-002 
-5.760784e-002 
-5.752494e-002 
-5.257696e-002 
-4.642166e-002 
-4.139594e-002 
-3.756985e-002 
-3.366779e-002 
-2.946080e-002 
-2.134636e-002 
-7.813446e-003 
9.103078e-003 
2.905327e-002 
5.207624e-002 
7.887271e-002 
1.122270e-001 
1.519555e-001 
1.975392e-001 
2.536928e-001 
3.227990e-001 
4.074808e-001 
5.082741e-001 
6.226528e-001 
7.488269e-001 
8.878754e-001 
1.041085e+000 
1.212529e+000 
1.405717e+000 
1.615101e+000 
1.828170e+000 
2.031145e+000 
2.211492e+000 
2.355390e+000 
2.454466e+000 
2.509768e+000 
2.529273e+000 
2.517191e+000 
2.471117e+000 
2.389766e+000 
2.273451e+000 
2.121277e+000 
1.932454e+000 
1.720009e+000 
1.501918e+000 
1.284734e+000 
1.064576e+000 
8.397503e-001 
6.127175e-001 
3.905143e-001 
1.832716e-001 
3.830024e-003 
-1.338988e-001 
-2.299102e-001 
-2.943311e-001 
-3.363512e-001 
-3.614464e-001 
-3.773656e-001 
-3.887107e-001 
-3.984002e-001 
-4.068551e-001 
-4.158991e-001 
-4.265925e-001 
-4.365239e-001 
-4.446004e-001 
-4.512292e-001 
-4.590227e-001 
-4.658344e-001 
-4.691365e-001 
-4.693643e-001 
-4.701736e-001 
-4.711713e-001 
-4.732691e-001 
-4.764434e-001 
-4.785826e-001 
-4.790482e-001 
-4.789170e-001 
-4.789114e-001 
-4.793021e-001 
-4.813423e-001 
-4.832282e-001 
-4.835305e-001 
-4.811593e-001 
-4.782092e-001 
-4.788553e-001 
-4.821756e-001 
-4.826335e-001 
-4.802931e-001 
-4.770734e-001 
-4.741804e-001 
-4.734504e-001 
-4.748126e-001 
-4.774056e-001 
-4.802371e-001 
-4.799031e-001 
-4.773817e-001 
-4.751647e-001 
-4.744044e-001 
-4.761786e-001 
-4.781965e-001 
-4.770743e-001 
-4.763171e-001 
-4.768848e-001 
-4.773380e-001 
-4.779845e-001 
-4.765100e-001 
-4.744340e-001 
-4.727245e-001 
-4.697616e-001 
-4.672667e-001 
-4.671005e-001 
-4.650106e-001 
-4.617865e-001 
-4.570976e-001 
-4.519131e-001 
-4.493635e-001 
-4.471007e-001 
-4.427960e-001 
-4.393733e-001 
-4.349231e-001 
-4.288218e-001 
-4.231041e-001 
-4.156618e-001 
-4.084115e-001 
-4.010188e-001 
-3.914043e-001 
-3.815618e-001 
-3.715932e-001 
-3.588271e-001 
-3.445892e-001 
-3.281429e-001 
-3.097488e-001 
-2.916407e-001 
-2.721147e-001 
-2.500557e-001 
-2.251217e-001 
-1.991833e-001 
-1.728535e-001 
-1.452775e-001 
-1.161905e-001 
-8.589303e-002 
-5.409174e-002 
-2.044368e-002 
1.234079e-002 
4.300342e-002 
7.243614e-002 
1.036618e-001 
1.351440e-001 
1.650927e-001 
1.914792e-001 
2.126670e-001 
2.293733e-001 
2.427799e-001 
2.562733e-001 
2.705238e-001 
2.815275e-001 
2.853823e-001 
2.832656e-001 
2.761197e-001 
2.671674e-001 
2.580955e-001 
2.477511e-001 
2.351016e-001 
2.196065e-001 
2.004101e-001 
1.794416e-001 
1.595677e-001 
1.398069e-001 
1.210674e-001 
1.025938e-001 
8.458004e-002 
6.877674e-002 
5.548593e-002 
4.218580e-002 
2.823642e-002 
1.332227e-002 
-7.547132e-004 
-1.066710e-002 
-1.758080e-002 
-2.264775e-002 
-2.704738e-002 
-3.168347e-002 
-3.703393e-002 
-4.158587e-002 
-4.485026e-002 
-4.694541e-002 
-4.826395e-002 
-5.047669e-002 
-5.273478e-002 
-5.451654e-002 
-5.626037e-002 
-5.838256e-002 
-6.182626e-002 
-6.655673e-002 
-7.099522e-002 
-7.329351e-002 
-7.370884e-002 
-7.474473e-002 
-7.903629e-002 
-8.535503e-002 
-9.192406e-002 
-9.800948e-002 
-1.024193e-001 
-1.055527e-001 
-1.070688e-001 
-1.097500e-001 
-1.140854e-001 
-1.170595e-001 
-1.185611e-001 
-1.192549e-001 
-1.214062e-001 
-1.251106e-001 
-1.273877e-001 
-1.274680e-001 
-1.277800e-001 
-1.268501e-001 
-1.258072e-001 
-1.265506e-001 
-1.271647e-001 
-1.280902e-001 
-1.279914e-001 
-1.269855e-001 
-1.266317e-001 
-1.268913e-001 
-1.260479e-001 
-1.242274e-001 
-1.231586e-001 
-1.220469e-001 
-1.219382e-001 
-1.223729e-001 
-1.219296e-001 
-1.183774e-001 
-1.130113e-001 
-1.088687e-001 
-1.077235e-001 
-1.086575e-001 
-1.086211e-001 
-1.084143e-001 
-1.062324e-001 
-1.032169e-001 
-9.966064e-002 
-9.858762e-002 
-9.965119e-002 
-9.965154e-002 
-9.827927e-002 
-9.789341e-002 
-9.906942e-002 
-9.956031e-002 
-1.010938e-001 
-1.003161e-001 
-9.877391e-002 
-9.786004e-002 
-9.875633e-002 
-1.002841e-001 
-1.017145e-001 
-1.016397e-001 
-1.005419e-001 
-9.987950e-002 
-9.774709e-002 
-9.788199e-002 
-1.000602e-001 
-1.000250e-001 
-9.670004e-002 
-9.546123e-002 
-9.539754e-002 
-9.600279e-002 
-9.603290e-002 
-9.419987e-002 
-9.355176e-002 
-9.257438e-002 
-9.074487e-002 
-9.182806e-002 
-9.536333e-002 
-9.668337e-002 
-9.637218e-002 
-9.579281e-002 
-9.636951e-002 
-9.794930e-002 
-9.897806e-002 
-1.000726e-001 
-1.015285e-001 
-1.025114e-001 
-1.028588e-001 
-1.038862e-001 
-1.050998e-001 
-1.049289e-001 
-1.032628e-001 
-1.024045e-001 
-1.033662e-001 
-1.054247e-001 
-1.065193e-001 
-1.057187e-001 
-1.043441e-001 
-1.035538e-001 
-1.040383e-001 
-1.045037e-001 
-1.058401e-001 
-1.078556e-001 
-1.075371e-001 
-1.050921e-001 
-1.044637e-001 
-1.057351e-001 
-1.076847e-001 
-1.065981e-001 
-1.043676e-001 
-1.044599e-001 
-1.050632e-001 
-1.043914e-001 
-1.035953e-001 
-1.027608e-001 
-1.006259e-001 
-9.833817e-002 
-9.683810e-002 
-9.765251e-002 
-9.807986e-002 
-9.690333e-002 
-9.383292e-002 
-9.213957e-002 
-9.145134e-002 
-9.232546e-002 
-9.461460e-002 
-9.464372e-002 
-9.175978e-002 
-8.928382e-002 
-8.824080e-002 
-8.832608e-002 
-9.017766e-002 
-8.938458e-002 
-8.871701e-002 
-8.868869e-002 
-8.710270e-002 
-8.643995e-002 
-8.839020e-002 
-8.866406e-002 
-8.787769e-002 
-8.642309e-002 
-8.435721e-002 
-8.579114e-002 
-8.676323e-002 
-8.509560e-002 
-8.379266e-002 
-8.367634e-002 
-8.303881e-002 
-8.393923e-002 
-8.457479e-002 
-8.439960e-002 
-8.386822e-002 
-8.143063e-002 
-7.893041e-002 
-7.805740e-002 
-7.617500e-002 
-7.293302e-002 
-6.958192e-002 
-6.497142e-002 
-6.149265e-002 
-5.912269e-002 
-5.457810e-002 
-4.783758e-002 
-4.104373e-002 
-3.381811e-002 
-2.805211e-002 
-2.258332e-002 
-1.644208e-002 
-1.110775e-002 
-5.046772e-003 
9.456937e-004 
2.869245e-003 
1.732504e-003 
1.015213e-003 
7.785163e-004 
1.685147e-003 
1.380462e-003 
-7.582105e-004 
-3.844395e-003 
-7.399537e-003 
-8.815856e-003 
-8.653123e-003 
-8.347064e-003 
-9.517898e-003 
-1.228228e-002 
-1.544585e-002 
-1.672633e-002 
-1.627053e-002 
-1.528738e-002 
-1.610187e-002 
-2.035946e-002 
-2.447607e-002 
-2.849359e-002 
-3.071371e-002 
-3.221546e-002 
-3.482346e-002 
-3.992550e-002 
-4.699495e-002 
-5.455748e-002 
-6.038574e-002 
-6.580960e-002 
-7.199696e-002 
-7.728411e-002 
-8.377464e-002 
-8.922021e-002 
-9.356339e-002 
-9.665986e-002 
-9.886464e-002 
-1.003322e-001 
-1.021710e-001 
-1.026307e-001 
-1.029157e-001 
-1.035313e-001 
-1.035284e-001 
-1.041722e-001 
-1.043074e-001 
-1.037724e-001 
-1.025376e-001 
-1.016518e-001 
-1.011377e-001 
-1.004971e-001 
-9.691576e-002 
-9.088654e-002 
-8.319261e-002 
-7.511754e-002 
-6.726664e-002 
-5.573275e-002 
-3.907025e-002 
-1.499086e-002 
1.726130e-002 
5.540881e-002 
9.610758e-002 
1.449054e-001 
2.070326e-001 
2.869339e-001 
3.857828e-001 
4.998882e-001 
6.298646e-001 
7.737540e-001 
9.308644e-001 
1.107531e+000 
1.312434e+000 
1.536140e+000 
1.761739e+000 
1.968611e+000 
2.140150e+000 
2.263984e+000 
2.337219e+000 
2.372433e+000 
2.381432e+000 
2.365418e+000 
2.315944e+000 
2.228000e+000 
2.098041e+000 
1.927830e+000 
1.725018e+000 
1.511995e+000 
1.301355e+000 
1.088311e+000 
8.688603e-001 
6.424909e-001 
4.144494e-001 
1.956099e-001 
6.785035e-004 
-1.544365e-001 
-2.611823e-001 
-3.311077e-001 
-3.750638e-001 
-4.018473e-001 
-4.188040e-001 
-4.291553e-001 
-4.373294e-001 
-4.474385e-001 
-4.589067e-001 
-4.703241e-001 
-4.815016e-001 
-4.901877e-001 
-4.977763e-001 
-5.038851e-001 
-5.074584e-001 
-5.106121e-001 
-5.152973e-001 
-5.180641e-001 
-5.188691e-001 
-5.204686e-001 
-5.225838e-001 
-5.258735e-001 
-5.289725e-001 
-5.292605e-001 
-5.293748e-001 
-5.321012e-001 
-5.351709e-001 
-5.393621e-001 
-5.436068e-001 
-5.449982e-001 
-5.447265e-001 
-5.448203e-001 
-5.452707e-001 
-5.481600e-001 
-5.513411e-001 
-5.517058e-001 
-5.507160e-001 
-5.493621e-001 
-5.479106e-001 
-5.477988e-001 
-5.482404e-001 
-5.456384e-001 
-5.415028e-001 
-5.380862e-001 
-5.358940e-001 
-5.346841e-001 
-5.329003e-001 
-5.288616e-001 
-5.237555e-001 
-5.185749e-001 
-5.125980e-001 
-5.089893e-001 
-5.068350e-001 
-5.027603e-001 
-4.966888e-001 
-4.896604e-001 
-4.837215e-001 
-4.797954e-001 
-4.746762e-001 
-4.667023e-001 
-4.596922e-001 
-4.526508e-001 
-4.456651e-001 
-4.374366e-001 
-4.274417e-001 
-4.170000e-001 
-4.039858e-001 
-3.878937e-001 
-3.732495e-001 
-3.604858e-001 
-3.455916e-001 
-3.277915e-001 
-3.061203e-001 
-2.834260e-001 
-2.619055e-001 
-2.392296e-001 
-2.143457e-001 
-1.889773e-001 
-1.615508e-001 
-1.324098e-001 
-1.030472e-001 
-7.339994e-002 
-4.267473e-002 
-1.030844e-002 
2.366584e-002 
5.742347e-002 
8.767127e-002 
1.163675e-001 
1.459631e-001 
1.754267e-001 
2.037877e-001 
2.317216e-001 
2.544375e-001 
2.734153e-001 
2.902987e-001 
3.039716e-001 
3.174486e-001 
3.283953e-001 
3.328889e-001 
3.336179e-001 
3.314145e-001 
3.258080e-001 
3.198053e-001 
3.093080e-001 
2.954691e-001 
2.804578e-001 
2.630526e-001 
2.450037e-001 
2.288475e-001 
2.113934e-001 
1.922095e-001 
1.711591e-001 
1.503839e-001 
1.327865e-001 
1.172117e-001 
1.023306e-001 
8.719235e-002 
7.252861e-002 
5.829714e-002 
4.683159e-002 
3.759100e-002 
2.936653e-002 
2.110384e-002 
1.411503e-002 
7.338917e-003 
1.832496e-003 
-1.338362e-003 
-3.948927e-003 
-7.636065e-003 
-1.253434e-002 
-1.657092e-002 
-1.806612e-002 
-1.773659e-002 
-1.841943e-002 
-1.983431e-002 
-2.192043e-002 
-2.493143e-002 
-2.665340e-002 
-2.656418e-002 
-2.716198e-002 
-2.841914e-002 
-3.079764e-002 
-3.390190e-002 
-3.601614e-002 
-3.748134e-002 
-3.934531e-002 
-4.163112e-002 
-4.553743e-002 
-5.031907e-002 
-5.248478e-002 
-5.414261e-002 
-5.614835e-002 
-5.902657e-002 
-6.263562e-002 
-6.639676e-002 
-6.814532e-002 
-6.937926e-002 
-7.072029e-002 
-7.120998e-002 
-7.254441e-002 
-7.296957e-002 
-7.232656e-002 
-7.081600e-002 
-7.016731e-002 
-7.060465e-002 
-7.256325e-002 
-7.253535e-002 
-6.987242e-002 
-6.665064e-002 
-6.326163e-002 
-6.238492e-002 
-6.320960e-002 
-6.450917e-002 
-6.461824e-002 
-6.267879e-002 
-5.909467e-002 
-5.702728e-002 
-5.669072e-002 
-5.615525e-002 
-5.650564e-002 
-5.553085e-002 
-5.404342e-002 
-5.386517e-002 
-5.365290e-002 
-5.222982e-002 
-5.119197e-002 
-4.911107e-002 
-4.818033e-002 
-4.997504e-002 
-5.143982e-002 
-5.339898e-002 
-5.373708e-002 
-5.124360e-002 
-4.933187e-002 
-5.030187e-002 
-5.321620e-002 
-5.735391e-002 
-5.845746e-002 
-5.860513e-002 
-5.971744e-002 
-5.939825e-002 
-5.984196e-002 
-6.239841e-002 
-6.564173e-002 
-6.799851e-002 
-6.882460e-002 
-7.035145e-002 
-7.389535e-002 
-7.575690e-002 
-7.574330e-002 
-7.653127e-002 
-7.873121e-002 
-8.161820e-002 
-8.407659e-002 
-8.628299e-002 
-8.777337e-002 
-8.686647e-002 
-8.646007e-002 
-8.808802e-002 
-9.032160e-002 
-9.208809e-002 
-9.296122e-002 
-9.189507e-002 
-9.061933e-002 
-9.033736e-002 
-8.998517e-002 
-9.094717e-002 
-9.074904e-002 
-8.849295e-002 
-8.748540e-002 
-8.749146e-002 
-8.684024e-002 
-8.753606e-002 
-8.705549e-002 
-8.471069e-002 
-8.472638e-002 
-8.391258e-002 
-8.310653e-002 
-8.288606e-002 
-8.060674e-002 
-7.793688e-002 
-7.757876e-002 
-7.676817e-002 
-7.714169e-002 
-7.667314e-002 
-7.239566e-002 
-6.838580e-002 
-6.608641e-002 
-6.531474e-002 
-6.549026e-002 
-6.531862e-002 
-6.297357e-002 
-6.079830e-002 
-5.784084e-002 
-5.566810e-002 
-5.583415e-002 
-5.621029e-002 
-5.494729e-002 
-5.175241e-002 
-4.951090e-002 
-5.078439e-002 
-5.205950e-002 
-5.037910e-002 
-4.751199e-002 
-4.504117e-002 
-4.316060e-002 
-4.319537e-002 
-4.342603e-002 
-4.506077e-002 
-4.602943e-002 
-4.242143e-002 
-3.887246e-002 
-3.882039e-002 
-4.000360e-002 
-4.061201e-002 
-4.003424e-002 
-3.634798e-002 
-3.393063e-002 
-3.206751e-002 
-2.875281e-002 
-2.591623e-002 
-2.143009e-002 
-1.458463e-002 
-8.405175e-003 
-2.997114e-003 
2.100515e-003 
6.384626e-003 
1.409106e-002 
2.331412e-002 
3.117071e-002 
3.933267e-002 
4.558548e-002 
5.023212e-002 
5.505327e-002 
5.969402e-002 
6.284842e-002 
6.354405e-002 
6.174224e-002 
6.140650e-002 
6.205457e-002 
6.159812e-002 
5.981786e-002 
5.721463e-002 
5.460596e-002 
5.167902e-002 
5.063289e-002 
5.183030e-002 
5.225080e-002 
4.916605e-002 
4.521030e-002 
4.198809e-002 
4.004473e-002 
3.870301e-002 
3.615169e-002 
3.224146e-002 
2.737835e-002 
2.240460e-002 
1.827582e-002 
1.701322e-002 
1.466027e-002 
8.046525e-003 
-8.175982e-004 
-9.370418e-003 
-1.471264e-002 
-1.764342e-002 
-2.167051e-002 
-2.692949e-002 
-3.125470e-002 
-3.708994e-002 
-4.186095e-002 
-4.384791e-002 
-4.307246e-002 
-4.221969e-002 
-4.459986e-002 
-4.794026e-002 
-4.886479e-002 
-4.831773e-002 
-4.952507e-002 
-5.149450e-002 
-5.315433e-002 
-5.441240e-002 
-5.606064e-002 
-5.640607e-002 
-5.472579e-002 
-5.281754e-002 
-5.210408e-002 
-5.153488e-002 
-4.844454e-002 
-4.363184e-002 
-3.905004e-002 
-3.190506e-002 
-2.034265e-002 
-3.987966e-003 
1.869332e-002 
4.726290e-002 
8.125202e-002 
1.219352e-001 
1.706825e-001 
2.340196e-001 
3.175767e-001 
4.201285e-001 
5.385964e-001 
6.702708e-001 
8.160316e-001 
9.787154e-001 
1.162090e+000 
1.370376e+000 
1.599304e+000 
1.834659e+000 
2.059949e+000 
2.255911e+000 
2.408884e+000 
2.512967e+000 
2.570565e+000 
2.593302e+000 
2.586891e+000 
2.546072e+000 
2.467482e+000 
2.348937e+000 
2.186855e+000 
1.987329e+000 
1.766030e+000 
1.538824e+000 
1.312659e+000 
1.084527e+000 
8.489097e-001 
6.100158e-001 
3.779156e-001 
1.634903e-001 
-1.836465e-002 
-1.556811e-001 
-2.514947e-001 
-3.125850e-001 
-3.496821e-001 
-3.733337e-001 
-3.872796e-001 
-3.972319e-001 
-4.082528e-001 
-4.204332e-001 
-4.321626e-001 
-4.433116e-001 
-4.497166e-001 
-4.537229e-001 
-4.582134e-001 
-4.633268e-001 
-4.676888e-001 
-4.701527e-001 
-4.704258e-001 
-4.684046e-001 
-4.667304e-001 
-4.655227e-001 
-4.663677e-001 
-4.681854e-001 
-4.675354e-001 
-4.654241e-001 
-4.648792e-001 
-4.652469e-001 
-4.657884e-001 
-4.667672e-001 
-4.665995e-001 
-4.648257e-001 
-4.623730e-001 
-4.614752e-001 
-4.632297e-001 
-4.644411e-001 
-4.636256e-001 
-4.622202e-001 
-4.611443e-001 
-4.608266e-001 
-4.612023e-001 
-4.620504e-001 
-4.621946e-001 
-4.600762e-001 
-4.578906e-001 
-4.584582e-001 
-4.594914e-001 
-4.591593e-001 
-4.579399e-001 
-4.549823e-001 
-4.520903e-001 
-4.499573e-001 
-4.481900e-001 
-4.471550e-001 
-4.451220e-001 
-4.401310e-001 
-4.337381e-001 
-4.281675e-001 
-4.237759e-001 
-4.196773e-001 
-4.136642e-001 
-4.061783e-001 
-4.010602e-001 
-3.973832e-001 
-3.916227e-001 
-3.846356e-001 
-3.769919e-001 
-3.684660e-001 
-3.593263e-001 
-3.499445e-001 
-3.409211e-001 
-3.326183e-001 
-3.203446e-001 
-3.049174e-001 
-2.895768e-001 
-2.740577e-001 
-2.590688e-001 
-2.425367e-001 
-2.215523e-001 
-1.997484e-001 
-1.770333e-001 
-1.525900e-001 
-1.281350e-001 
-1.011660e-001 
-7.080749e-002 
-4.067709e-002 
-1.014513e-002 
2.063537e-002 
5.033933e-002 
8.167491e-002 
1.144750e-001 
1.484170e-001 
1.827136e-001 
2.133116e-001 
2.376856e-001 
2.619892e-001 
2.867280e-001 
3.089950e-001 
3.274524e-001 
3.410627e-001 
3.506212e-001 
3.569807e-001 
3.587919e-001 
3.591487e-001 
3.574686e-001 
3.491121e-001 
3.366844e-001 
3.227177e-001 
3.063249e-001 
2.887564e-001 
2.688253e-001 
2.468842e-001 
2.250394e-001 
2.014514e-001 
1.785079e-001 
1.596316e-001 
1.417468e-001 
1.205662e-001 
1.001297e-001 
8.216006e-002 
6.719734e-002 
5.443910e-002 
4.165080e-002 
2.943920e-002 
2.101869e-002 
1.200916e-002 
2.645372e-003 
-2.817631e-003 
-7.618655e-003 
-1.266256e-002 
-1.826009e-002 
-2.355697e-002 
-2.523061e-002 
-2.531149e-002 
-2.966059e-002 
-3.573333e-002 
-4.131222e-002 
-4.565594e-002 
-4.800526e-002 
-4.987845e-002 
-5.218617e-002 
-5.585222e-002 
-6.257820e-002 
-7.081877e-002 
-7.633700e-002 
-7.767746e-002 
-7.872568e-002 
-8.194906e-002 
-8.703632e-002 
-9.271510e-002 
-9.782809e-002 
-1.021745e-001 
-1.062884e-001 
-1.093101e-001 
-1.114198e-001 
-1.139763e-001 
-1.156460e-001 
-1.170447e-001 
-1.186953e-001 
-1.210228e-001 
-1.227432e-001 
-1.230049e-001 
-1.214466e-001 
-1.175761e-001 
-1.157893e-001 
-1.167155e-001 
-1.182055e-001 
-1.194376e-001 
-1.183553e-001 
-1.134405e-001 
-1.082617e-001 
-1.043078e-001 
-1.014560e-001 
-1.013489e-001 
-9.855465e-002 
-9.475734e-002 
-9.225303e-002 
-8.971077e-002 
-8.666595e-002 
-8.420434e-002 
-8.127609e-002 
-7.774013e-002 
-7.470275e-002 
-7.181792e-002 
-7.191773e-002 
-7.214413e-002 
-6.968326e-002 
-6.524821e-002 
-6.298860e-002 
-6.351904e-002 
-6.599616e-002 
-6.805057e-002 
-6.871865e-002 
-6.961271e-002 
-6.928031e-002 
-6.954114e-002 
-7.145647e-002 
-7.485396e-002 
-7.734717e-002 
-7.838746e-002 
-7.892221e-002 
-8.220101e-002 
-8.654432e-002 
-8.956891e-002 
-9.165643e-002 
-9.163769e-002 
-9.280265e-002 
-9.464706e-002 
-9.791986e-002 
-1.016464e-001 
-1.043167e-001 
-1.048702e-001 
-1.048804e-001 
-1.044902e-001 
-1.058600e-001 
-1.095608e-001 
-1.112648e-001 
-1.112803e-001 
-1.097437e-001 
-1.094309e-001 
-1.099201e-001 
-1.098164e-001 
-1.098444e-001 
-1.112405e-001 
-1.127088e-001 
-1.132374e-001 
-1.137721e-001 
-1.143407e-001 
-1.145496e-001 
-1.135423e-001 
-1.139134e-001 
-1.164175e-001 
-1.187843e-001 
-1.206033e-001 
-1.201352e-001 
-1.186216e-001 
-1.184157e-001 
-1.191324e-001 
-1.204485e-001 
-1.207015e-001 
-1.181949e-001 
-1.162955e-001 
-1.159598e-001 
-1.155898e-001 
-1.169061e-001 
-1.171188e-001 
-1.154616e-001 
-1.126660e-001 
-1.087989e-001 
-1.089996e-001 
-1.124749e-001 
-1.143043e-001 
-1.144948e-001 
-1.142102e-001 
-1.133167e-001 
-1.139411e-001 
-1.153067e-001 
-1.174298e-001 
-1.207717e-001 
-1.207422e-001 
-1.197800e-001 
-1.204555e-001 
-1.219354e-001 
-1.220011e-001 
-1.207989e-001 
-1.198333e-001 
-1.194856e-001 
-1.199013e-001 
-1.204607e-001 
-1.210898e-001 
-1.197920e-001 
-1.168425e-001 
-1.131539e-001 
-1.112570e-001 
-1.109352e-001 
-1.104207e-001 
-1.102120e-001 
-1.084589e-001 
-1.057174e-001 
-1.035795e-001 
-1.021708e-001 
-9.981756e-002 
-9.542945e-002 
-9.066856e-002 
-8.785267e-002 
-8.529989e-002 
-8.135709e-002 
-7.721768e-002 
-7.196755e-002 
-6.562996e-002 
-5.819308e-002 
-5.105314e-002 
-4.742984e-002 
-4.366646e-002 
-3.670768e-002 
-3.023107e-002 
-2.498939e-002 
-2.115302e-002 
-1.868297e-002 
-1.665828e-002 
-1.523015e-002 
-1.456458e-002 
-1.446891e-002 
-1.624520e-002 
-1.901524e-002 
-2.018720e-002 
-1.981030e-002 
-1.935215e-002 
-2.002022e-002 
-2.188651e-002 
-2.572720e-002 
-2.953378e-002 
-3.023553e-002 
-2.952236e-002 
-2.968712e-002 
-3.170362e-002 
-3.593597e-002 
-4.082662e-002 
-4.494717e-002 
-4.710433e-002 
-4.837779e-002 
-5.092987e-002 
-5.461332e-002 
-5.798948e-002 
-6.151480e-002 
-6.545879e-002 
-7.093429e-002 
-7.593543e-002 
-8.036483e-002 
-8.624525e-002 
-8.936230e-002 
-9.012816e-002 
-9.143303e-002 
-9.447038e-002 
-9.865184e-002 
-1.008013e-001 
-9.871478e-002 
-9.730335e-002 
-9.677404e-002 
-9.695406e-002 
-9.919073e-002 
-1.016571e-001 
-1.047032e-001 
-1.047047e-001 
-1.017647e-001 
-1.002871e-001 
-9.939244e-002 
-9.623747e-002 
-9.226222e-002 
-8.681263e-002 
-8.136445e-002 
-7.417264e-002 
-6.184412e-002 
-4.652178e-002 
-2.494952e-002 
4.671483e-003 
3.808289e-002 
7.549083e-002 
1.214200e-001 
1.809777e-001 
2.579808e-001 
3.527974e-001 
4.631329e-001 
5.887539e-001 
7.280141e-001 
8.812618e-001 
1.054354e+000 
1.251946e+000 
1.470229e+000 
1.697158e+000 
1.915547e+000 
2.102941e+000 
2.241366e+000 
2.324122e+000 
2.360377e+000 
2.366405e+000 
2.351249e+000 
2.312116e+000 
2.241358e+000 
2.128888e+000 
1.966719e+000 
1.762201e+000 
1.541251e+000 
1.324037e+000 
1.112083e+000 
8.986887e-001 
6.764398e-001 
4.464440e-001 
2.178025e-001 
7.208758e-003 
-1.627605e-001 
-2.799079e-001 
-3.536722e-001 
-3.974835e-001 
-4.236926e-001 
-4.412232e-001 
-4.530684e-001 
-4.636679e-001 
-4.741204e-001 
-4.850281e-001 
-4.971001e-001 
-5.077007e-001 
-5.152911e-001 
-5.209813e-001 
-5.231816e-001 
-5.237612e-001 
-5.251377e-001 
-5.260299e-001 
-5.282380e-001 
-5.289350e-001 
-5.289088e-001 
-5.314236e-001 
-5.329857e-001 
-5.319480e-001 
-5.309154e-001 
-5.295055e-001 
-5.289213e-001 
-5.303285e-001 
-5.313001e-001 
-5.318920e-001 
-5.307146e-001 
-5.273656e-001 
-5.253981e-001 
-5.261390e-001 
-5.276586e-001 
-5.293344e-001 
-5.295110e-001 
-5.272628e-001 
-5.239141e-001 
-5.218550e-001 
-5.209389e-001 
-5.204448e-001 
-5.195868e-001 
-5.175950e-001 
-5.152299e-001 
-5.151184e-001 
-5.153408e-001 
-5.140259e-001 
-5.121641e-001 
-5.084990e-001 
-5.044841e-001 
-5.010211e-001 
-4.979319e-001 
-4.966217e-001 
-4.950689e-001 
-4.898927e-001 
-4.858597e-001 
-4.830757e-001 
-4.781958e-001 
-4.731179e-001 
-4.676136e-001 
-4.615818e-001 
-4.553075e-001 
-4.478703e-001 
-4.410088e-001 
-4.346015e-001 
-4.235613e-001 
-4.098193e-001 
-3.986941e-001 
-3.888925e-001 
-3.778486e-001 
-3.642488e-001 
-3.483490e-001 
-3.304035e-001 
-3.101516e-001 
-2.877617e-001 
-2.660250e-001 
-2.451343e-001 
-2.209019e-001 
-1.928090e-001 
-1.643932e-001 
-1.363754e-001 
-1.073419e-001 
-7.771644e-002 
-4.607973e-002 
-1.465262e-002 
1.548119e-002 
4.524812e-002 
7.423455e-002 
1.021642e-001 
1.304432e-001 
1.563369e-001 
1.782145e-001 
1.973242e-001 
2.113865e-001 
2.226465e-001 
2.334220e-001 
2.428186e-001 
2.475457e-001 
2.458466e-001 
2.377784e-001 
2.294013e-001 
2.200314e-001 
2.078089e-001 
1.949591e-001 
1.803071e-001 
1.626638e-001 
1.425186e-001 
1.213917e-001 
1.027959e-001 
8.659822e-002 
6.643061e-002 
4.729068e-002 
3.135009e-002 
1.657483e-002 
3.694551e-003 
-8.640580e-003 
-2.094895e-002 
-3.036420e-002 
-3.994595e-002 
-4.956218e-002 
-5.468305e-002 
-5.922574e-002 
-6.416886e-002 
-6.946468e-002 
-7.526474e-002 
-7.947594e-002 
-8.208545e-002 
-8.594744e-002 
-9.071735e-002 
-9.475648e-002 
-9.791861e-002 
-1.011550e-001 
-1.050298e-001 
-1.095266e-001 
-1.147455e-001 
-1.204581e-001 
-1.259712e-001 
-1.296764e-001 
-1.319330e-001 
-1.344130e-001 
-1.389035e-001 
-1.445849e-001 
-1.490135e-001 
-1.515481e-001 
-1.539180e-001 
-1.563324e-001 
-1.606293e-001 
-1.664860e-001 
-1.701587e-001 
-1.723594e-001 
-1.732844e-001 
-1.736336e-001 
-1.759336e-001 
-1.801204e-001 
-1.836347e-001 
-1.870549e-001 
-1.880895e-001 
-1.868115e-001 
-1.875508e-001 
-1.898398e-001 
-1.914862e-001 
-1.930187e-001 
-1.931195e-001 
-1.915282e-001 
-1.909462e-001 
-1.891585e-001 
-1.864927e-001 
-1.851219e-001 
-1.829520e-001 
-1.804559e-001 
-1.803027e-001 
-1.791029e-001 
-1.772655e-001 
-1.747648e-001 
-1.706396e-001 
-1.674215e-001 
-1.667946e-001 
-1.672514e-001 
-1.674139e-001 
-1.673520e-001 
-1.661479e-001 
-1.653926e-001 
-1.661054e-001 
-1.681546e-001 
-1.695332e-001 
-1.709238e-001 
-1.712745e-001 
-1.719488e-001 
-1.745218e-001 
-1.760582e-001 
-1.761877e-001 
-1.767066e-001 
-1.760943e-001 
-1.768026e-001 
-1.801912e-001 
-1.828810e-001 
-1.846602e-001 
-1.833463e-001 
-1.796305e-001 
-1.790300e-001 
-1.801965e-001 
-1.816720e-001 
-1.849137e-001 
-1.842950e-001 
-1.811190e-001 
-1.792912e-001 
-1.787659e-001 
-1.800149e-001 
-1.820317e-001 
-1.814988e-001 
-1.807782e-001 
-1.793359e-001 
-1.772339e-001 
-1.779532e-001 
-1.789560e-001 
-1.776482e-001 
-1.755499e-001 
-1.749613e-001 
-1.760172e-001 
-1.770656e-001 
-1.774151e-001 
-1.780272e-001 
-1.770986e-001 
-1.759030e-001 
-1.763401e-001 
-1.791096e-001 
-1.816721e-001 
-1.811576e-001 
-1.800809e-001 
-1.805902e-001 
-1.821241e-001 
-1.841445e-001 
-1.859445e-001 
-1.858977e-001 
-1.840166e-001 
-1.820762e-001 
-1.830655e-001 
-1.867628e-001 
-1.889607e-001 
-1.887481e-001 
-1.871200e-001 
-1.853712e-001 
-1.844606e-001 
-1.849275e-001 
-1.879878e-001 
-1.908040e-001 
-1.896567e-001 
-1.862850e-001 
-1.844396e-001 
-1.844874e-001 
-1.848522e-001 
-1.834652e-001 
-1.831807e-001 
-1.844944e-001 
-1.844968e-001 
-1.829729e-001 
-1.825083e-001 
-1.827358e-001 
-1.809427e-001 
-1.781509e-001 
-1.770394e-001 
-1.786477e-001 
-1.790392e-001 
-1.779458e-001 
-1.764138e-001 
-1.752725e-001 
-1.745051e-001 
-1.739306e-001 
-1.733266e-001 
-1.731316e-001 
-1.724905e-001 
-1.710943e-001 
-1.716508e-001 
-1.706494e-001 
-1.677440e-001 
-1.650269e-001 
-1.615568e-001 
-1.584173e-001 
-1.572972e-001 
-1.556739e-001 
-1.523906e-001 
-1.470765e-001 
-1.380503e-001 
-1.310936e-001 
-1.264570e-001 
-1.217880e-001 
-1.165786e-001 
-1.087516e-001 
-9.908908e-002 
-8.999613e-002 
-8.124939e-002 
-7.517073e-002 
-7.123278e-002 
-6.636539e-002 
-6.163646e-002 
-5.677870e-002 
-5.394259e-002 
-5.417272e-002 
-5.378211e-002 
-5.279430e-002 
-5.298454e-002 
-5.379942e-002 
-5.642877e-002 
-5.813396e-002 
-5.884634e-002 
-6.071325e-002 
-5.986724e-002 
-5.907459e-002 
-6.168455e-002 
-6.579827e-002 
-7.086539e-002 
-7.277959e-002 
-7.276018e-002 
-7.503269e-002 
-7.639913e-002 
-7.764915e-002 
-8.240484e-002 
-8.609955e-002 
-8.938866e-002 
-9.266276e-002 
-9.591715e-002 
-1.008556e-001 
-1.033166e-001 
-1.053646e-001 
-1.098457e-001 
-1.142371e-001 
-1.177243e-001 
-1.210817e-001 
-1.213074e-001 
-1.197251e-001 
-1.176249e-001 
-1.160351e-001 
-1.187226e-001 
-1.204240e-001 
-1.196437e-001 
-1.173649e-001 
-1.138391e-001 
-1.102659e-001 
-1.112184e-001 
-1.138139e-001 
-1.133281e-001 
-1.103021e-001 
-1.041790e-001 
-9.696953e-002 
-8.939516e-002 
-7.989397e-002 
-6.597231e-002 
-4.625092e-002 
-1.657523e-002 
1.968819e-002 
6.206142e-002 
1.170557e-001 
1.896291e-001 
2.811301e-001 
3.919676e-001 
5.215288e-001 
6.687701e-001 
8.319723e-001 
1.015218e+000 
1.226517e+000 
1.461760e+000 
1.703659e+000 
1.931184e+000 
2.124571e+000 
2.269447e+000 
2.361428e+000 
2.410297e+000 
2.431222e+000 
2.425627e+000 
2.388245e+000 
2.312022e+000 
2.190686e+000 
2.023925e+000 
1.820882e+000 
1.600691e+000 
1.380186e+000 
1.159049e+000 
9.326840e-001 
7.007815e-001 
4.644006e-001 
2.324457e-001 
2.305029e-002 
-1.456142e-001 
-2.638424e-001 
-3.388768e-001 
-3.834459e-001 
-4.097127e-001 
-4.268089e-001 
-4.400656e-001 
-4.524723e-001 
-4.631984e-001 
-4.723498e-001 
-4.813876e-001 
-4.914507e-001 
-4.995622e-001 
-5.067170e-001 
-5.106646e-001 
-5.149092e-001 
-5.195428e-001 
-5.209642e-001 
-5.211876e-001 
-5.209503e-001 
-5.212964e-001 
-5.223288e-001 
-5.247046e-001 
-5.271425e-001 
-5.299119e-001 
-5.287417e-001 
-5.262764e-001 
-5.263514e-001 
-5.279706e-001 
-5.303512e-001 
-5.314820e-001 
-5.318210e-001 
-5.313389e-001 
-5.317470e-001 
-5.328543e-001 
-5.348645e-001 
-5.362604e-001 
-5.358393e-001 
-5.345372e-001 
-5.342953e-001 
-5.358996e-001 
-5.367585e-001 
-5.375085e-001 
-5.355393e-001 
-5.312010e-001 
-5.282697e-001 
-5.264520e-001 
-5.254567e-001 
-5.235909e-001 
-5.198058e-001 
-5.142426e-001 
-5.092751e-001 
-5.038453e-001 
-4.989137e-001 
-4.944094e-001 
-4.891577e-001 
-4.827130e-001 
-4.763935e-001 
-4.714221e-001 
-4.651920e-001 
-4.577485e-001 
-4.478484e-001 
-4.364939e-001 
-4.271019e-001 
-4.193011e-001 
-4.089756e-001 
-3.963512e-001 
-3.808097e-001 
-3.619001e-001 
-3.424348e-001 
-3.225556e-001 
-3.012053e-001 
-2.780010e-001 
-2.504238e-001 
-2.180130e-001 
-1.849080e-001 
-1.518236e-001 
-1.170443e-001 
-8.097899e-002 
-4.324576e-002 
-4.030231e-003 
3.373650e-002 
6.951141e-002 
1.037737e-001 
1.364354e-001 
1.679522e-001 
1.976050e-001 
2.220073e-001 
2.392917e-001 
2.518837e-001 
2.615578e-001 
2.681322e-001 
2.717084e-001 
2.707009e-001 
2.629353e-001 
2.501248e-001 
2.330152e-001 
2.144803e-001 
1.982366e-001 
1.804568e-001 
1.589531e-001 
1.357800e-001 
1.125508e-001 
9.023525e-002 
7.058966e-002 
5.187008e-002 
3.422948e-002 
1.892153e-002 
4.461782e-003 
-8.516437e-003 
-1.936069e-002 
-2.885765e-002 
-3.854648e-002 
-4.713604e-002 
-5.528011e-002 
-6.078990e-002 
-6.386879e-002 
-6.808700e-002 
-7.432602e-002 
-8.003075e-002 
-8.463857e-002 
-8.834391e-002 
-9.037501e-002 
-9.325366e-002 
-9.686075e-002 
-1.016720e-001 
-1.072403e-001 
-1.116645e-001 
-1.130121e-001 
-1.153648e-001 
-1.190570e-001 
-1.227133e-001 
-1.268914e-001 
-1.295501e-001 
-1.314167e-001 
-1.347685e-001 
-1.385807e-001 
-1.415915e-001 
-1.463290e-001 
-1.485146e-001 
-1.484685e-001 
-1.492652e-001 
-1.515473e-001 
-1.547707e-001 
-1.562985e-001 
-1.543012e-001 
-1.520384e-001 
-1.507526e-001 
-1.476721e-001 
-1.460454e-001 
-1.452496e-001 
-1.429119e-001 
-1.382035e-001 
-1.324719e-001 
-1.279385e-001 
-1.243186e-001 
-1.182821e-001 
-1.131080e-001 
-1.094609e-001 
-1.050211e-001 
-1.016376e-001 
-9.910136e-002 
-9.601024e-002 
-9.059298e-002 
-8.408815e-002 
-7.986442e-002 
-7.946664e-002 
-7.854926e-002 
-7.628948e-002 
-7.374125e-002 
-7.084212e-002 
-6.782701e-002 
-6.628713e-002 
-6.789589e-002 
-6.999107e-002 
-7.047274e-002 
-6.955604e-002 
-6.901803e-002 
-6.983239e-002 
-7.272802e-002 
-7.522004e-002 
-7.606898e-002 
-7.669856e-002 
-7.728464e-002 
-7.925054e-002 
-8.242117e-002 
-8.405545e-002 
-8.427168e-002 
-8.511132e-002 
-8.500591e-002 
-8.549829e-002 
-8.723583e-002 
-8.873277e-002 
-8.926023e-002 
-8.928161e-002 
-8.817001e-002 
-8.855565e-002 
-9.002644e-002 
-8.999506e-002 
-9.005256e-002 
-8.973656e-002 
-8.936130e-002 
-9.090716e-002 
-9.345053e-002 
-9.410437e-002 
-9.454802e-002 
-9.382086e-002 
-9.412453e-002 
-9.671615e-002 
-9.878868e-002 
-1.001724e-001 
-1.018213e-001 
-1.014133e-001 
-1.007966e-001 
-1.018554e-001 
-1.036980e-001 
-1.055115e-001 
-1.052545e-001 
-1.047791e-001 
-1.058134e-001 
-1.077908e-001 
-1.088252e-001 
-1.090082e-001 
-1.075562e-001 
-1.058474e-001 
-1.034357e-001 
-1.032636e-001 
-1.052334e-001 
-1.048504e-001 
-1.018080e-001 
-9.795261e-002 
-9.513756e-002 
-9.417598e-002 
-9.403692e-002 
-9.314300e-002 
-9.251768e-002 
-9.045559e-002 
-8.694721e-002 
-8.499267e-002 
-8.503778e-002 
-8.470172e-002 
-8.240190e-002 
-7.917024e-002 
-7.867948e-002 
-7.957112e-002 
-8.049461e-002 
-8.001433e-002 
-7.890309e-002 
-7.740972e-002 
-7.509025e-002 
-7.455186e-002 
-7.722588e-002 
-7.921157e-002 
-7.749043e-002 
-7.553275e-002 
-7.307040e-002 
-7.270270e-002 
-7.284452e-002 
-7.357950e-002 
-7.450687e-002 
-7.360610e-002 
-7.192027e-002 
-7.139358e-002 
-7.170654e-002 
-7.058976e-002 
-6.932389e-002 
-6.806964e-002 
-6.799737e-002 
-6.717090e-002 
-6.625554e-002 
-6.433240e-002 
-5.921038e-002 
-5.236720e-002 
-4.599110e-002 
-4.157416e-002 
-3.790090e-002 
-3.334861e-002 
-2.721039e-002 
-1.911260e-002 
-9.509551e-003 
-7.149706e-004 
5.933542e-003 
1.174432e-002 
1.775338e-002 
2.451289e-002 
2.961502e-002 
3.275238e-002 
3.582543e-002 
3.819812e-002 
3.912394e-002 
3.854188e-002 
3.771870e-002 
3.604058e-002 
3.273424e-002 
2.784793e-002 
2.547757e-002 
2.538639e-002 
2.397881e-002 
1.992156e-002 
1.673207e-002 
1.571844e-002 
1.374852e-002 
1.022557e-002 
5.694190e-003 
1.887963e-003 
-3.151601e-003 
-8.302826e-003 
-1.105328e-002 
-1.202899e-002 
-1.527468e-002 
-2.120688e-002 
-2.858763e-002 
-3.442290e-002 
-3.810315e-002 
-4.207987e-002 
-4.631511e-002 
-5.252777e-002 
-5.964962e-002 
-6.516000e-002 
-6.929964e-002 
-7.221628e-002 
-7.198303e-002 
-7.280636e-002 
-7.532362e-002 
-7.668735e-002 
-7.502830e-002 
-7.133740e-002 
-6.835523e-002 
-6.891016e-002 
-6.977429e-002 
-6.901584e-002 
-6.830966e-002 
-6.582941e-002 
-6.127832e-002 
-5.693682e-002 
-5.507109e-002 
-5.310027e-002 
-5.097192e-002 
-4.647991e-002 
-4.044457e-002 
-3.434843e-002 
-2.726796e-002 
-1.701052e-002 
-2.616241e-003 
1.517041e-002 
3.804912e-002 
6.642915e-002 
1.013536e-001 
1.440163e-001 
1.983236e-001 
2.668040e-001 
3.501042e-001 
4.469923e-001 
5.584474e-001 
6.871029e-001 
8.308680e-001 
9.894488e-001 
1.166422e+000 
1.365355e+000 
1.579395e+000 
1.797596e+000 
2.007644e+000 
2.193116e+000 
2.336437e+000 
2.427913e+000 
2.472833e+000 
2.485951e+000 
2.472714e+000 
2.425483e+000 
2.340891e+000 
2.218717e+000 
2.058618e+000 
1.864974e+000 
1.650732e+000 
1.432353e+000 
1.217717e+000 
9.981983e-001 
7.702902e-001 
5.437927e-001 
3.270243e-001 
1.282041e-001 
-4.097772e-002 
-1.704373e-001 
-2.566467e-001 
-3.069083e-001 
-3.356750e-001 
-3.499467e-001 
-3.560786e-001 
-3.626269e-001 
-3.706493e-001 
-3.773219e-001 
-3.833645e-001 
-3.876322e-001 
-3.925801e-001 
-3.994570e-001 
-4.044261e-001 
-4.073363e-001 
-4.079597e-001 
-4.051791e-001 
-4.024942e-001 
-4.033557e-001 
-4.042271e-001 
-4.053310e-001 
-4.040085e-001 
-4.014499e-001 
-4.000806e-001 
-4.004931e-001 
-4.025100e-001 
-4.058081e-001 
-4.068533e-001 
-4.047617e-001 
-4.038834e-001 
-4.041284e-001 
-4.063568e-001 
-4.083189e-001 
-4.103060e-001 
-4.105193e-001 
-4.099448e-001 
-4.095477e-001 
-4.094987e-001 
-4.094198e-001 
-4.083954e-001 
-4.081008e-001 
-4.087864e-001 
