106
0.9896
982.2368
301.8964
-2.728375e-003 
-7.242279e-003 
-1.145818e-002 
-1.574986e-002 
-1.999370e-002 
-2.418995e-002 
-2.846208e-002 
-3.243741e-002 
-3.756261e-002 
-4.466078e-002 
-5.042466e-002 
-5.603706e-002 
-6.151853e-002 
-6.520326e-002 
-6.874662e-002 
-7.347894e-002 
-7.901429e-002 
-8.505299e-002 
-9.024758e-002 
-9.496781e-002 
-9.803990e-002 
-9.904033e-002 
-1.000120e-001 
-1.039768e-001 
-1.093559e-001 
-1.131498e-001 
-1.154510e-001 
-1.180209e-001 
-1.208302e-001 
-1.238627e-001 
-1.284058e-001 
-1.330284e-001 
-1.374774e-001 
-1.401843e-001 
-1.419420e-001 
-1.458955e-001 
-1.518803e-001 
-1.567872e-001 
-1.616397e-001 
-1.656940e-001 
-1.680030e-001 
-1.710766e-001 
-1.755791e-001 
-1.801248e-001 
-1.843766e-001 
-1.848773e-001 
-1.830289e-001 
-1.820922e-001 
-1.806250e-001 
-1.776965e-001 
-1.744042e-001 
-1.693172e-001 
-1.635221e-001 
-1.582863e-001 
-1.519860e-001 
-1.463078e-001 
-1.403343e-001 
-1.343833e-001 
-1.287946e-001 
-1.240334e-001 
-1.211348e-001 
-1.205476e-001 
-1.186769e-001 
-1.166299e-001 
-1.157724e-001 
-1.171453e-001 
-1.211663e-001 
-1.250468e-001 
-1.291061e-001 
-1.326235e-001 
-1.344191e-001 
-1.363774e-001 
-1.420262e-001 
-1.478109e-001 
-1.526727e-001 
-1.563729e-001 
-1.595075e-001 
-1.627871e-001 
-1.653921e-001 
-1.687987e-001 
-1.746470e-001 
-1.822435e-001 
-1.897358e-001 
-2.014398e-001 
-2.181730e-001 
-2.370155e-001 
-2.523231e-001 
-2.610487e-001 
-2.634418e-001 
-2.626331e-001 
-2.621635e-001 
-2.640643e-001 
-2.681082e-001 
-2.687388e-001 
-2.628231e-001 
-2.496149e-001 
-2.331761e-001 
-2.179291e-001 
-2.061554e-001 
-1.967449e-001 
-1.866048e-001 
-1.718458e-001 
-1.529930e-001 
-1.330715e-001 
-1.145626e-001 
-1.015480e-001 
-9.448861e-002 
-9.227876e-002 
-9.393353e-002 
-9.624052e-002 
-9.705328e-002 
-9.770428e-002 
-9.877560e-002 
-1.003360e-001 
-1.041359e-001 
-1.088235e-001 
-1.132411e-001 
-1.169574e-001 
-1.190547e-001 
-1.204857e-001 
-1.237998e-001 
-1.276330e-001 
-1.300648e-001 
-1.330357e-001 
-1.343458e-001 
-1.344399e-001 
-1.345199e-001 
-1.351646e-001 
-1.361085e-001 
-1.352434e-001 
-1.305981e-001 
-1.262887e-001 
-1.230762e-001 
-1.178775e-001 
-1.119471e-001 
-1.049173e-001 
-9.798557e-002 
-9.103479e-002 
-8.283348e-002 
-7.793612e-002 
-7.629108e-002 
-7.264274e-002 
-6.822088e-002 
-6.514316e-002 
-6.355276e-002 
-6.386307e-002 
-6.407598e-002 
-6.495904e-002 
-6.751978e-002 
-6.941809e-002 
-7.139270e-002 
-7.430721e-002 
-7.770579e-002 
-8.051647e-002 
-8.377992e-002 
-8.859912e-002 
-9.417064e-002 
-9.935839e-002 
-1.042188e-001 
-1.081249e-001 
-1.111030e-001 
-1.136292e-001 
-1.165659e-001 
-1.218118e-001 
-1.266620e-001 
-1.298882e-001 
-1.314932e-001 
-1.322248e-001 
-1.337309e-001 
-1.345093e-001 
-1.333736e-001 
-1.319989e-001 
-1.299191e-001 
-1.252322e-001 
-1.197831e-001 
-1.137292e-001 
-1.083796e-001 
-1.030625e-001 
-9.648827e-002 
-9.078413e-002 
-8.759505e-002 
-8.494046e-002 
-8.145272e-002 
-7.879214e-002 
-7.696491e-002 
-7.603151e-002 
-7.721015e-002 
-8.026121e-002 
-8.389866e-002 
-8.737442e-002 
-8.934389e-002 
-9.146844e-002 
-9.602361e-002 
-1.008767e-001 
-1.052957e-001 
-1.089815e-001 
-1.106751e-001 
-1.123566e-001 
-1.150924e-001 
-1.178951e-001 
-1.213764e-001 
-1.240067e-001 
-1.233492e-001 
-1.217196e-001 
-1.212396e-001 
-1.223542e-001 
-1.230021e-001 
-1.212507e-001 
-1.181185e-001 
-1.164331e-001 
-1.136095e-001 
-1.104257e-001 
-1.084124e-001 
-1.054722e-001 
-9.904246e-002 
-9.006012e-002 
-8.295426e-002 
-7.828023e-002 
-7.312439e-002 
-6.474625e-002 
-5.683539e-002 
-4.938617e-002 
-4.262059e-002 
-3.654245e-002 
-3.278278e-002 
-3.064360e-002 
-2.737881e-002 
-2.359269e-002 
-2.199009e-002 
-2.240298e-002 
-2.275641e-002 
-2.353589e-002 
-2.388719e-002 
-2.586436e-002 
-2.877943e-002 
-3.087154e-002 
-3.325175e-002 
-3.588215e-002 
-3.758937e-002 
-4.003778e-002 
-4.431176e-002 
-4.765653e-002 
-5.001635e-002 
-5.152458e-002 
-5.168925e-002 
-5.366731e-002 
-5.786067e-002 
-6.096538e-002 
-6.231656e-002 
-6.257321e-002 
-5.982663e-002 
-5.898645e-002 
-6.070314e-002 
-6.164636e-002 
-6.222331e-002 
-5.981174e-002 
-5.287618e-002 
-4.722327e-002 
-4.390965e-002 
-3.943728e-002 
-3.619027e-002 
-3.168178e-002 
-2.483290e-002 
-1.816954e-002 
-1.267829e-002 
-8.428414e-003 
-6.164576e-003 
-2.552356e-003 
2.061353e-003 
3.366657e-003 
3.435410e-003 
3.782373e-003 
2.683760e-003 
2.824109e-004 
-1.498403e-003 
-3.341484e-003 
-5.978443e-003 
-9.761817e-003 
-1.385904e-002 
-1.579683e-002 
-1.700862e-002 
-2.054293e-002 
-2.587408e-002 
-3.128800e-002 
-3.717146e-002 
-4.226126e-002 
-4.606886e-002 
-4.969223e-002 
-5.349684e-002 
-5.806087e-002 
-6.266434e-002 
-6.678074e-002 
-7.011462e-002 
-7.165681e-002 
-7.198696e-002 
-7.286802e-002 
-7.386388e-002 
-7.414763e-002 
-7.169559e-002 
-6.828499e-002 
-6.614442e-002 
-6.197684e-002 
-5.480276e-002 
-4.754092e-002 
-3.932715e-002 
-3.180423e-002 
-2.525943e-002 
-1.803353e-002 
-1.360251e-002 
-1.048737e-002 
-6.302364e-003 
-2.572398e-003 
-7.014814e-004 
4.859163e-004 
-1.295266e-003 
-3.058117e-003 
-3.786916e-003 
-5.315313e-003 
-7.881305e-003 
-1.145352e-002 
-1.448079e-002 
-1.695123e-002 
-1.942303e-002 
-2.312003e-002 
-2.598348e-002 
-3.040828e-002 
-3.424512e-002 
-3.841449e-002 
-4.226062e-002 
-4.229675e-002 
-4.256447e-002 
-4.485184e-002 
-4.716923e-002 
-5.105837e-002 
-5.532882e-002 
-5.528300e-002 
-5.754204e-002 
-5.916904e-002 
-5.833664e-002 
-5.939618e-002 
-5.963870e-002 
-5.905811e-002 
-5.742182e-002 
-5.159043e-002 
-4.517242e-002 
-4.147120e-002 
-3.495297e-002 
-2.851781e-002 
-2.376061e-002 
-1.890125e-002 
-1.428510e-002 
-8.235521e-003 
-3.174792e-003 
-6.282451e-004 
1.287814e-003 
3.456686e-003 
3.806485e-003 
3.305358e-003 
3.020353e-003 
1.434877e-003 
-1.342173e-003 
-5.623143e-003 
-1.061892e-002 
-1.560059e-002 
-1.924064e-002 
-2.327601e-002 
-2.754367e-002 
-3.189901e-002 
-3.755104e-002 
-4.254089e-002 
-4.652654e-002 
-5.018473e-002 
-5.461939e-002 
-5.861458e-002 
-6.297018e-002 
-6.740176e-002 
-7.118974e-002 
-7.553155e-002 
-7.828521e-002 
-7.952661e-002 
-8.160648e-002 
-8.335820e-002 
-8.100989e-002 
-7.922553e-002 
-7.811579e-002 
-7.608012e-002 
-7.307688e-002 
-6.610456e-002 
-5.747150e-002 
-5.004214e-002 
-4.152834e-002 
-3.251502e-002 
-2.726860e-002 
-2.121261e-002 
-1.574824e-002 
-1.266541e-002 
-1.450577e-002 
-2.470202e-002 
-4.120809e-002 
-5.576544e-002 
-6.670686e-002 
-7.387198e-002 
-7.677594e-002 
-8.084453e-002 
-8.742738e-002 
-9.678636e-002 
-1.067943e-001 
-1.122761e-001 
-1.106648e-001 
-1.068102e-001 
-1.021034e-001 
-9.876060e-002 
-9.733653e-002 
-9.568565e-002 
-9.161880e-002 
-8.255856e-002 
-6.789205e-002 
-5.234990e-002 
-4.037603e-002 
-3.334547e-002 
-3.266677e-002 
-3.586678e-002 
-3.911328e-002 
-4.010564e-002 
-3.810023e-002 
-3.531037e-002 
-3.402440e-002 
-3.163188e-002 
-2.877811e-002 
-2.513242e-002 
-1.868382e-002 
-1.073758e-002 
-3.455016e-003 
2.784054e-003 
8.241805e-003 
1.436873e-002 
2.061344e-002 
2.475277e-002 
2.881264e-002 
3.179477e-002 
3.294746e-002 
3.458582e-002 
3.645404e-002 
3.752603e-002 
3.631516e-002 
3.249912e-002 
2.911577e-002 
2.652546e-002 
2.330176e-002 
2.072729e-002 
1.766281e-002 
1.266931e-002 
7.294242e-003 
1.835027e-003 
-2.600432e-003 
-5.964388e-003 
-1.015397e-002 
-1.458858e-002 
-1.855215e-002 
-2.175226e-002 
-2.479686e-002 
-2.772470e-002 
-3.112937e-002 
-3.438589e-002 
-3.699730e-002 
-3.888852e-002 
-3.958720e-002 
-3.865645e-002 
-3.649005e-002 
-3.464211e-002 
-3.104421e-002 
-2.678864e-002 
-2.209290e-002 
-1.719276e-002 
-1.242894e-002 
-6.997720e-003 
-1.448260e-004 
6.327270e-003 
1.267708e-002 
1.873659e-002 
2.256111e-002 
2.465449e-002 
2.665795e-002 
2.952266e-002 
3.277590e-002 
3.386673e-002 
3.208059e-002 
2.979126e-002 
2.599727e-002 
2.106080e-002 
1.753689e-002 
1.577030e-002 
1.215230e-002 
6.944404e-003 
5.402098e-005 
-6.052883e-003 
-1.217858e-002 
-1.953140e-002 
-2.721669e-002 
-3.300634e-002 
-3.910844e-002 
-4.631524e-002 
-5.076242e-002 
-5.419075e-002 
-5.867341e-002 
-6.451261e-002 
-6.955120e-002 
-7.226958e-002 
-7.123327e-002 
-7.080049e-002 
-7.015247e-002 
-6.710615e-002 
-6.478728e-002 
-6.198030e-002 
-5.590746e-002 
-4.718961e-002 
-3.723965e-002 
-2.787290e-002 
-2.001703e-002 
-1.071216e-002 
-2.270759e-004 
8.720843e-003 
1.691051e-002 
2.392885e-002 
2.993524e-002 
3.548795e-002 
4.031071e-002 
4.442477e-002 
4.784758e-002 
4.928939e-002 
4.843856e-002 
4.844051e-002 
4.876937e-002 
4.899994e-002 
4.798148e-002 
4.488790e-002 
4.167498e-002 
3.926910e-002 
3.675181e-002 
3.417194e-002 
3.127555e-002 
2.676131e-002 
2.210641e-002 
1.867408e-002 
1.677273e-002 
1.522293e-002 
1.256412e-002 
8.266440e-003 
3.121866e-003 
8.505961e-004 
1.275121e-003 
1.307997e-003 
1.516470e-003 
1.534673e-003 
1.875927e-003 
3.893530e-003 
7.318352e-003 
1.335069e-002 
2.133989e-002 
2.715778e-002 
3.115741e-002 
3.672980e-002 
4.332914e-002 
5.015883e-002 
5.556784e-002 
6.035254e-002 
6.566360e-002 
6.942141e-002 
7.243505e-002 
7.386300e-002 
7.361000e-002 
7.215526e-002 
7.089035e-002 
7.077674e-002 
7.178860e-002 
7.118646e-002 
6.814175e-002 
6.420553e-002 
5.884550e-002 
5.469033e-002 
5.184296e-002 
4.959227e-002 
4.589603e-002 
4.042176e-002 
3.456918e-002 
2.991629e-002 
2.651843e-002 
2.308509e-002 
1.937460e-002 
1.524969e-002 
1.179409e-002 
9.231184e-003 
7.818195e-003 
6.284241e-003 
4.719204e-003 
4.603787e-003 
6.056330e-003 
9.394527e-003 
1.455494e-002 
1.942520e-002 
2.370578e-002 
2.802421e-002 
3.343476e-002 
4.039198e-002 
4.836538e-002 
5.517123e-002 
5.989568e-002 
6.340677e-002 
6.612101e-002 
6.940093e-002 
7.306021e-002 
7.468723e-002 
7.408092e-002 
7.331241e-002 
7.174376e-002 
6.980155e-002 
6.765613e-002 
6.481900e-002 
6.058243e-002 
5.588082e-002 
5.244755e-002 
5.111419e-002 
5.015802e-002 
4.756094e-002 
4.198633e-002 
3.553615e-002 
3.073438e-002 
2.754305e-002 
2.629676e-002 
2.433540e-002 
1.926729e-002 
1.391429e-002 
9.841082e-003 
5.476365e-003 
3.167437e-003 
2.232647e-003 
-1.023504e-003 
-5.819683e-003 
-9.490834e-003 
-9.535499e-003 
-5.484730e-003 
-1.762992e-003 
-4.601618e-004 
2.604234e-003 
6.934804e-003 
1.127035e-002 
1.876981e-002 
2.877975e-002 
3.737501e-002 
4.438654e-002 
5.061902e-002 
5.700118e-002 
6.471478e-002 
7.016522e-002 
7.288008e-002 
7.661518e-002 
8.003979e-002 
8.127251e-002 
8.296659e-002 
8.264593e-002 
7.872247e-002 
7.370646e-002 
6.801569e-002 
6.411047e-002 
6.373122e-002 
6.059715e-002 
5.401142e-002 
4.766306e-002 
4.006444e-002 
3.316322e-002 
2.837746e-002 
2.301821e-002 
1.709729e-002 
1.095784e-002 
2.859905e-003 
-2.305816e-003 
-5.097479e-003 
-9.530545e-003 
-1.516763e-002 
-2.053942e-002 
-2.612520e-002 
-2.962785e-002 
-2.982729e-002 
-3.009725e-002 
-3.041156e-002 
-3.065207e-002 
-2.999202e-002 
-2.682047e-002 
-2.092452e-002 
-1.555102e-002 
-1.044429e-002 
-4.294957e-003 
1.142628e-003 
7.834770e-003 
1.681709e-002 
2.311844e-002 
2.704724e-002 
3.059081e-002 
3.379805e-002 
3.906856e-002 
4.548170e-002 
4.917394e-002 
5.083520e-002 
5.097030e-002 
4.899017e-002 
4.852517e-002 
5.038563e-002 
5.196193e-002 
5.048751e-002 
4.562724e-002 
3.854130e-002 
2.938460e-002 
1.598047e-002 
-1.794989e-003 
-1.927170e-002 
-3.477978e-002 
-4.674224e-002 
-5.448878e-002 
-5.874491e-002 
-6.415019e-002 
-7.516500e-002 
-8.786214e-002 
-9.558054e-002 
-9.561112e-002 
-8.994842e-002 
-8.135070e-002 
-7.450245e-002 
-7.015088e-002 
-6.684552e-002 
-5.982171e-002 
-4.379103e-002 
-2.215886e-002 
3.424066e-004 
2.058917e-002 
3.511840e-002 
4.518365e-002 
5.379714e-002 
6.018611e-002 
6.625824e-002 
7.325847e-002 
7.943687e-002 
8.505160e-002 
8.898231e-002 
9.147660e-002 
9.376739e-002 
9.377187e-002 
9.208147e-002 
9.146106e-002 
9.229283e-002 
9.183830e-002 
8.891148e-002 
8.475500e-002 
8.200724e-002 
7.897770e-002 
7.574296e-002 
7.385188e-002 
7.036177e-002 
6.608891e-002 
6.107852e-002 
5.626071e-002 
5.257631e-002 
4.951961e-002 
4.546024e-002 
4.200192e-002 
3.830273e-002 
3.468987e-002 
3.329194e-002 
3.150273e-002 
2.961923e-002 
2.842829e-002 
2.820670e-002 
2.875629e-002 
3.108159e-002 
3.522359e-002 
4.023929e-002 
4.515206e-002 
4.998241e-002 
5.727988e-002 
6.516445e-002 
7.158421e-002 
7.797497e-002 
8.503273e-002 
9.114861e-002 
9.544643e-002 
9.990531e-002 
1.038684e-001 
1.064019e-001 
1.060032e-001 
1.048968e-001 
1.058363e-001 
1.066814e-001 
1.052967e-001 
1.020006e-001 
9.827727e-002 
9.339920e-002 
8.974427e-002 
8.676288e-002 
8.362258e-002 
7.950841e-002 
7.286882e-002 
6.572573e-002 
6.039695e-002 
5.698160e-002 
5.425719e-002 
5.168106e-002 
4.608844e-002 
4.083122e-002 
3.700976e-002 
3.368521e-002 
3.207798e-002 
3.007350e-002 
2.755286e-002 
2.506148e-002 
2.310859e-002 
2.431838e-002 
2.868976e-002 
3.154087e-002 
3.367249e-002 
3.554234e-002 
3.754807e-002 
4.289948e-002 
4.846084e-002 
5.360168e-002 
5.843307e-002 
6.110160e-002 
6.389495e-002 
6.808116e-002 
7.126504e-002 
7.479061e-002 
7.810639e-002 
7.821381e-002 
7.837621e-002 
7.872188e-002 
7.904982e-002 
7.889487e-002 
7.784538e-002 
7.692543e-002 
7.757647e-002 
7.915552e-002 
7.992782e-002 
7.901097e-002 
7.639826e-002 
7.433612e-002 
7.294594e-002 
7.190919e-002 
7.061802e-002 
6.880797e-002 
6.624513e-002 
6.284772e-002 
6.054819e-002 
6.034251e-002 
6.038773e-002 
5.827352e-002 
5.519208e-002 
5.316954e-002 
5.248414e-002 
5.425663e-002 
5.760889e-002 
6.102872e-002 
6.262687e-002 
6.484052e-002 
6.959941e-002 
7.685815e-002 
8.427909e-002 
9.062622e-002 
9.742412e-002 
1.031353e-001 
1.081308e-001 
1.129946e-001 
1.183922e-001 
1.222062e-001 
1.247951e-001 
1.254362e-001 
1.258697e-001 
1.271948e-001 
1.259708e-001 
1.221682e-001 
1.175511e-001 
1.136411e-001 
1.110540e-001 
1.100064e-001 
1.075348e-001 
1.034216e-001 
9.824417e-002 
9.156098e-002 
8.542083e-002 
8.270151e-002 
7.921578e-002 
7.287875e-002 
6.772907e-002 
6.290674e-002 
5.859679e-002 
5.688131e-002 
5.413376e-002 
5.047407e-002 
4.664783e-002 
4.037270e-002 
3.829737e-002 
4.074808e-002 
4.130743e-002 
4.052727e-002 
3.969072e-002 
3.823965e-002 
4.033474e-002 
4.611187e-002 
5.453707e-002 
6.294767e-002 
6.742920e-002 
7.120083e-002 
7.728313e-002 
8.465631e-002 
9.095922e-002 
9.700053e-002 
1.021642e-001 
1.056288e-001 
1.065477e-001 
1.087943e-001 
1.138807e-001 
1.164298e-001 
1.133947e-001 
1.082601e-001 
1.060614e-001 
1.061233e-001 
1.058880e-001 
1.032659e-001 
1.002829e-001 
9.699177e-002 
9.039155e-002 
8.513999e-002 
8.394511e-002 
8.318648e-002 
8.063290e-002 
7.660085e-002 
7.162299e-002 
6.848078e-002 
6.598885e-002 
6.157527e-002 
5.795298e-002 
5.433498e-002 
5.173553e-002 
5.098747e-002 
4.950560e-002 
4.617513e-002 
4.224181e-002 
3.935459e-002 
3.814779e-002 
3.985506e-002 
4.478292e-002 
5.042339e-002 
5.270798e-002 
5.348664e-002 
5.697132e-002 
6.377998e-002 
7.279111e-002 
7.986256e-002 
8.567203e-002 
9.186596e-002 
9.620454e-002 
9.893968e-002 
1.039208e-001 
1.093052e-001 
1.116292e-001 
1.113698e-001 
1.109895e-001 
1.123341e-001 
1.144272e-001 
1.139297e-001 
1.106516e-001 
1.081186e-001 
1.059633e-001 
1.035238e-001 
1.014335e-001 
9.928687e-002 
9.527722e-002 
9.173136e-002 
8.670831e-002 
8.203173e-002 
7.994686e-002 
7.653241e-002 
7.044007e-002 
6.525820e-002 
6.194597e-002 
5.992611e-002 
5.858623e-002 
5.262772e-002 
4.612154e-002 
4.064988e-002 
3.635242e-002 
3.601160e-002 
3.851090e-002 
4.025071e-002 
4.133844e-002 
4.067768e-002 
4.014282e-002 
4.518205e-002 
5.287405e-002 
6.046684e-002 
6.598261e-002 
6.945993e-002 
7.279163e-002 
7.615196e-002 
7.947449e-002 
8.520969e-002 
9.133601e-002 
9.429115e-002 
9.506782e-002 
9.542939e-002 
9.606456e-002 
9.524923e-002 
9.312376e-002 
9.204791e-002 
9.160682e-002 
9.000345e-002 
8.724396e-002 
8.397028e-002 
8.087462e-002 
7.805983e-002 
7.538474e-002 
7.260128e-002 
6.972331e-002 
6.624622e-002 
6.201209e-002 
5.831904e-002 
5.667388e-002 
5.574053e-002 
5.382527e-002 
4.983580e-002 
4.626821e-002 
4.540944e-002 
4.494464e-002 
4.337752e-002 
4.003245e-002 
3.327189e-002 
2.228000e-002 
1.026446e-002 
4.733848e-004 
-5.078409e-003 
-8.796408e-003 
-1.166255e-002 
-1.265691e-002 
-1.239357e-002 
-1.126542e-002 
-9.240314e-003 
-6.069424e-003 
-2.008554e-003 
3.652462e-003 
1.113520e-002 
2.113433e-002 
3.240522e-002 
4.250020e-002 
5.114401e-002 
5.901068e-002 
6.803209e-002 
7.993507e-002 
9.344482e-002 
1.039048e-001 
1.096611e-001 
1.109804e-001 
1.084277e-001 
1.050846e-001 
1.018738e-001 
9.884467e-002 
9.516885e-002 
8.972677e-002 
8.274776e-002 
7.703098e-002 
7.280199e-002 
6.796830e-002 
6.283035e-002 
5.632403e-002 
4.903359e-002 
4.237550e-002 
3.681310e-002 
3.231686e-002 
2.881094e-002 
2.515536e-002 
2.116176e-002 
1.856368e-002 
1.756458e-002 
1.879675e-002 
2.155848e-002 
2.608520e-002 
3.175313e-002 
3.813436e-002 
4.520344e-002 
5.252650e-002 
6.022267e-002 
6.807039e-002 
7.520954e-002 
8.226800e-002 
8.959502e-002 
9.530066e-002 
1.000858e-001 
1.039687e-001 
1.055669e-001 
1.057388e-001 
1.054573e-001 
1.035483e-001 
1.014441e-001 
9.799156e-002 
9.358874e-002 
9.051511e-002 
8.679565e-002 
8.159125e-002 
7.775561e-002 
7.464324e-002 
7.072394e-002 
6.681701e-002 
6.089020e-002 
5.471114e-002 
4.931923e-002 
4.381223e-002 
3.964115e-002 
3.720674e-002 
3.463133e-002 
3.110470e-002 
2.585397e-002 
2.014714e-002 
1.610416e-002 
1.366808e-002 
1.235261e-002 
1.032611e-002 
8.357518e-003 
7.368648e-003 
6.568263e-003 
7.552629e-003 
1.167103e-002 
1.576429e-002 
2.054751e-002 
2.484004e-002 
2.825479e-002 
3.331900e-002 
3.837206e-002 
4.303810e-002 
4.822202e-002 
5.127956e-002 
5.162256e-002 
5.287901e-002 
5.339138e-002 
5.251250e-002 
5.065652e-002 
4.872588e-002 
4.702953e-002 
4.403728e-002 
3.948552e-002 
3.429752e-002 
3.005805e-002 
2.479634e-002 
1.872972e-002 
1.529826e-002 
1.279080e-002 
6.855473e-003 
8.573400e-005 
-6.557288e-003 
-1.257094e-002 
-1.659013e-002 
-2.057311e-002 
-2.335493e-002 
-2.527357e-002 
-2.922386e-002 
-3.300677e-002 
-3.359630e-002 
-3.436862e-002 
-3.514635e-002 
-3.589441e-002 
-3.616546e-002 
-3.404219e-002 
-2.901776e-002 
-2.285477e-002 
-1.590314e-002 
-9.465019e-003 
-4.289864e-003 
1.969890e-003 
9.128868e-003 
1.790018e-002 
2.841746e-002 
3.747533e-002 
4.284980e-002 
4.685041e-002 
5.064154e-002 
5.568599e-002 
6.008522e-002 
6.276694e-002 
6.472602e-002 
6.471236e-002 
6.212840e-002 
5.985786e-002 
5.772800e-002 
5.583492e-002 
5.415729e-002 
5.060002e-002 
4.714712e-002 
4.413443e-002 
4.099580e-002 
3.855770e-002 
3.617718e-002 
3.202642e-002 
2.819058e-002 
2.394090e-002 
1.797326e-002 
1.296918e-002 
9.795410e-003 
6.812767e-003 
3.652469e-003 
-8.992097e-004 
-5.926135e-003 
-9.193761e-003 
-1.346221e-002 
-1.813185e-002 
-2.043690e-002 
-2.249417e-002 
-2.474793e-002 
-2.582410e-002 
-2.558884e-002 
-2.267626e-002 
-1.887659e-002 
-1.603223e-002 
-1.225152e-002 
-6.945878e-003 
-7.419712e-004 
5.504232e-003 
1.156649e-002 
1.788407e-002 
2.265295e-002 
2.575121e-002 
2.909153e-002 
3.218911e-002 
3.536622e-002 
3.737787e-002 
3.663218e-002 
3.545620e-002 
3.393862e-002 
3.059466e-002 
2.812268e-002 
2.553968e-002 
2.121008e-002 
1.727072e-002 
1.349199e-002 
9.777352e-003 
6.044176e-003 
1.513456e-003 
-3.833712e-003 
-8.416788e-003 
-1.253041e-002 
-1.594482e-002 
-1.864619e-002 
-2.132488e-002 
-2.479941e-002 
-2.844723e-002 
-3.171237e-002 
-3.516139e-002 
-3.718728e-002 
-3.746050e-002 
-3.851290e-002 
-3.981744e-002 
-4.020379e-002 
-3.894611e-002 
-3.578485e-002 
-3.310308e-002 
-3.042689e-002 
-2.482558e-002 
-1.797926e-002 
-1.274108e-002 
-6.579022e-003 
-3.401414e-004 
6.060612e-003 
9.810059e-003 
1.213293e-002 
1.698493e-002 
2.340230e-002 
2.747013e-002 
2.849527e-002 
2.829943e-002 
2.718097e-002 
2.534991e-002 
2.290994e-002 
2.251803e-002 
2.185153e-002 
1.890003e-002 
1.419416e-002 
9.938347e-003 
6.935189e-003 
4.742458e-003 
1.349818e-003 
-2.261021e-003 
-6.605227e-003 
-1.209724e-002 
-1.682698e-002 
-2.032304e-002 
-2.261315e-002 
-2.555943e-002 
-3.023303e-002 
-3.526361e-002 
-3.857009e-002 
-4.219180e-002 
-4.440967e-002 
-4.579540e-002 
-4.749266e-002 
-4.875530e-002 
-4.975002e-002 
-4.929409e-002 
-4.556523e-002 
-4.103895e-002 
-3.737126e-002 
-3.106854e-002 
-2.453953e-002 
-1.812531e-002 
-1.098651e-002 
-5.158508e-003 
1.169030e-003 
8.685978e-003 
1.455078e-002 
2.022191e-002 
2.610375e-002 
2.917338e-002 
3.127519e-002 
3.213842e-002 
3.125124e-002 
3.177573e-002 
3.110967e-002 
2.731881e-002 
2.309643e-002 
1.851417e-002 
1.398913e-002 
1.033729e-002 
4.426698e-003 
-2.355186e-003 
-7.601116e-003 
-1.446141e-002 
-2.088577e-002 
-2.638059e-002 
-3.279517e-002 
-3.875334e-002 
-4.566261e-002 
-5.383949e-002 
-5.888086e-002 
-6.197000e-002 
-6.583008e-002 
-6.936197e-002 
-7.472963e-002 
-7.956341e-002 
-8.135906e-002 
-8.284842e-002 
-8.282775e-002 
-8.077246e-002 
-7.916586e-002 
-7.677960e-002 
-7.369266e-002 
-6.981941e-002 
-6.370348e-002 
-5.675025e-002 
-5.119648e-002 
-4.540129e-002 
-3.903817e-002 
-3.192478e-002 
-2.592830e-002 
-2.148758e-002 
-1.747641e-002 
-1.445117e-002 
-1.138046e-002 
-9.341361e-003 
-7.727273e-003 
-6.550881e-003 
-6.806107e-003 
-8.935867e-003 
-9.772783e-003 
-1.142876e-002 
-1.534732e-002 
-2.172560e-002 
-3.288760e-002 
-4.826510e-002 
-6.548467e-002 
-8.214034e-002 
-9.554436e-002 
-1.053997e-001 
-1.135397e-001 
-1.203459e-001 
-1.285173e-001 
-1.387745e-001 
-1.477028e-001 
-1.524389e-001 
-1.529555e-001 
-1.514622e-001 
-1.498056e-001 
-1.469323e-001 
-1.450675e-001 
-1.441255e-001 
-1.389420e-001 
-1.276898e-001 
-1.131179e-001 
-9.754404e-002 
-8.479228e-002 
-7.360074e-002 
-6.387259e-002 
-5.817203e-002 
-5.338626e-002 
-4.725194e-002 
-4.109593e-002 
-3.499838e-002 
-2.801551e-002 
-2.198421e-002 
-1.598870e-002 
-1.180083e-002 
-8.803821e-003 
-5.959852e-003 
-3.646611e-003 
-1.085386e-003 
1.858695e-003 
3.173042e-003 
4.824915e-005 
-4.188052e-003 
-6.638882e-003 
-8.366336e-003 
-1.156899e-002 
-1.522447e-002 
-1.782799e-002 
-2.013257e-002 
-2.426871e-002 
-3.006398e-002 
-3.306992e-002 
-3.562178e-002 
-4.076092e-002 
-4.533877e-002 
-4.754604e-002 
-4.866945e-002 
-5.110306e-002 
-5.660590e-002 
-6.223878e-002 
-6.451891e-002 
-6.695472e-002 
-6.794314e-002 
-6.627883e-002 
-6.655068e-002 
-6.862022e-002 
-7.014346e-002 
-7.042591e-002 
-6.653837e-002 
-6.139450e-002 
-5.734927e-002 
-5.248886e-002 
-4.896926e-002 
-4.596147e-002 
-3.986403e-002 
-3.316676e-002 
-2.757988e-002 
-2.285904e-002 
-2.003018e-002 
-1.688933e-002 
-1.382099e-002 
-1.108655e-002 
-7.902039e-003 
-7.365621e-003 
-9.663805e-003 
-1.146786e-002 
-1.282603e-002 
-1.359327e-002 
-1.650755e-002 
-2.086675e-002 
-2.535938e-002 
-3.059782e-002 
-3.621071e-002 
-4.059794e-002 
-4.508867e-002 
-5.084512e-002 
-5.817488e-002 
-6.561957e-002 
-7.097930e-002 
-7.710401e-002 
-8.255195e-002 
-8.827091e-002 
-9.445814e-002 
-9.903707e-002 
-1.030727e-001 
-1.060085e-001 
-1.080077e-001 
-1.125095e-001 
-1.167922e-001 
-1.172421e-001 
-1.172963e-001 
-1.154625e-001 
-1.131774e-001 
-1.127823e-001 
-1.117659e-001 
-1.092161e-001 
-1.040249e-001 
-9.545063e-002 
-8.732071e-002 
-8.345543e-002 
-8.014733e-002 
-7.669053e-002 
-7.215930e-002 
-6.434015e-002 
-5.522328e-002 
-5.000387e-002 
-4.774089e-002 
-4.690418e-002 
-4.590706e-002 
-4.125369e-002 
-3.710343e-002 
-3.424998e-002 
-3.205459e-002 
-3.315706e-002 
-3.527701e-002 
-3.392537e-002 
-3.272970e-002 
-3.305937e-002 
-3.411248e-002 
-3.615359e-002 
-3.710354e-002 
-3.789763e-002 
-3.883791e-002 
-4.108038e-002 
-4.476216e-002 
-4.927636e-002 
-5.178633e-002 
-5.134376e-002 
-5.080470e-002 
-5.304349e-002 
-5.617917e-002 
-6.015942e-002 
-6.393125e-002 
-6.345852e-002 
-6.244891e-002 
-6.152285e-002 
-6.136416e-002 
-6.305425e-002 
-6.270237e-002 
-5.768711e-002 
-5.247274e-002 
-4.657846e-002 
-4.231734e-002 
-3.975997e-002 
-3.251199e-002 
-2.441521e-002 
-1.712860e-002 
-9.445600e-003 
-3.788197e-003 
-4.516003e-004 
3.439386e-003 
7.981291e-003 
1.493879e-002 
2.006978e-002 
2.013627e-002 
1.894935e-002 
1.736628e-002 
1.701979e-002 
1.780357e-002 
1.771834e-002 
1.492402e-002 
9.600569e-003 
4.135609e-003 
2.038572e-003 
-1.281798e-004 
-3.672576e-003 
-7.762642e-003 
-1.390099e-002 
-2.035802e-002 
-2.612171e-002 
-3.005913e-002 
-3.146634e-002 
-3.483170e-002 
-4.132149e-002 
-4.642565e-002 
-5.025342e-002 
-5.284290e-002 
-5.518607e-002 
-5.945373e-002 
-6.396634e-002 
-6.698751e-002 
-6.891746e-002 
-6.823057e-002 
-6.512239e-002 
-6.304416e-002 
-6.126814e-002 
-5.906050e-002 
-5.595807e-002 
-4.968596e-002 
-4.220192e-002 
-3.559729e-002 
-2.928993e-002 
-2.376782e-002 
-1.945087e-002 
-1.291866e-002 
-6.740797e-003 
-1.665996e-003 
2.492509e-003 
4.334560e-003 
5.928049e-003 
8.360254e-003 
9.108029e-003 
8.589821e-003 
8.551011e-003 
5.435438e-003 
2.631004e-003 
8.154552e-004 
-9.699188e-004 
-1.459034e-003 
-1.940866e-003 
-4.634504e-003 
-6.901157e-003 
-9.680017e-003 
-1.417072e-002 
-1.675164e-002 
-1.944613e-002 
-2.261873e-002 
-2.450917e-002 
-2.777276e-002 
-3.195979e-002 
-3.527056e-002 
-3.872712e-002 
-4.089788e-002 
-4.283868e-002 
-4.599411e-002 
-4.853775e-002 
-5.023197e-002 
-5.160610e-002 
-5.108777e-002 
-4.890121e-002 
-4.627396e-002 
-4.344468e-002 
-3.963534e-002 
-3.414654e-002 
-2.705152e-002 
-1.962075e-002 
-1.343766e-002 
-7.624735e-003 
-1.670103e-003 
4.307026e-003 
1.174694e-002 
1.905389e-002 
2.340376e-002 
2.543916e-002 
2.618328e-002 
2.680454e-002 
2.973505e-002 
3.330184e-002 
3.400550e-002 
3.075976e-002 
2.522911e-002 
1.979553e-002 
1.712304e-002 
1.701932e-002 
1.654449e-002 
1.482861e-002 
1.086688e-002 
5.086412e-003 
1.807763e-003 
1.358176e-003 
3.438535e-004 
-1.007941e-003 
-4.670083e-003 
-9.816109e-003 
-1.277845e-002 
-1.363615e-002 
-1.410199e-002 
-1.559766e-002 
-1.906825e-002 
-2.152842e-002 
-2.313539e-002 
-2.401328e-002 
-2.314703e-002 
-2.362641e-002 
-2.504414e-002 
-2.735288e-002 
-2.820884e-002 
-2.421737e-002 
-1.911648e-002 
-1.646678e-002 
-1.265233e-002 
-9.838345e-003 
-6.965163e-003 
-3.757237e-004 
6.707103e-003 
1.346220e-002 
1.830606e-002 
2.036944e-002 
2.369058e-002 
2.947153e-002 
3.409919e-002 
3.811787e-002 
4.048663e-002 
3.958629e-002 
3.856542e-002 
3.970915e-002 
4.171634e-002 
4.156202e-002 
3.829880e-002 
3.411658e-002 
3.177378e-002 
2.986818e-002 
2.845954e-002 
2.807769e-002 
2.576872e-002 
1.925359e-002 
1.128451e-002 
5.721551e-003 
3.920774e-003 
1.951594e-003 
-3.493127e-003 
-9.328280e-003 
-1.470099e-002 
-1.880699e-002 
-2.088672e-002 
-2.170642e-002 
-2.318078e-002 
-2.546249e-002 
-2.915752e-002 
-3.183088e-002 
-3.132489e-002 
-2.951944e-002 
-2.815628e-002 
-2.933735e-002 
-3.475744e-002 
-4.309034e-002 
-5.122207e-002 
-5.840980e-002 
-6.329725e-002 
-6.595538e-002 
-6.562530e-002 
-6.261987e-002 
-5.977645e-002 
-5.962355e-002 
-5.963371e-002 
-5.834198e-002 
-5.478533e-002 
-4.790761e-002 
-3.882663e-002 
-2.861629e-002 
-2.146123e-002 
-1.804894e-002 
-1.300832e-002 
-3.287170e-003 
8.161037e-003 
2.159674e-002 
3.422078e-002 
4.148334e-002 
4.290091e-002 
4.022870e-002 
3.752870e-002 
3.573732e-002 
3.209694e-002 
2.615376e-002 
2.117162e-002 
1.764192e-002 
1.415570e-002 
1.185749e-002 
1.142080e-002 
1.006714e-002 
6.647576e-003 
1.430697e-003 
-4.834113e-003 
-8.084506e-003 
-8.195903e-003 
-8.919712e-003 
-9.401448e-003 
-9.059278e-003 
-8.182810e-003 
-6.903342e-003 
-5.022342e-003 
-8.377287e-004 
5.817832e-003 
1.174326e-002 
1.563666e-002 
1.888351e-002 
2.388107e-002 
3.075538e-002 
3.681871e-002 
4.323646e-002 
4.931923e-002 
5.360301e-002 
5.750477e-002 
6.128458e-002 
6.483232e-002 
6.992980e-002 
7.231851e-002 
7.008459e-002 
6.756933e-002 
6.589633e-002 
6.604874e-002 
6.723815e-002 
6.619263e-002 
6.420690e-002 
6.081420e-002 
5.535087e-002 
5.248918e-002 
5.203113e-002 
5.053591e-002 
4.606293e-002 
3.745027e-002 
2.953643e-002 
2.458062e-002 
2.095213e-002 
1.985261e-002 
1.726212e-002 
1.053985e-002 
3.507654e-003 
-2.719560e-003 
-6.013843e-003 
-6.729360e-003 
-9.232820e-003 
-1.078012e-002 
-1.322049e-002 
-1.724137e-002 
-1.631880e-002 
-1.193222e-002 
-7.825126e-003 
-4.390240e-003 
-1.962902e-003 
3.744119e-003 
1.285877e-002 
1.954629e-002 
2.613085e-002 
3.187811e-002 
3.488570e-002 
3.868080e-002 
4.414136e-002 
5.092250e-002 
5.631631e-002 
5.677992e-002 
5.408874e-002 
5.146233e-002 
4.972337e-002 
4.992912e-002 
4.906092e-002 
4.452180e-002 
3.858792e-002 
3.155723e-002 
2.556757e-002 
2.215155e-002 
1.890459e-002 
1.430667e-002 
7.695736e-003 
4.052870e-004 
-4.115642e-003 
-6.768032e-003 
-1.106616e-002 
-1.486505e-002 
-1.797057e-002 
-2.098216e-002 
-2.348488e-002 
-2.344940e-002 
-2.232243e-002 
-2.315057e-002 
-2.510130e-002 
-2.466068e-002 
-2.099224e-002 
-1.635401e-002 
-1.258491e-002 
-8.917150e-003 
-3.705482e-003 
1.408108e-003 
9.288150e-003 
1.969423e-002 
2.943486e-002 
3.671721e-002 
4.238260e-002 
4.901303e-002 
5.822617e-002 
6.716292e-002 
7.550541e-002 
8.156818e-002 
8.341087e-002 
8.536573e-002 
8.806130e-002 
9.095381e-002 
9.340807e-002 
9.287449e-002 
9.058713e-002 
8.841908e-002 
8.555220e-002 
8.431765e-002 
8.329587e-002 
8.000876e-002 
7.598478e-002 
7.317747e-002 
7.164216e-002 
6.970285e-002 
6.541154e-002 
5.998339e-002 
5.450228e-002 
4.883555e-002 
4.614773e-002 
4.594033e-002 
4.405806e-002 
4.009109e-002 
3.524211e-002 
3.089004e-002 
2.963653e-002 
2.902541e-002 
2.863564e-002 
2.918174e-002 
2.834710e-002 
2.829504e-002 
3.270419e-002 
3.805489e-002 
4.298282e-002 
4.807833e-002 
5.269300e-002 
5.935262e-002 
6.659067e-002 
7.388176e-002 
8.088652e-002 
8.631271e-002 
8.988433e-002 
9.291980e-002 
9.524598e-002 
9.829164e-002 
9.988682e-002 
9.813631e-002 
9.649076e-002 
9.547579e-002 
9.539058e-002 
9.406061e-002 
8.984118e-002 
8.496006e-002 
8.204199e-002 
7.985607e-002 
7.862402e-002 
7.801205e-002 
7.483760e-002 
6.918052e-002 
6.255018e-002 
5.816117e-002 
5.660153e-002 
5.476032e-002 
5.254213e-002 
4.873712e-002 
4.387763e-002 
4.026841e-002 
3.758333e-002 
3.615761e-002 
3.574251e-002 
3.318848e-002 
3.056239e-002 
3.188454e-002 
3.403469e-002 
3.758826e-002 
4.055194e-002 
4.352624e-002 
4.922701e-002 
5.508447e-002 
6.041069e-002 
6.682131e-002 
7.300969e-002 
7.746245e-002 
8.147998e-002 
8.482709e-002 
8.954435e-002 
9.273184e-002 
9.231217e-002 
9.141101e-002 
9.077071e-002 
9.165771e-002 
9.219433e-002 
9.029256e-002 
8.553152e-002 
8.080456e-002 
7.665211e-002 
7.359723e-002 
7.232151e-002 
7.104195e-002 
6.887657e-002 
6.361967e-002 
5.814780e-002 
5.458754e-002 
5.397340e-002 
5.316832e-002 
5.007111e-002 
4.566913e-002 
4.216024e-002 
3.921537e-002 
3.682059e-002 
3.528462e-002 
3.347707e-002 
3.257682e-002 
3.109324e-002 
2.920565e-002 
3.023763e-002 
3.368165e-002 
3.619783e-002 
3.919285e-002 
4.270352e-002 
4.823624e-002 
5.520030e-002 
5.980903e-002 
6.441742e-002 
7.041064e-002 
7.549669e-002 
8.012829e-002 
8.586645e-002 
9.098784e-002 
9.435540e-002 
9.408626e-002 
9.211468e-002 
9.142049e-002 
9.048494e-002 
8.867456e-002 
8.625488e-002 
8.323822e-002 
7.836262e-002 
7.274348e-002 
6.798325e-002 
6.576204e-002 
6.301108e-002 
5.784526e-002 
5.233523e-002 
4.741854e-002 
4.319876e-002 
3.994356e-002 
3.699317e-002 
3.359100e-002 
3.015027e-002 
2.504431e-002 
1.979819e-002 
1.757327e-002 
1.577777e-002 
1.381010e-002 
1.313766e-002 
1.114953e-002 
1.005193e-002 
1.123893e-002 
1.180363e-002 
1.384312e-002 
1.863705e-002 
2.292850e-002 
3.000258e-002 
3.866484e-002 
4.545356e-002 
5.240325e-002 
5.892892e-002 
6.491038e-002 
7.326967e-002 
8.178557e-002 
8.804222e-002 
9.232511e-002 
9.079181e-002 
8.442388e-002 
7.662880e-002 
6.829812e-002 
6.050955e-002 
5.421578e-002 
4.968849e-002 
4.635970e-002 
4.358002e-002 
3.884252e-002 
3.181439e-002 
2.459288e-002 
1.934961e-002 
1.707506e-002 
1.794170e-002 
2.070786e-002 
2.139374e-002 
1.893959e-002 
1.472824e-002 
1.342751e-002 
1.832796e-002 
2.770524e-002 
3.442118e-002 
3.748823e-002 
3.626303e-002 
3.041668e-002 
2.403846e-002 
1.936864e-002 
1.790666e-002 
1.874491e-002 
1.870944e-002 
1.686053e-002 
1.793847e-002 
2.184220e-002 
2.726411e-002 
3.054938e-002 
3.409025e-002 
4.001192e-002 
4.685510e-002 
5.306995e-002 
5.759229e-002 
6.071824e-002 
6.410387e-002 
6.518341e-002 
6.526118e-002 
6.936410e-002 
7.237369e-002 
7.239436e-002 
6.881912e-002 
6.340595e-002 
5.988214e-002 
5.830921e-002 
5.511742e-002 
5.239734e-002 
5.050229e-002 
4.802444e-002 
4.355589e-002 
3.772010e-002 
3.317469e-002 
2.916304e-002 
2.537004e-002 
2.123526e-002 
1.940943e-002 
1.892914e-002 
1.502238e-002 
7.945669e-003 
2.681352e-003 
3.022094e-004 
5.975068e-005 
-4.558548e-005 
-1.933188e-003 
-4.138285e-003 
-7.388167e-003 
-1.005023e-002 
-8.227659e-003 
-2.883927e-003 
2.876628e-003 
8.160748e-003 
1.164049e-002 
1.516194e-002 
2.188818e-002 
3.010372e-002 
3.643186e-002 
4.074850e-002 
4.313773e-002 
4.516802e-002 
4.832797e-002 
5.143920e-002 
5.348953e-002 
5.454887e-002 
5.277133e-002 
4.930563e-002 
4.818354e-002 
4.734846e-002 
4.428254e-002 
4.002612e-002 
3.425666e-002 
2.737879e-002 
2.211836e-002 
1.675764e-002 
1.047006e-002 
4.360904e-003 
-3.733419e-003 
-1.208962e-002 
-1.826059e-002 
-2.491667e-002 
-3.256301e-002 
-4.040413e-002 
-4.887737e-002 
-5.557598e-002 
-5.957067e-002 
-6.334837e-002 
-6.759657e-002 
-7.220188e-002 
-7.612192e-002 
-7.757208e-002 
-7.487315e-002 
-7.058118e-002 
-6.663096e-002 
-6.218848e-002 
-5.748088e-002 
-5.145457e-002 
-4.242932e-002 
-3.206166e-002 
-2.174719e-002 
-1.307377e-002 
-7.350044e-003 
-7.085553e-004 
8.668055e-003 
1.713564e-002 
2.331041e-002 
2.750632e-002 
3.023408e-002 
3.305663e-002 
3.514122e-002 
3.578067e-002 
3.671613e-002 
3.644971e-002 
3.400602e-002 
3.133893e-002 
2.870433e-002 
2.620894e-002 
2.260393e-002 
1.623540e-002 
1.003766e-002 
6.358345e-003 
3.779620e-003 
1.627256e-003 
-2.886616e-003 
-8.490886e-003 
-1.315686e-002 
-1.706235e-002 
-1.906322e-002 
-1.897150e-002 
-1.929190e-002 
-2.010407e-002 
-2.219756e-002 
-2.441151e-002 
-2.246606e-002 
-1.886431e-002 
-1.436540e-002 
-9.568085e-003 
-5.481641e-003 
-1.241913e-003 
3.446192e-003 
8.010756e-003 
1.357704e-002 
1.923893e-002 
2.444857e-002 
3.001645e-002 
3.424961e-002 
3.720455e-002 
3.822910e-002 
3.822668e-002 
3.812043e-002 
3.817592e-002 
3.856364e-002 
3.861037e-002 
3.590500e-002 
3.087610e-002 
2.592037e-002 
2.283965e-002 
2.160435e-002 
1.943888e-002 
1.564792e-002 
9.817357e-003 
2.325577e-003 
-4.606799e-003 
-9.513690e-003 
-1.304203e-002 
-1.684405e-002 
-2.265953e-002 
-2.832589e-002 
-3.215179e-002 
-3.455921e-002 
-3.587265e-002 
-3.700097e-002 
-3.913187e-002 
-4.232419e-002 
-4.419432e-002 
-4.296876e-002 
-3.923107e-002 
-3.552654e-002 
-3.154756e-002 
-2.831191e-002 
-2.389165e-002 
-1.835444e-002 
-1.204596e-002 
-5.393756e-003 
-5.138198e-004 
2.852789e-003 
5.545258e-003 
8.461223e-003 
1.070326e-002 
1.365857e-002 
1.585337e-002 
1.776921e-002 
1.711678e-002 
1.626650e-002 
1.567664e-002 
1.361966e-002 
1.104009e-002 
7.128975e-003 
2.734028e-003 
4.480390e-004 
-2.231159e-003 
-7.522796e-003 
-1.238583e-002 
-1.788420e-002 
-2.190879e-002 
-2.451681e-002 
-2.766988e-002 
-3.165133e-002 
-3.646280e-002 
-4.248977e-002 
-4.664001e-002 
-4.816472e-002 
-4.821676e-002 
-4.829014e-002 
-4.807303e-002 
-4.752703e-002 
-4.743672e-002 
-4.455700e-002 
-3.910658e-002 
-3.362561e-002 
-2.891654e-002 
-2.410347e-002 
-1.736081e-002 
-8.780891e-003 
-2.974443e-003 
5.743443e-004 
4.867383e-003 
8.483794e-003 
1.182726e-002 
1.592528e-002 
1.951917e-002 
2.226128e-002 
2.122753e-002 
1.792917e-002 
1.709349e-002 
1.899311e-002 
2.071949e-002 
2.122691e-002 
1.915280e-002 
1.446666e-002 
8.822807e-003 
2.742184e-003 
-3.243451e-004 
-1.856888e-003 
-4.805409e-003 
-9.359636e-003 
-1.381209e-002 
-1.807984e-002 
-2.231004e-002 
-2.713455e-002 
-3.178486e-002 
-3.487616e-002 
-3.786248e-002 
-4.061790e-002 
-4.237481e-002 
-4.376084e-002 
-4.546094e-002 
-4.601159e-002 
-4.380263e-002 
-3.896621e-002 
-3.270644e-002 
-2.770526e-002 
-2.416054e-002 
-1.917655e-002 
-1.444516e-002 
-9.346995e-003 
-3.407293e-003 
8.558286e-004 
4.268208e-003 
8.207116e-003 
1.109745e-002 
1.440256e-002 
1.695504e-002 
1.561171e-002 
1.384263e-002 
1.068793e-002 
8.082969e-003 
8.008539e-003 
6.981913e-003 
3.245458e-003 
-6.337124e-004 
-4.792738e-003 
-7.935608e-003 
-9.294084e-003 
-1.141255e-002 
-1.386881e-002 
-1.844964e-002 
-2.440088e-002 
-2.979050e-002 
-3.584214e-002 
-4.323415e-002 
-5.217698e-002 
-6.275984e-002 
-7.118858e-002 
-7.549439e-002 
-7.636619e-002 
-7.557957e-002 
-7.732073e-002 
-8.128066e-002 
-8.289386e-002 
-8.261420e-002 
-7.810886e-002 
-6.822799e-002 
-5.823089e-002 
-5.088123e-002 
-4.536942e-002 
-3.939853e-002 
-2.921481e-002 
-1.557128e-002 
-2.773969e-003 
8.962844e-003 
1.766471e-002 
2.246173e-002 
2.531974e-002 
2.753294e-002 
2.913363e-002 
3.030452e-002 
2.934337e-002 
2.625511e-002 
2.422952e-002 
2.292578e-002 
2.033863e-002 
1.642736e-002 
1.188498e-002 
8.040565e-003 
5.502308e-003 
1.371006e-003 
-3.598942e-003 
-7.566683e-003 
-1.315813e-002 
-1.912381e-002 
-2.245487e-002 
-2.474699e-002 
-2.686634e-002 
-2.973171e-002 
-3.471812e-002 
-3.867191e-002 
-4.070004e-002 
-4.243190e-002 
-4.276847e-002 
-4.228919e-002 
-4.196004e-002 
-3.919463e-002 
-3.487367e-002 
-3.071701e-002 
-2.630317e-002 
-2.254577e-002 
-1.925973e-002 
-1.432667e-002 
-8.451995e-003 
-2.417515e-003 
2.326742e-003 
4.813711e-003 
5.975977e-003 
6.334975e-003 
7.148737e-003 
9.068704e-003 
1.040540e-002 
9.056321e-003 
5.916126e-003 
2.345897e-003 
4.197538e-004 
-2.330425e-003 
-5.820518e-003 
-9.360742e-003 
-1.290282e-002 
-1.545905e-002 
-1.745268e-002 
-2.076342e-002 
-2.532644e-002 
-3.010275e-002 
-3.522515e-002 
-3.812473e-002 
-4.031501e-002 
-4.139548e-002 
-4.366745e-002 
-4.899006e-002 
-5.470182e-002 
-5.787500e-002 
-5.887141e-002 
-5.892408e-002 
-5.921265e-002 
-6.082956e-002 
-6.161065e-002 
-6.186773e-002 
-5.932538e-002 
-5.475374e-002 
-5.137034e-002 
-4.765449e-002 
-4.246454e-002 
-3.820659e-002 
-3.230707e-002 
-2.508265e-002 
-2.036312e-002 
-1.702504e-002 
-1.577712e-002 
-1.467540e-002 
-1.066297e-002 
-9.335686e-003 
-1.078721e-002 
-1.050979e-002 
-1.276846e-002 
-1.670900e-002 
-1.879060e-002 
-2.124836e-002 
-2.348691e-002 
-2.615272e-002 
-3.067602e-002 
-3.266049e-002 
-3.414547e-002 
-3.782632e-002 
-4.155898e-002 
-4.561228e-002 
-4.958183e-002 
-5.133776e-002 
-5.229678e-002 
-5.302417e-002 
-5.421466e-002 
-5.607556e-002 
-5.760506e-002 
-5.816691e-002 
-5.754695e-002 
-5.532141e-002 
-5.307038e-002 
-5.246693e-002 
-5.090669e-002 
-4.861380e-002 
-4.532769e-002 
-4.147756e-002 
-3.644089e-002 
-3.111889e-002 
-2.556275e-002 
-2.096132e-002 
-1.565486e-002 
-9.418286e-003 
-6.082117e-003 
-3.550410e-003 
-2.831319e-004 
2.902174e-003 
4.560232e-003 
5.378578e-003 
5.221161e-003 
5.440791e-003 
4.119672e-003 
2.126954e-003 
2.273077e-003 
2.080714e-003 
5.805850e-004 
-1.519824e-003 
-3.086489e-003 
-5.259236e-003 
-7.365858e-003 
-1.038723e-002 
-1.384004e-002 
-1.776630e-002 
-2.284390e-002 
-2.699058e-002 
-2.919996e-002 
-3.146494e-002 
-3.563020e-002 
-4.043026e-002 
-4.536492e-002 
-4.883390e-002 
-5.156554e-002 
-5.270018e-002 
-5.356087e-002 
-5.533855e-002 
-5.733159e-002 
-5.856633e-002 
-5.700856e-002 
-5.274082e-002 
-4.803607e-002 
-4.349848e-002 
-3.795810e-002 
-3.340856e-002 
-2.691643e-002 
-1.875725e-002 
-1.150666e-002 
-5.891421e-003 
-8.530364e-004 
3.099259e-003 
6.506406e-003 
9.220158e-003 
9.393359e-003 
9.959310e-003 
1.005355e-002 
8.590617e-003 
6.561879e-003 
4.236351e-003 
5.716424e-005 
-4.088458e-003 
-9.378490e-003 
-1.499070e-002 
-1.868088e-002 
-2.309027e-002 
-2.836579e-002 
-3.483678e-002 
-4.203596e-002 
-4.615292e-002 
-4.788968e-002 
-4.952111e-002 
-5.189605e-002 
-5.540993e-002 
-5.812276e-002 
-5.992631e-002 
-6.109246e-002 
-6.003064e-002 
-5.831692e-002 
-5.750269e-002 
-5.655244e-002 
-5.541681e-002 
-5.109384e-002 
-4.540585e-002 
-4.026545e-002 
-3.474807e-002 
-2.976734e-002 
-2.377277e-002 
-1.578752e-002 
-8.435120e-003 
-2.990401e-003 
6.018577e-004 
2.821592e-003 
5.097060e-003 
7.431125e-003 
1.016205e-002 
1.266630e-002 
1.227130e-002 
9.299868e-003 
5.213518e-003 
1.570044e-003 
-1.834917e-004 
-2.186315e-003 
-3.970146e-003 
-6.894336e-003 
-1.173089e-002 
-1.755971e-002 
-2.365411e-002 
-2.929923e-002 
-3.281872e-002 
-3.573213e-002 
-3.925197e-002 
-4.219467e-002 
-4.570015e-002 
-4.964307e-002 
-5.551226e-002 
-5.979710e-002 
-6.111816e-002 
-6.119676e-002 
-6.186135e-002 
-6.208855e-002 
-6.061063e-002 
-5.884084e-002 
-5.765572e-002 
-5.507312e-002 
-4.870838e-002 
-4.318748e-002 
-3.829558e-002 
-3.393598e-002 
-2.827582e-002 
-2.106606e-002 
-1.521076e-002 
-1.001346e-002 
-5.111621e-003 
-1.503120e-003 
2.807548e-004 
2.657506e-003 
4.189555e-003 
5.525714e-003 
3.981677e-003 
4.263568e-004 
-2.237371e-003 
-4.511072e-003 
-6.323778e-003 
-8.701137e-003 
-1.116691e-002 
-1.542309e-002 
-2.056543e-002 
-2.450884e-002 
-2.586809e-002 
-2.863521e-002 
-3.401238e-002 
-4.092566e-002 
-4.677245e-002 
-5.033909e-002 
-5.404994e-002 
-5.691041e-002 
-5.878910e-002 
-6.292174e-002 
-6.901750e-002 
-7.283217e-002 
-7.410501e-002 
-7.302282e-002 
-7.240728e-002 
-7.239776e-002 
-7.161827e-002 
-6.908107e-002 
-6.551048e-002 
-6.025445e-002 
-5.302206e-002 
-4.553305e-002 
-3.957995e-002 
-3.454525e-002 
-3.208220e-002 
-3.356547e-002 
-3.692433e-002 
-4.075796e-002 
-4.225148e-002 
-3.964890e-002 
-3.604547e-002 
-3.527866e-002 
-3.839523e-002 
-4.563353e-002 
-5.248237e-002 
-5.512714e-002 
-5.300402e-002 
-4.930454e-002 
-4.732964e-002 
-4.830207e-002 
-5.202425e-002 
-5.483879e-002 
-5.419223e-002 
-5.105613e-002 
-4.592479e-002 
-4.144679e-002 
-3.969003e-002 
-3.927402e-002 
-4.004623e-002 
-4.363827e-002 
-4.802915e-002 
-5.334691e-002 
-5.778362e-002 
-5.937934e-002 
-5.939132e-002 
-5.912364e-002 
-5.938548e-002 
-6.013698e-002 
-6.001704e-002 
-5.705252e-002 
-5.254187e-002 
-4.639028e-002 
-3.997289e-002 
-3.391368e-002 
-2.854800e-002 
-2.222481e-002 
-1.523369e-002 
-8.386995e-003 
-2.193389e-003 
2.935533e-003 
7.631080e-003 
1.272120e-002 
1.677815e-002 
1.788268e-002 
1.819537e-002 
1.766973e-002 
1.795993e-002 
1.899432e-002 
1.880015e-002 
1.656460e-002 
1.331654e-002 
8.718436e-003 
5.351303e-003 
5.201055e-003 
4.551109e-003 
2.503117e-003 
-1.193837e-003 
-6.334302e-003 
-1.126323e-002 
-1.392232e-002 
-1.629760e-002 
-1.933122e-002 
-2.349941e-002 
-2.896750e-002 
-3.272834e-002 
-3.485099e-002 
-3.692990e-002 
-3.983133e-002 
-4.302425e-002 
-4.683232e-002 
-4.883053e-002 
-4.819809e-002 
-4.611366e-002 
-4.489407e-002 
-4.471778e-002 
-4.339094e-002 
-4.023309e-002 
-3.361168e-002 
-2.572237e-002 
-1.910997e-002 
-1.423407e-002 
-9.688336e-003 
-4.831915e-003 
2.899776e-003 
1.134588e-002 
1.733044e-002 
2.102185e-002 
2.228437e-002 
2.273150e-002 
2.568817e-002 
2.996581e-002 
3.118172e-002 
2.983838e-002 
2.600609e-002 
2.125412e-002 
1.790401e-002 
1.487683e-002 
1.133806e-002 
8.677775e-003 
4.190297e-003 
-2.343223e-003 
-8.442131e-003 
-1.389842e-002 
-1.980379e-002 
-2.539106e-002 
-3.106640e-002 
-3.562708e-002 
-3.769837e-002 
-4.066359e-002 
-4.623025e-002 
-5.164010e-002 
-5.543381e-002 
-5.766198e-002 
-5.660744e-002 
-5.515737e-002 
-5.355595e-002 
-5.118512e-002 
-4.967458e-002 
-4.721065e-002 
-4.192976e-002 
-3.501213e-002 
-2.798410e-002 
-2.118603e-002 
-1.423501e-002 
-6.027675e-003 
3.880169e-003 
1.295418e-002 
1.874223e-002 
2.260308e-002 
2.749221e-002 
3.240662e-002 
3.798973e-002 
4.201399e-002 
4.331420e-002 
4.399927e-002 
4.180965e-002 
3.884534e-002 
3.826627e-002 
3.806322e-002 
3.564208e-002 
3.245280e-002 
2.824291e-002 
2.534254e-002 
2.261932e-002 
1.773006e-002 
1.230051e-002 
5.931779e-003 
-9.746877e-004 
-5.853754e-003 
-7.502989e-003 
-9.213754e-003 
-1.209985e-002 
-1.690564e-002 
-2.175368e-002 
-2.495194e-002 
-2.597152e-002 
-2.545209e-002 
-2.343296e-002 
-2.122906e-002 
-1.997758e-002 
-1.778582e-002 
-1.363704e-002 
-7.105614e-003 
2.078191e-004 
6.604236e-003 
1.298797e-002 
2.078817e-002 
2.916757e-002 
3.691016e-002 
4.253449e-002 
4.692935e-002 
5.119744e-002 
5.390540e-002 
5.531422e-002 
5.763985e-002 
5.932965e-002 
5.930842e-002 
5.716355e-002 
5.347538e-002 
5.152382e-002 
4.995313e-002 
4.637130e-002 
4.196772e-002 
3.842795e-002 
3.484629e-002 
3.148103e-002 
2.810557e-002 
2.370335e-002 
1.906912e-002 
1.330809e-002 
8.114020e-003 
4.805570e-003 
3.689572e-003 
2.145339e-003 
-6.174578e-004 
-5.431976e-003 
-1.008517e-002 
-1.198791e-002 
-1.253729e-002 
-1.175670e-002 
-1.069742e-002 
-8.955753e-003 
-7.529329e-003 
-5.017767e-003 
6.363107e-005 
6.768101e-003 
1.168992e-002 
1.646329e-002 
2.221424e-002 
2.842985e-002 
3.512117e-002 
4.083310e-002 
4.724998e-002 
5.218640e-002 
5.419594e-002 
5.718940e-002 
6.246430e-002 
6.452071e-002 
6.403262e-002 
6.135515e-002 
5.816563e-002 
5.571076e-002 
5.214577e-002 
4.998983e-002 
4.811270e-002 
4.443508e-002 
3.909470e-002 
3.518825e-002 
3.143875e-002 
2.746001e-002 
2.177223e-002 
1.570257e-002 
9.978673e-003 
4.257907e-003 
-5.090683e-004 
-4.972408e-003 
-8.425252e-003 
-1.135854e-002 
-1.321476e-002 
-1.392974e-002 
-1.296044e-002 
-1.186207e-002 
-1.148161e-002 
-1.090650e-002 
-7.913660e-003 
-3.355987e-003 
1.295307e-003 
5.811923e-003 
1.147658e-002 
1.845720e-002 
2.547763e-002 
3.357738e-002 
4.269243e-002 
5.020441e-002 
5.427907e-002 
5.599216e-002 
5.836143e-002 
6.142927e-002 
6.267874e-002 
6.248599e-002 
6.123082e-002 
5.777823e-002 
5.406744e-002 
5.036120e-002 
4.687114e-002 
4.360790e-002 
3.890916e-002 
3.328439e-002 
2.726047e-002 
2.118322e-002 
1.522688e-002 
9.150991e-003 
2.837505e-003 
-2.922917e-003 
-7.478576e-003 
-1.017091e-002 
-1.290694e-002 
-1.622924e-002 
-1.989148e-002 
-2.410903e-002 
-2.691657e-002 
-2.668263e-002 
-2.544199e-002 
-2.394954e-002 
-2.336121e-002 
-2.296476e-002 
-2.120090e-002 
-1.716143e-002 
-1.199872e-002 
-6.562666e-003 
5.279098e-005 
6.132128e-003 
1.050177e-002 
1.490307e-002 
2.060801e-002 
2.603913e-002 
2.971328e-002 
3.059763e-002 
3.251686e-002 
3.680305e-002 
3.946991e-002 
3.911361e-002 
3.684991e-002 
3.163678e-002 
2.183601e-002 
9.071066e-003 
-3.864215e-003 
-1.603392e-002 
-2.735984e-002 
-3.660708e-002 
-4.404245e-002 
-5.057056e-002 
-5.667681e-002 
-6.408270e-002 
-7.213177e-002 
-7.923231e-002 
-8.281430e-002 
-8.011449e-002 
-7.557442e-002 
-7.397196e-002 
-7.420404e-002 
-7.482160e-002 
-7.377133e-002 
-6.838657e-002 
-5.726294e-002 
-4.306740e-002 
-3.195375e-002 
-2.676027e-002 
-2.317769e-002 
-2.029537e-002 
-1.705793e-002 
-1.230636e-002 
-7.576297e-003 
-2.253079e-003 
1.857089e-003 
6.491544e-003 
1.399071e-002 
2.172355e-002 
2.625518e-002 
2.881991e-002 
2.945586e-002 
3.150015e-002 
3.489228e-002 
3.666131e-002 
3.779496e-002 
3.691676e-002 
3.366958e-002 
3.044717e-002 
2.732152e-002 
2.586940e-002 
2.575746e-002 
2.238283e-002 
1.730698e-002 
1.504020e-002 
1.403896e-002 
1.165445e-002 
9.051640e-003 
4.566981e-003 
9.627990e-004 
-1.581167e-003 
-5.161191e-003 
-7.363864e-003 
-7.213180e-003 
-1.025806e-002 
-1.517011e-002 
-2.006558e-002 
-2.539862e-002 
-2.709073e-002 
-2.783732e-002 
-3.078756e-002 
-3.215781e-002 
-3.197608e-002 
-3.233690e-002 
-3.127127e-002 
-3.033092e-002 
-2.808580e-002 
-2.314183e-002 
-1.822558e-002 
-1.333470e-002 
-6.799994e-003 
-1.065994e-003 
3.895396e-003 
8.780657e-003 
1.407202e-002 
2.082181e-002 
2.687695e-002 
3.155149e-002 
3.470141e-002 
3.622796e-002 
3.686088e-002 
3.755209e-002 
3.815829e-002 
3.813239e-002 
3.675629e-002 
3.353929e-002 
3.103379e-002 
2.804885e-002 
2.482396e-002 
2.271181e-002 
2.116454e-002 
1.804605e-002 
1.366824e-002 
8.498699e-003 
1.835408e-003 
-2.306388e-003 
-6.343534e-003 
-1.033960e-002 
-1.339179e-002 
-1.787785e-002 
-2.447045e-002 
-2.964466e-002 
-3.484008e-002 
-3.865490e-002 
-3.839480e-002 
-4.072247e-002 
-4.350978e-002 
-4.541094e-002 
-4.712518e-002 
-4.688826e-002 
-4.399072e-002 
-4.053416e-002 
-3.585768e-002 
-3.104976e-002 
-2.772533e-002 
-2.069573e-002 
-1.304233e-002 
-6.226495e-003 
-2.289289e-004 
6.119996e-003 
1.222411e-002 
1.825950e-002 
2.380835e-002 
2.850312e-002 
3.278151e-002 
3.345870e-002 
3.407953e-002 
3.615562e-002 
3.909878e-002 
4.034114e-002 
3.916253e-002 
3.673410e-002 
3.567561e-002 
3.583559e-002 
3.538783e-002 
3.563035e-002 
3.396277e-002 
3.108512e-002 
2.791429e-002 
2.493796e-002 
2.367367e-002 
2.374348e-002 
2.093259e-002 
1.530828e-002 
1.034939e-002 
6.878641e-003 
6.248387e-003 
4.884078e-003 
1.557313e-003 
-1.551620e-003 
-3.068650e-003 
-4.798993e-003 
-4.491457e-003 
-1.362915e-003 
2.245197e-003 
4.936365e-003 
7.319114e-003 
1.213005e-002 
1.939449e-002 
2.700445e-002 
3.197726e-002 
3.741074e-002 
4.394802e-002 
5.001781e-002 
5.638677e-002 
6.268389e-002 
6.688254e-002 
6.861331e-002 
6.899114e-002 
6.940973e-002 
7.243680e-002 
7.389067e-002 
7.246785e-002 
7.016736e-002 
6.650450e-002 
6.446560e-002 
6.397409e-002 
6.222045e-002 
5.922736e-002 
5.513730e-002 
5.003798e-002 
4.709467e-002 
4.545695e-002 
4.268573e-002 
3.872217e-002 
3.106457e-002 
2.344297e-002 
1.926391e-002 
1.727093e-002 
1.654946e-002 
1.407255e-002 
8.038296e-003 
7.521698e-004 
-4.230993e-003 
-5.990137e-003 
-4.004226e-003 
-2.603806e-003 
-3.552134e-003 
-3.686892e-003 
-2.215140e-003 
1.646459e-003 
8.531643e-003 
1.650539e-002 
2.196800e-002 
2.602919e-002 
3.032931e-002 
3.731862e-002 
4.687916e-002 
5.458820e-002 
5.906678e-002 
6.343354e-002 
6.652321e-002 
6.819957e-002 
7.181827e-002 
7.587878e-002 
7.706467e-002 
7.475107e-002 
7.105193e-002 
6.915602e-002 
6.959229e-002 
6.695365e-002 
6.210038e-002 
5.845761e-002 
5.578861e-002 
5.249870e-002 
5.003890e-002 
4.746800e-002 
4.273645e-002 
3.628736e-002 
2.918288e-002 
2.490813e-002 
2.473910e-002 
2.333875e-002 
1.903378e-002 
1.400509e-002 
9.055615e-003 
5.579863e-003 
4.483286e-003 
3.648700e-003 
1.676491e-003 
-1.144111e-003 
-3.800934e-003 
-2.889859e-003 
3.729192e-004 
4.814097e-003 
8.567533e-003 
1.188729e-002 
1.519728e-002 
1.994548e-002 
2.767593e-002 
3.614478e-002 
4.185473e-002 
4.585124e-002 
4.956877e-002 
5.358023e-002 
5.925936e-002 
6.387628e-002 
6.719241e-002 
6.920692e-002 
6.910203e-002 
6.856884e-002 
6.982380e-002 
7.018331e-002 
6.801504e-002 
6.367147e-002 
5.896588e-002 
5.723704e-002 
5.758003e-002 
5.735113e-002 
5.493635e-002 
5.130920e-002 
4.633928e-002 
4.144180e-002 
3.773424e-002 
3.588098e-002 
3.356951e-002 
2.873144e-002 
2.305671e-002 
1.737529e-002 
1.392617e-002 
1.153270e-002 
7.141269e-003 
9.161364e-004 
-3.438818e-003 
-6.657435e-003 
-8.422003e-003 
-8.521240e-003 
-9.383671e-003 
-9.771765e-003 
-1.016754e-002 
-1.072060e-002 
-6.859064e-003 
1.892039e-003 
8.689761e-003 
1.385120e-002 
1.835955e-002 
2.195613e-002 
2.757249e-002 
3.404565e-002 
4.013741e-002 
4.724974e-002 
5.192796e-002 
5.241071e-002 
5.380956e-002 
5.458570e-002 
5.572194e-002 
5.715540e-002 
5.600828e-002 
5.349816e-002 
5.149591e-002 
4.855165e-002 
4.512450e-002 
4.251579e-002 
4.032795e-002 
3.949748e-002 
3.748977e-002 
3.474820e-002 
3.130698e-002 
2.882860e-002 
2.654885e-002 
2.381560e-002 
2.112007e-002 
1.787751e-002 
1.282817e-002 
3.708119e-003 
-1.016080e-002 
-2.738575e-002 
-4.264962e-002 
-5.647787e-002 
-6.905059e-002 
-7.700180e-002 
-8.070572e-002 
-8.506613e-002 
-9.169277e-002 
-9.791625e-002 
-9.973151e-002 
-9.521390e-002 
-8.779847e-002 
-7.809923e-002 
-6.528126e-002 
-5.504044e-002 
-4.789286e-002 
-3.713470e-002 
-2.122748e-002 
-1.416053e-003 
1.907512e-002 
3.646543e-002 
4.929891e-002 
5.854997e-002 
6.247219e-002 
6.412237e-002 
6.586036e-002 
6.481809e-002 
6.127430e-002 
5.820124e-002 
5.668550e-002 
5.527843e-002 
5.371336e-002 
4.935587e-002 
4.436984e-002 
4.070420e-002 
3.707703e-002 
3.511245e-002 
3.511923e-002 
3.269770e-002 
2.621720e-002 
2.032741e-002 
1.737316e-002 
1.738205e-002 
1.839095e-002 
1.763396e-002 
1.575013e-002 
1.222659e-002 
7.584260e-003 
4.795665e-003 
4.984754e-003 
4.282624e-003 
3.336293e-004 
-3.509236e-003 
-5.012188e-003 
-3.401891e-003 
-3.775993e-004 
2.807082e-003 
4.320927e-003 
5.023611e-003 
7.236548e-003 
1.190979e-002 
1.963543e-002 
2.663491e-002 
3.129894e-002 
3.416948e-002 
3.727858e-002 
4.174261e-002 
4.934507e-002 
5.732762e-002 
6.056423e-002 
6.054869e-002 
5.947372e-002 
5.936259e-002 
5.996308e-002 
6.046801e-002 
5.892896e-002 
5.595406e-002 
5.064013e-002 
4.456902e-002 
4.215356e-002 
4.218489e-002 
4.064429e-002 
3.656760e-002 
3.143409e-002 
2.549891e-002 
2.103551e-002 
1.749153e-002 
1.332018e-002 
9.549788e-003 
4.676353e-003 
-8.113681e-004 
-4.318583e-003 
-7.298536e-003 
-1.138015e-002 
-1.500514e-002 
-1.947231e-002 
-2.466931e-002 
-2.780662e-002 
-2.954514e-002 
-2.993028e-002 
-3.079609e-002 
-3.159927e-002 
-3.140107e-002 
-2.981279e-002 
-2.722134e-002 
-2.269890e-002 
-1.693792e-002 
-1.110695e-002 
-6.364429e-003 
-2.259240e-003 
2.394400e-003 
6.190857e-003 
1.058150e-002 
1.562310e-002 
1.985357e-002 
2.228587e-002 
2.313250e-002 
2.283703e-002 
2.284255e-002 
2.258664e-002 
2.151356e-002 
1.929522e-002 
1.597016e-002 
1.300348e-002 
1.064854e-002 
8.700181e-003 
8.372940e-003 
8.129429e-003 
6.053470e-003 
2.479113e-003 
-4.435471e-005 
-3.615893e-004 
4.683982e-004 
3.204124e-005 
-9.862237e-004 
-2.788674e-003 
-4.753085e-003 
-4.955105e-003 
-4.833571e-003 
-5.079279e-003 
-6.588247e-003 
-9.731465e-003 
-1.314899e-002 
-1.486429e-002 
-1.585431e-002 
-1.420202e-002 
-1.415002e-002 
-1.777757e-002 
-1.917477e-002 
-1.573505e-002 
-9.887749e-003 
-2.895866e-003 
2.732379e-003 
5.958817e-003 
9.229621e-003 
1.271864e-002 
1.882990e-002 
2.893581e-002 
3.897571e-002 
4.511665e-002 
4.797825e-002 
4.999337e-002 
5.444041e-002 
6.179000e-002 
6.793766e-002 
7.007947e-002 
6.976573e-002 
6.839246e-002 
6.677010e-002 
6.524967e-002 
6.647319e-002 
6.749100e-002 
6.575714e-002 
6.155364e-002 
5.733959e-002 
5.558197e-002 
5.441962e-002 
5.185196e-002 
4.759100e-002 
4.350571e-002 
3.785567e-002 
3.424285e-002 
3.154330e-002 
2.805482e-002 
2.410631e-002 
1.964304e-002 
1.481230e-002 
1.034812e-002 
7.190840e-003 
4.618028e-003 
3.479726e-003 
1.509558e-004 
-3.422118e-003 
-3.945506e-003 
-2.757300e-003 
-2.314586e-003 
-3.581750e-004 
3.948504e-003 
9.013699e-003 
1.412579e-002 
1.844030e-002 
2.328610e-002 
2.931730e-002 
3.486817e-002 
3.991143e-002 
4.699452e-002 
5.469760e-002 
6.052596e-002 
6.379101e-002 
6.595714e-002 
6.720397e-002 
6.884815e-002 
6.970021e-002 
6.917082e-002 
6.880800e-002 
6.818267e-002 
6.481966e-002 
6.014878e-002 
5.726614e-002 
5.354584e-002 
5.052754e-002 
4.715989e-002 
4.292808e-002 
3.908661e-002 
3.463307e-002 
2.777123e-002 
2.332454e-002 
1.923535e-002 
1.415713e-002 
1.076145e-002 
5.821960e-003 
4.481618e-004 
-3.237969e-003 
-6.401081e-003 
-9.776707e-003 
-1.155286e-002 
-1.455475e-002 
-1.640442e-002 
-1.805511e-002 
-1.855192e-002 
-1.655717e-002 
-1.282974e-002 
-8.687139e-003 
-5.783903e-003 
-2.111442e-003 
3.021110e-003 
8.759770e-003 
1.458764e-002 
2.249585e-002 
2.870422e-002 
3.462648e-002 
3.958388e-002 
4.227209e-002 
4.578357e-002 
4.920852e-002 
5.060328e-002 
5.215804e-002 
5.379466e-002 
5.293870e-002 
5.184852e-002 
4.935661e-002 
4.705452e-002 
4.674039e-002 
4.613916e-002 
4.461300e-002 
4.405492e-002 
4.207550e-002 
3.765195e-002 
3.321212e-002 
2.975569e-002 
2.718347e-002 
2.474625e-002 
2.200347e-002 
1.968223e-002 
1.710561e-002 
1.262023e-002 
7.744814e-003 
3.904793e-003 
-3.953292e-004 
-4.855397e-003 
-7.614911e-003 
-9.643071e-003 
-1.244453e-002 
-1.556854e-002 
-1.756890e-002 
-1.756121e-002 
-1.573350e-002 
-1.294217e-002 
-8.033168e-003 
-2.744024e-003 
1.325556e-003 
4.327258e-003 
8.378439e-003 
1.404772e-002 
2.003509e-002 
2.443187e-002 
2.823141e-002 
3.225085e-002 
3.499059e-002 
3.716506e-002 
3.908413e-002 
4.086437e-002 
4.079755e-002 
3.822573e-002 
3.551420e-002 
3.429130e-002 
3.240558e-002 
2.931003e-002 
2.626278e-002 
2.337441e-002 
2.035894e-002 
1.785375e-002 
1.672154e-002 
1.521065e-002 
1.133415e-002 
6.136180e-003 
2.096172e-003 
-3.559543e-004 
-2.365197e-003 
-3.633620e-003 
-5.180041e-003 
-8.518280e-003 
-1.278043e-002 
-1.560470e-002 
-1.589975e-002 
-1.588329e-002 
-1.908926e-002 
-2.363217e-002 
-2.874528e-002 
-3.710839e-002 
-4.604075e-002 
-5.219598e-002 
-5.496637e-002 
-5.491858e-002 
-5.211191e-002 
-4.683814e-002 
-3.917881e-002 
-3.410456e-002 
-3.223663e-002 
-2.903654e-002 
-2.224563e-002 
-1.269185e-002 
-1.916276e-003 
8.254203e-003 
1.514570e-002 
1.902723e-002 
2.115683e-002 
2.718282e-002 
3.719533e-002 
4.752681e-002 
5.325885e-002 
5.345760e-002 
4.993839e-002 
4.485039e-002 
3.843193e-002 
3.302750e-002 
2.875313e-002 
2.187336e-002 
1.446070e-002 
7.864405e-003 
3.600195e-003 
8.503735e-004 
-2.916223e-003 
-8.871367e-003 
-1.405394e-002 
-1.874587e-002 
-2.189777e-002 
-2.398165e-002 
-2.577441e-002 
-2.742364e-002 
-2.951855e-002 
-3.081190e-002 
-3.086443e-002 
-2.830202e-002 
-2.488740e-002 
-2.347727e-002 
-2.130273e-002 
-1.502465e-002 
-8.020644e-003 
-7.881719e-004 
5.995170e-003 
1.150120e-002 
1.782026e-002 
2.336742e-002 
2.868245e-002 
3.653924e-002 
4.228362e-002 
4.371959e-002 
4.418508e-002 
4.446455e-002 
4.506926e-002 
4.651643e-002 
4.582026e-002 
4.298851e-002 
3.927028e-002 
3.457468e-002 
3.119303e-002 
2.875816e-002 
2.521093e-002 
1.984158e-002 
1.537748e-002 
1.010129e-002 
4.492833e-003 
8.331619e-004 
-2.969607e-003 
-7.286979e-003 
-1.134162e-002 
-1.501543e-002 
-1.779631e-002 
-1.912983e-002 
-2.277767e-002 
-2.624967e-002 
-2.879897e-002 
-3.184470e-002 
-3.321719e-002 
-3.346871e-002 
-3.463494e-002 
-3.619039e-002 
-3.594739e-002 
-3.255978e-002 
-2.622805e-002 
-2.076688e-002 
-1.646933e-002 
-1.343746e-002 
-1.037501e-002 
-5.820993e-003 
5.170298e-005 
7.366756e-003 
1.481810e-002 
1.795643e-002 
1.847268e-002 
2.029753e-002 
2.285923e-002 
2.577152e-002 
2.660097e-002 
2.362138e-002 
2.083115e-002 
1.853487e-002 
1.442888e-002 
1.197614e-002 
9.484988e-003 
3.777763e-003 
-3.012448e-003 
-8.036986e-003 
-1.075037e-002 
-1.099158e-002 
-1.393268e-002 
-2.004626e-002 
-2.558189e-002 
-3.007034e-002 
-3.391425e-002 
-3.522642e-002 
-3.494191e-002 
-3.652651e-002 
-3.901789e-002 
-4.208609e-002 
-4.236184e-002 
-3.922290e-002 
-3.788744e-002 
-3.927955e-002 
-3.996893e-002 
-3.938595e-002 
-3.573939e-002 
-2.870409e-002 
-2.178321e-002 
-1.461175e-002 
-1.016901e-002 
-7.322359e-003 
-1.851524e-005 
1.001430e-002 
1.966228e-002 
2.875085e-002 
3.642839e-002 
4.213288e-002 
4.870955e-002 
5.508710e-002 
6.204139e-002 
6.788006e-002 
6.948021e-002 
6.887506e-002 
7.068774e-002 
7.306173e-002 
7.306969e-002 
7.202559e-002 
6.877997e-002 
6.548809e-002 
6.315572e-002 
6.156268e-002 
6.080903e-002 
5.961147e-002 
5.445466e-002 
4.831096e-002 
4.351589e-002 
4.054734e-002 
3.884027e-002 
3.485803e-002 
2.955118e-002 
2.408761e-002 
1.963829e-002 
1.801841e-002 
1.705959e-002 
1.432860e-002 
1.057207e-002 
4.738563e-003 
-8.403421e-004 
-3.459282e-003 
-4.366674e-003 
-2.967135e-003 
-1.867861e-003 
-3.218970e-003 
-2.750756e-003 
1.286639e-003 
6.375917e-003 
1.173536e-002 
1.622272e-002 
2.204445e-002 
2.954071e-002 
3.610103e-002 
4.201125e-002 
4.864643e-002 
5.424250e-002 
5.709832e-002 
5.814899e-002 
6.199281e-002 
6.758539e-002 
6.915823e-002 
6.821873e-002 
6.599818e-002 
6.417433e-002 
6.301001e-002 
6.104559e-002 
5.862834e-002 
5.795385e-002 
5.334772e-002 
4.722293e-002 
4.390198e-002 
3.984900e-002 
3.445145e-002 
2.836448e-002 
2.178425e-002 
1.738596e-002 
1.455553e-002 
1.085039e-002 
8.627757e-003 
5.711252e-003 
6.040921e-004 
-4.149951e-003 
-6.928553e-003 
-7.158099e-003 
-7.461162e-003 
-9.699766e-003 
-1.142643e-002 
-1.134251e-002 
-9.185253e-003 
-5.166110e-003 
-9.821746e-004 
3.847524e-003 
9.602401e-003 
1.414397e-002 
2.003454e-002 
2.739173e-002 
3.423412e-002 
3.979781e-002 
4.341314e-002 
4.694435e-002 
5.280439e-002 
5.824970e-002 
6.166902e-002 
6.380137e-002 
6.381269e-002 
6.319423e-002 
6.292524e-002 
6.265066e-002 
6.211312e-002 
6.026719e-002 
5.715648e-002 
5.396456e-002 
5.220601e-002 
5.037191e-002 
4.647527e-002 
4.115800e-002 
3.543466e-002 
3.015085e-002 
2.680498e-002 
2.446148e-002 
2.107623e-002 
1.720891e-002 
1.043767e-002 
4.164039e-003 
2.257883e-003 
9.519298e-004 
-1.461159e-003 
-3.384676e-003 
-5.863114e-003 
-8.263924e-003 
-8.534125e-003 
-7.074547e-003 
-3.165159e-003 
1.065081e-003 
3.630030e-003 
8.943151e-003 
1.712582e-002 
2.401989e-002 
3.053789e-002 
3.695169e-002 
4.206344e-002 
4.818439e-002 
5.536676e-002 
6.150863e-002 
6.701126e-002 
6.878065e-002 
6.781151e-002 
6.776058e-002 
6.733280e-002 
6.619409e-002 
6.581364e-002 
6.198078e-002 
5.500016e-002 
4.984032e-002 
4.597900e-002 
4.229135e-002 
3.822662e-002 
3.179574e-002 
2.562449e-002 
2.080964e-002 
1.473791e-002 
1.034980e-002 
7.045086e-003 
1.171407e-003 
-4.742430e-003 
-7.939117e-003 
-9.307601e-003 
-9.403607e-003 
-1.141459e-002 
-1.475139e-002 
-1.670711e-002 
-1.852801e-002 
-1.893437e-002 
-1.668588e-002 
-1.375866e-002 
-1.153990e-002 
-1.026878e-002 
-6.736887e-003 
-5.774672e-004 
6.004872e-003 
1.157954e-002 
1.653386e-002 
2.219657e-002 
3.023402e-002 
3.811751e-002 
4.507456e-002 
5.096569e-002 
5.337441e-002 
5.533546e-002 
5.879520e-002 
6.206596e-002 
6.362411e-002 
6.069880e-002 
4.935970e-002 
3.314996e-002 
1.793388e-002 
6.805412e-003 
6.361227e-004 
-3.647806e-003 
-9.299293e-003 
-1.609334e-002 
-2.533368e-002 
-3.637095e-002 
-4.473024e-002 
-4.754345e-002 
-4.783605e-002 
-4.734176e-002 
-4.563159e-002 
-4.467545e-002 
-4.539347e-002 
-4.602800e-002 
-4.415880e-002 
-3.736200e-002 
-2.631474e-002 
-1.690222e-002 
-1.057152e-002 
-8.087195e-003 
-9.566759e-003 
-1.032297e-002 
-8.814443e-003 
-6.085832e-003 
-2.423078e-005 
4.998384e-003 
7.622120e-003 
1.210147e-002 
1.895682e-002 
2.757061e-002 
3.382807e-002 
3.604172e-002 
3.968117e-002 
4.468286e-002 
4.719920e-002 
5.169368e-002 
5.669306e-002 
5.925334e-002 
5.746390e-002 
5.297434e-002 
5.269884e-002 
5.517919e-002 
5.278065e-002 
4.842293e-002 
4.568451e-002 
4.303569e-002 
4.107727e-002 
3.725687e-002 
3.280141e-002 
2.987915e-002 
2.373828e-002 
1.634318e-002 
1.315189e-002 
1.159406e-002 
1.043554e-002 
6.142413e-003 
-1.260669e-003 
-6.277557e-003 
-8.897142e-003 
-1.149086e-002 
-1.263590e-002 
-1.399048e-002 
-1.495589e-002 
-1.446724e-002 
-1.463735e-002 
-1.212391e-002 
-8.962196e-003 
-7.028656e-003 
-3.014959e-003 
2.969193e-003 
9.637489e-003 
1.809389e-002 
2.409958e-002 
2.700731e-002 
2.985277e-002 
3.212740e-002 
3.748003e-002 
4.423163e-002 
4.851811e-002 
4.958574e-002 
4.798789e-002 
4.481732e-002 
4.331408e-002 
4.203622e-002 
4.037132e-002 
3.766054e-002 
3.370685e-002 
2.955826e-002 
2.475940e-002 
2.013964e-002 
1.667371e-002 
1.207149e-002 
4.518362e-003 
-1.902335e-003 
-6.800853e-003 
-1.127164e-002 
-1.662685e-002 
-2.188561e-002 
-2.648007e-002 
-3.130264e-002 
-3.683385e-002 
-4.095372e-002 
-4.325329e-002 
-4.632241e-002 
-5.024856e-002 
-5.216315e-002 
-5.142144e-002 
-5.087839e-002 
-5.059792e-002 
-4.893420e-002 
-4.519387e-002 
-4.057444e-002 
-3.549161e-002 
-2.840438e-002 
-2.038854e-002 
-1.444560e-002 
-1.049821e-002 
-5.874301e-003 
3.113298e-004 
7.989973e-003 
1.444329e-002 
1.941013e-002 
2.309367e-002 
2.533307e-002 
2.651428e-002 
2.843762e-002 
3.023469e-002 
3.137334e-002 
3.228330e-002 
3.089919e-002 
2.872435e-002 
2.717080e-002 
2.618607e-002 
2.228392e-002 
1.788507e-002 
1.440282e-002 
1.151181e-002 
9.238088e-003 
6.449354e-003 
2.905736e-003 
-1.221711e-003 
-6.257497e-003 
-1.078870e-002 
-1.124803e-002 
-1.198535e-002 
-1.416767e-002 
-1.419479e-002 
-1.442606e-002 
-1.503393e-002 
-1.248155e-002 
-6.951612e-003 
-1.452764e-003 
3.658091e-003 
7.148828e-003 
1.302431e-002 
2.175494e-002 
2.733629e-002 
3.215667e-002 
3.771459e-002 
4.187943e-002 
4.540744e-002 
5.078709e-002 
5.597425e-002 
6.022251e-002 
6.182165e-002 
5.957668e-002 
5.758767e-002 
5.758702e-002 
5.785325e-002 
5.604298e-002 
5.248870e-002 
4.790022e-002 
4.410995e-002 
4.228406e-002 
4.042456e-002 
3.886473e-002 
3.741325e-002 
3.379322e-002 
2.854470e-002 
2.513594e-002 
2.177620e-002 
1.771295e-002 
1.294140e-002 
8.190954e-003 
4.805710e-003 
1.628714e-003 
-1.898482e-003 
-5.402007e-003 
-8.547815e-003 
-1.177286e-002 
-1.263549e-002 
-1.093954e-002 
-7.596616e-003 
-6.734194e-003 
-6.312194e-003 
-3.794847e-003 
4.530050e-004 
6.822112e-003 
1.392626e-002 
2.096725e-002 
2.705942e-002 
3.269809e-002 
3.815918e-002 
4.567821e-002 
5.202957e-002 
5.517681e-002 
5.601529e-002 
5.558933e-002 
5.549731e-002 
5.687434e-002 
5.723605e-002 
5.425666e-002 
4.990882e-002 
4.422206e-002 
3.914908e-002 
3.685065e-002 
3.542958e-002 
3.369523e-002 
2.966581e-002 
2.234526e-002 
1.715198e-002 
1.431386e-002 
1.056134e-002 
6.096911e-003 
1.770815e-003 
-1.602827e-003 
-4.013815e-003 
-6.917487e-003 
-8.398859e-003 
-9.415419e-003 
-1.267123e-002 
-1.574773e-002 
-1.744340e-002 
-1.619115e-002 
-1.372211e-002 
-1.342398e-002 
-1.262653e-002 
-1.021323e-002 
-7.131985e-003 
-1.435278e-003 
5.554991e-003 
1.097425e-002 
1.689304e-002 
2.225012e-002 
2.794935e-002 
3.587578e-002 
4.185197e-002 
4.468171e-002 
4.648813e-002 
4.733728e-002 
4.854868e-002 
5.215167e-002 
5.402976e-002 
5.407792e-002 
5.257785e-002 
4.901716e-002 
4.672893e-002 
4.650491e-002 
4.576884e-002 
4.399037e-002 
4.158688e-002 
3.820049e-002 
3.552735e-002 
3.339116e-002 
3.147652e-002 
2.825385e-002 
2.423657e-002 
2.060062e-002 
1.960815e-002 
2.072068e-002 
1.893039e-002 
1.384098e-002 
8.453966e-003 
3.866559e-003 
5.076753e-004 
-3.904241e-004 
-6.710157e-004 
-6.545933e-004 
-2.737505e-003 
-6.243219e-003 
-5.944571e-003 
-1.803876e-003 
3.453672e-003 
8.402139e-003 
1.202492e-002 
1.522903e-002 
1.856989e-002 
2.278946e-002 
2.896020e-002 
3.472293e-002 
3.849805e-002 
4.158601e-002 
4.321394e-002 
4.551926e-002 
4.781541e-002 
4.794671e-002 
4.840607e-002 
4.713671e-002 
4.454587e-002 
4.254872e-002 
4.002481e-002 
3.656897e-002 
3.482209e-002 
3.184459e-002 
2.792531e-002 
2.488848e-002 
2.085905e-002 
1.651042e-002 
1.295874e-002 
1.012172e-002 
7.791214e-003 
7.130961e-003 
4.868274e-003 
1.287424e-003 
-9.485895e-004 
-2.253423e-003 
-4.626495e-003 
-8.524509e-003 
-1.651206e-002 
-2.837145e-002 
-4.016764e-002 
-5.244691e-002 
-6.101325e-002 
-6.201576e-002 
-5.935865e-002 
-5.759473e-002 
-5.689154e-002 
-5.818988e-002 
-5.825185e-002 
-5.456178e-002 
-4.857641e-002 
-3.899721e-002 
-2.730507e-002 
-1.776570e-002 
-1.115059e-002 
-5.088004e-003 
2.199131e-003 
1.339642e-002 
2.606609e-002 
3.771027e-002 
4.805459e-002 
5.498275e-002 
5.618828e-002 
5.220624e-002 
4.742546e-002 
4.404115e-002 
4.061701e-002 
3.750350e-002 
3.447369e-002 
3.203538e-002 
2.907291e-002 
2.307627e-002 
1.728773e-002 
1.319625e-002 
8.487326e-003 
4.121049e-003 
1.073012e-003 
-2.544123e-003 
-5.327662e-003 
-9.848655e-003 
-1.490310e-002 
-1.700958e-002 
-1.908164e-002 
-1.998783e-002 
-1.930590e-002 
-1.790288e-002 
-1.631696e-002 
-1.444395e-002 
-1.279064e-002 
-7.759901e-003 
-1.345740e-003 
4.201687e-003 
1.107135e-002 
1.694851e-002 
2.243574e-002 
2.775459e-002 
3.271985e-002 
3.790393e-002 
4.300808e-002 
4.400326e-002 
4.376544e-002 
4.451011e-002 
4.446287e-002 
4.511562e-002 
4.475338e-002 
4.123699e-002 
3.824782e-002 
3.368511e-002 
2.828421e-002 
2.645730e-002 
2.553180e-002 
2.327636e-002 
2.009444e-002 
1.331287e-002 
5.850549e-003 
1.521047e-003 
-3.017980e-003 
-5.549075e-003 
-7.799434e-003 
-1.180338e-002 
-1.579678e-002 
-1.992802e-002 
-2.459576e-002 
-2.665054e-002 
-2.788073e-002 
-2.968412e-002 
-3.141680e-002 
-3.317158e-002 
-3.216672e-002 
-3.035058e-002 
-2.853528e-002 
-2.590393e-002 
-2.242134e-002 
-1.826829e-002 
-1.321585e-002 
-8.477798e-003 
-3.027528e-003 
2.723470e-003 
7.253742e-003 
1.192131e-002 
1.487258e-002 
1.537562e-002 
1.548209e-002 
1.585131e-002 
1.479779e-002 
1.416674e-002 
1.252968e-002 
9.345082e-003 
5.632720e-003 
-9.313036e-004 
-7.281709e-003 
-9.743505e-003 
-1.215224e-002 
-1.726430e-002 
-2.267359e-002 
-2.983773e-002 
-3.580859e-002 
-4.003877e-002 
-4.576950e-002 
-4.924794e-002 
-5.189561e-002 
-5.685429e-002 
-6.072408e-002 
-6.127368e-002 
-6.120836e-002 
-6.079464e-002 
-6.316203e-002 
-6.652328e-002 
-6.603505e-002 
-6.352194e-002 
-5.932517e-002 
-5.297144e-002 
-4.708778e-002 
-4.422870e-002 
-4.103653e-002 
-3.587664e-002 
-2.753756e-002 
-1.690490e-002 
-7.476739e-003 
3.382005e-004 
7.455712e-003 
1.269903e-002 
1.713449e-002 
2.277011e-002 
2.763621e-002 
3.207978e-002 
3.598526e-002 
3.852005e-002 
3.904700e-002 
3.756593e-002 
3.467965e-002 
3.262680e-002 
3.191563e-002 
3.187925e-002 
3.202254e-002 
2.977051e-002 
2.693513e-002 
2.254230e-002 
1.752345e-002 
1.454670e-002 
1.262145e-002 
9.031213e-003 
4.572840e-003 
-2.803481e-004 
-3.246029e-003 
-3.234337e-003 
-5.890884e-003 
-1.009674e-002 
-1.309459e-002 
-1.557520e-002 
-1.849069e-002 
-1.943195e-002 
-1.933160e-002 
-1.918537e-002 
-1.983762e-002 
-2.033988e-002 
-1.777229e-002 
-1.128827e-002 
-4.200455e-003 
7.811456e-004 
5.043474e-003 
9.339953e-003 
1.496861e-002 
2.291527e-002 
3.101895e-002 
3.653507e-002 
4.017240e-002 
4.239757e-002 
4.393870e-002 
4.668659e-002 
4.960418e-002 
5.009835e-002 
4.834606e-002 
4.556782e-002 
4.258592e-002 
4.023504e-002 
3.879246e-002 
3.513985e-002 
3.076310e-002 
2.593811e-002 
2.186658e-002 
1.962408e-002 
1.744935e-002 
1.202998e-002 
5.743798e-003 
9.921855e-005 
-4.550255e-003 
-5.524811e-003 
-7.459431e-003 
-1.087385e-002 
-1.558303e-002 
-2.058701e-002 
-2.428607e-002 
-2.501461e-002 
-2.529682e-002 
-2.579587e-002 
-2.904809e-002 
-3.333457e-002 
-3.347977e-002 
-3.086384e-002 
-2.580777e-002 
-2.143240e-002 
-1.793023e-002 
-1.413958e-002 
-9.860851e-003 
-3.706310e-003 
5.589778e-003 
1.334941e-002 
1.842062e-002 
2.280103e-002 
2.620369e-002 
3.139641e-002 
3.623419e-002 
3.899117e-002 
4.099218e-002 
4.132991e-002 
4.083932e-002 
4.259627e-002 
4.364459e-002 
4.214337e-002 
3.949689e-002 
3.522210e-002 
3.214564e-002 
3.110222e-002 
2.966536e-002 
2.699958e-002 
2.197002e-002 
1.451628e-002 
7.984994e-003 
3.926166e-003 
2.917224e-004 
-3.081407e-003 
-7.192085e-003 
-1.259612e-002 
-1.838117e-002 
-2.247017e-002 
-2.460599e-002 
-2.726117e-002 
-3.041010e-002 
-3.319211e-002 
-3.317593e-002 
-3.080481e-002 
-2.833528e-002 
-2.603016e-002 
-2.203781e-002 
-1.761815e-002 
-1.248816e-002 
-6.233902e-003 
3.612081e-004 
7.222245e-003 
1.354643e-002 
1.941506e-002 
2.500577e-002 
3.104542e-002 
3.575374e-002 
3.792879e-002 
3.710652e-002 
3.629516e-002 
3.759991e-002 
3.938443e-002 
3.838217e-002 
3.423495e-002 
2.899001e-002 
2.379349e-002 
1.935138e-002 
1.609243e-002 
1.444424e-002 
1.174299e-002 
6.139584e-003 
-1.249268e-003 
-8.252498e-003 
-1.324595e-002 
-1.734640e-002 
-2.290790e-002 
-2.785326e-002 
-3.216088e-002 
-3.667249e-002 
-3.964309e-002 
-4.244134e-002 
-4.546424e-002 
-4.745847e-002 
-4.981758e-002 
-5.100969e-002 
-4.885120e-002 
-4.807533e-002 
-4.846393e-002 
-4.624011e-002 
-4.265091e-002 
-3.696962e-002 
-3.093575e-002 
-2.564082e-002 
-1.989346e-002 
-1.351983e-002 
-8.876471e-003 
-2.372936e-003 
5.895387e-003 
1.180676e-002 
1.590643e-002 
1.892784e-002 
2.281191e-002 
2.706717e-002 
3.056974e-002 
3.017954e-002 
2.607916e-002 
1.701246e-002 
2.804554e-003 
-1.277510e-002 
-2.679816e-002 
-3.864676e-002 
-4.825054e-002 
-5.555402e-002 
-6.235974e-002 
-7.134111e-002 
-8.185204e-002 
-9.159704e-002 
-9.804210e-002 
-1.005059e-001 
-1.004677e-001 
-9.855804e-002 
-9.538470e-002 
-9.580743e-002 
-9.869219e-002 
-9.603478e-002 
-8.689795e-002 
-7.373139e-002 
-5.916353e-002 
-4.577834e-002 
-3.638296e-002 
-3.207217e-002 
-3.189670e-002 
-2.928235e-002 
-2.184322e-002 
-1.452677e-002 
-8.734489e-003 
-3.706378e-003 
1.414997e-003 
6.061788e-003 
1.160923e-002 
1.711044e-002 
2.265142e-002 
2.656485e-002 
2.791876e-002 
2.888260e-002 
2.917924e-002 
2.925369e-002 
2.846229e-002 
2.660037e-002 
2.336184e-002 
2.130104e-002 
1.921184e-002 
1.837533e-002 
1.637582e-002 
1.145973e-002 
7.377343e-003 
3.319259e-003 
-2.064647e-004 
-2.918550e-003 
-5.861463e-003 
-9.042879e-003 
-1.143816e-002 
-1.592855e-002 
-1.964986e-002 
-2.085011e-002 
-2.274861e-002 
-2.511536e-002 
-2.748978e-002 
-2.915139e-002 
-2.756134e-002 
-2.496613e-002 
-2.473147e-002 
-2.331061e-002 
-1.996937e-002 
-1.601526e-002 
-1.008949e-002 
-3.507874e-003 
2.917047e-003 
9.986153e-003 
1.472470e-002 
1.849906e-002 
2.439758e-002 
2.964861e-002 
3.202990e-002 
3.373593e-002 
3.355414e-002 
3.366452e-002 
3.540298e-002 
3.499045e-002 
3.342538e-002 
3.209107e-002 
2.928712e-002 
2.596572e-002 
2.326043e-002 
1.956593e-002 
1.682835e-002 
1.261119e-002 
6.510674e-003 
1.780814e-003 
-1.654125e-003 
-6.594383e-003 
-1.242555e-002 
-1.875021e-002 
-2.431421e-002 
-2.961044e-002 
-3.532913e-002 
-3.961876e-002 
-4.522391e-002 
-5.212148e-002 
-5.822402e-002 
-6.301165e-002 
-6.652363e-002 
-6.812552e-002 
-6.897078e-002 
-6.737864e-002 
-6.510170e-002 
-6.391350e-002 
-6.033418e-002 
-5.506368e-002 
-5.136093e-002 
-4.752512e-002 
-4.225707e-002 
-3.527871e-002 
-2.710376e-002 
-2.235368e-002 
-1.922450e-002 
-1.419097e-002 
-1.051897e-002 
-8.126825e-003 
-4.980605e-003 
-2.535553e-003 
-6.269148e-004 
-1.532608e-003 
-5.281454e-003 
-6.271505e-003 
-5.764288e-003 
-7.298658e-003 
-9.363063e-003 
-1.122478e-002 
-1.409309e-002 
-1.690397e-002 
-2.005067e-002 
-2.299187e-002 
-2.579691e-002 
-2.992907e-002 
-3.401967e-002 
-3.705726e-002 
-3.835257e-002 
-4.040315e-002 
-4.285375e-002 
-4.534577e-002 
-4.684767e-002 
-4.686705e-002 
-4.366114e-002 
-4.016273e-002 
-3.740242e-002 
-3.514783e-002 
-3.368296e-002 
-3.003295e-002 
-2.321605e-002 
-1.449942e-002 
-6.203982e-003 
6.781597e-004 
5.430480e-003 
1.064442e-002 
1.550831e-002 
2.071630e-002 
2.465557e-002 
2.732860e-002 
2.827240e-002 
2.841608e-002 
2.793514e-002 
2.748804e-002 
2.492945e-002 
2.058545e-002 
1.694068e-002 
1.400755e-002 
1.296514e-002 
1.049662e-002 
6.303243e-003 
1.875368e-004 
-7.557840e-003 
-1.509621e-002 
-1.903355e-002 
-2.186666e-002 
-2.569792e-002 
-3.069692e-002 
-3.664328e-002 
-4.118485e-002 
-4.539683e-002 
-4.976970e-002 
-5.253222e-002 
-5.484612e-002 
-5.767972e-002 
-5.941721e-002 
-5.882207e-002 
-5.656816e-002 
-5.469145e-002 
-5.353714e-002 
-5.116906e-002 
-4.544439e-002 
-3.714330e-002 
-2.956481e-002 
-2.371150e-002 
-1.726641e-002 
-1.193435e-002 
-8.154175e-003 
-3.562980e-003 
1.604660e-003 
6.172847e-003 
7.516945e-003 
6.486692e-003 
6.862488e-003 
7.976305e-003 
6.231985e-003 
3.138580e-003 
4.804436e-004 
-2.876672e-003 
-6.867675e-003 
-9.075232e-003 
-9.979980e-003 
-1.240120e-002 
-1.636668e-002 
-2.181572e-002 
-2.743292e-002 
-3.094199e-002 
-3.362678e-002 
-3.541671e-002 
-3.645927e-002 
-3.976042e-002 
-4.314960e-002 
-4.618981e-002 
-4.967213e-002 
-5.127763e-002 
-5.012354e-002 
-4.838948e-002 
-4.717067e-002 
-4.634963e-002 
-4.504492e-002 
-4.326598e-002 
-3.988281e-002 
-3.388844e-002 
-2.643376e-002 
-1.865620e-002 
-1.149818e-002 
-5.211315e-003 
8.944423e-004 
6.267576e-003 
1.258058e-002 
1.923708e-002 
2.435141e-002 
2.895684e-002 
3.234782e-002 
3.509994e-002 
3.637866e-002 
3.541357e-002 
3.422743e-002 
3.383793e-002 
3.193927e-002 
3.246571e-002 
3.258208e-002 
3.133024e-002 
2.994352e-002 
2.621744e-002 
2.252625e-002 
1.957287e-002 
1.642025e-002 
1.444712e-002 
1.243224e-002 
8.089884e-003 
5.589983e-003 
3.189265e-003 
6.203512e-004 
-1.801105e-003 
-4.997087e-003 
-7.654495e-003 
-9.864502e-003 
-1.236057e-002 
-1.358984e-002 
-1.357196e-002 
-1.570709e-002 
-1.860477e-002 
-1.960950e-002 
-1.855250e-002 
-1.524338e-002 
-1.066631e-002 
-5.723755e-003 
-1.365310e-003 
1.941267e-003 
4.054204e-003 
8.236077e-003 
1.420043e-002 
1.971003e-002 
2.515298e-002 
2.915908e-002 
3.197867e-002 
3.365135e-002 
3.500469e-002 
3.641031e-002 
3.759255e-002 
3.793800e-002 
3.819849e-002 
3.761458e-002 
3.630920e-002 
3.507768e-002 
3.214009e-002 
3.016992e-002 
2.865134e-002 
2.582399e-002 
2.431103e-002 
2.202439e-002 
1.774499e-002 
1.382210e-002 
9.731542e-003 
6.920391e-003 
7.302198e-003 
6.217657e-003 
4.890409e-003 
4.695882e-003 
2.848263e-003 
4.687850e-004 
-7.517634e-004 
-1.208503e-003 
-2.511089e-003 
-6.586863e-003 
-1.514824e-002 
-2.625275e-002 
-3.892323e-002 
-5.059106e-002 
-5.868878e-002 
-5.986346e-002 
-5.764884e-002 
-5.527116e-002 
-5.360389e-002 
-5.463921e-002 
-5.598546e-002 
-5.421192e-002 
-4.854325e-002 
-3.915999e-002 
-2.673412e-002 
-1.708613e-002 
-1.089486e-002 
-6.867373e-003 
-4.696941e-004 
1.106712e-002 
2.658310e-002 
4.183812e-002 
5.291511e-002 
5.885298e-002 
5.803647e-002 
5.349866e-002 
5.124388e-002 
5.082891e-002 
4.881950e-002 
4.507621e-002 
3.938195e-002 
3.449860e-002 
3.185549e-002 
2.872040e-002 
2.634627e-002 
2.541200e-002 
2.209995e-002 
1.688790e-002 
1.338636e-002 
1.194476e-002 
1.152005e-002 
1.120694e-002 
1.039814e-002 
1.212585e-002 
1.569903e-002 
1.789515e-002 
1.972777e-002 
2.369317e-002 
2.822079e-002 
3.366517e-002 
3.987056e-002 
4.577335e-002 
5.139456e-002 
5.527535e-002 
5.807498e-002 
6.142829e-002 
6.572275e-002 
6.892541e-002 
7.005524e-002 
6.892252e-002 
6.748819e-002 
6.536516e-002 
6.418806e-002 
6.384497e-002 
6.236276e-002 
5.982301e-002 
5.642898e-002 
5.280769e-002 
5.101193e-002 
4.881517e-002 
4.423753e-002 
4.069739e-002 
3.756692e-002 
3.449051e-002 
3.199940e-002 
2.879636e-002 
2.485213e-002 
2.118298e-002 
1.645886e-002 
1.311338e-002 
1.277449e-002 
1.215671e-002 
1.019378e-002 
8.362859e-003 
7.479349e-003 
9.587737e-003 
1.400788e-002 
1.854048e-002 
2.334494e-002 
2.860926e-002 
3.357948e-002 
3.962510e-002 
4.689291e-002 
5.345465e-002 
5.908015e-002 
6.281397e-002 
6.581990e-002 
6.896173e-002 
7.286834e-002 
7.499348e-002 
7.472494e-002 
7.324803e-002 
7.046612e-002 
6.699873e-002 
6.301017e-002 
5.934480e-002 
5.498877e-002 
5.064834e-002 
4.436388e-002 
3.852729e-002 
3.490897e-002 
3.104535e-002 
2.543257e-002 
1.958326e-002 
1.509367e-002 
1.130509e-002 
8.097091e-003 
3.656705e-003 
4.324363e-004 
-1.846434e-003 
-5.976105e-003 
-1.046298e-002 
-1.052159e-002 
-8.661102e-003 
-7.013258e-003 
-5.157792e-003 
-2.894248e-003 
2.038578e-003 
8.008335e-003 
1.317208e-002 
2.026009e-002 
2.921186e-002 
3.758879e-002 
4.774219e-002 
5.831016e-002 
6.811373e-002 
7.621400e-002 
8.282575e-002 
8.873402e-002 
9.495005e-002 
1.021484e-001 
1.079711e-001 
1.109356e-001 
1.106332e-001 
1.088335e-001 
1.065521e-001 
1.067286e-001 
1.073419e-001 
1.067897e-001 
1.048070e-001 
1.001144e-001 
9.618798e-002 
9.401342e-002 
9.125887e-002 
8.639419e-002 
8.178871e-002 
7.652066e-002 
7.051456e-002 
6.581561e-002 
6.278439e-002 
6.122792e-002 
5.892253e-002 
5.467400e-002 
5.010582e-002 
4.905065e-002 
4.904285e-002 
4.776786e-002 
4.759581e-002 
4.911773e-002 
5.210815e-002 
5.566103e-002 
5.993718e-002 
6.507715e-002 
7.171914e-002 
7.816070e-002 
8.514246e-002 
9.472453e-002 
1.033139e-001 
1.086163e-001 
1.121985e-001 
1.149018e-001 
1.172838e-001 
1.204712e-001 
1.241202e-001 
1.264045e-001 
1.256018e-001 
1.221892e-001 
1.194412e-001 
1.177411e-001 
1.161943e-001 
1.140647e-001 
1.109235e-001 
1.077320e-001 
1.021806e-001 
9.632304e-002 
9.218966e-002 
8.850622e-002 
8.394304e-002 
7.966272e-002 
7.601418e-002 
7.350873e-002 
7.024657e-002 
6.536975e-002 
6.278415e-002 
6.178893e-002 
6.089071e-002 
5.870910e-002 
5.773984e-002 
5.939952e-002 
6.079809e-002 
6.100397e-002 
6.405167e-002 
6.916149e-002 
7.418097e-002 
7.819834e-002 
8.203662e-002 
8.935322e-002 
9.765988e-002 
1.033942e-001 
1.084410e-001 
1.144551e-001 
1.200760e-001 
1.252594e-001 
1.288380e-001 
1.320024e-001 
1.352366e-001 
1.357263e-001 
1.348335e-001 
1.346346e-001 
1.344369e-001 
1.337038e-001 
1.313198e-001 
1.270935e-001 
1.236733e-001 
1.203198e-001 
1.169476e-001 
1.152198e-001 
1.111386e-001 
1.045764e-001 
9.839774e-002 
9.288290e-002 
8.832447e-002 
8.508190e-002 
8.177939e-002 
7.932186e-002 
7.653368e-002 
7.192288e-002 
6.906008e-002 
6.736455e-002 
6.589461e-002 
6.436275e-002 
6.321719e-002 
6.408963e-002 
6.683477e-002 
6.882284e-002 
7.131559e-002 
7.488943e-002 
7.935633e-002 
8.572743e-002 
9.217680e-002 
9.949407e-002 
1.079420e-001 
1.140218e-001 
1.183163e-001 
1.243581e-001 
1.301569e-001 
1.358129e-001 
1.402062e-001 
1.423595e-001 
1.440850e-001 
1.447631e-001 
1.435089e-001 
1.425914e-001 
1.414630e-001 
1.375614e-001 
1.339311e-001 
1.299989e-001 
1.258549e-001 
1.222221e-001 
1.179267e-001 
1.129223e-001 
1.086674e-001 
1.036002e-001 
9.813063e-002 
9.435539e-002 
8.953613e-002 
8.402441e-002 
7.888444e-002 
7.515122e-002 
7.237825e-002 
7.019696e-002 
6.636717e-002 
6.198865e-002 
5.821961e-002 
5.480103e-002 
5.198523e-002 
5.118575e-002 
5.147366e-002 
5.143530e-002 
5.233129e-002 
5.433891e-002 
5.811110e-002 
6.319087e-002 
6.791646e-002 
7.333608e-002 
8.040387e-002 
8.748873e-002 
9.547617e-002 
1.031958e-001 
1.098040e-001 
1.134200e-001 
1.130709e-001 
1.113041e-001 
1.085643e-001 
1.015103e-001 
9.050417e-002 
7.772701e-002 
6.671309e-002 
6.023234e-002 
5.502495e-002 
4.937980e-002 
4.345848e-002 
3.490164e-002 
2.557900e-002 
1.922871e-002 
1.777167e-002 
2.111239e-002 
2.470882e-002 
2.324104e-002 
2.014952e-002 
1.946902e-002 
2.334849e-002 
3.191608e-002 
4.131750e-002 
4.998812e-002 
5.501673e-002 
5.562225e-002 
5.304139e-002 
5.126098e-002 
5.079589e-002 
4.976705e-002 
4.764934e-002 
4.627199e-002 
4.635429e-002 
4.849988e-002 
5.324541e-002 
5.743135e-002 
6.196539e-002 
6.716335e-002 
7.198494e-002 
7.877249e-002 
8.520127e-002 
9.050744e-002 
9.786936e-002 
1.041489e-001 
1.079239e-001 
1.130921e-001 
1.171614e-001 
1.188566e-001 
1.202029e-001 
1.193639e-001 
1.193723e-001 
1.197875e-001 
1.172053e-001 
1.133460e-001 
1.107484e-001 
1.071370e-001 
1.037154e-001 
1.020749e-001 
9.927143e-002 
9.551572e-002 
9.011076e-002 
8.413382e-002 
7.970607e-002 
7.711981e-002 
7.359416e-002 
7.027746e-002 
6.754767e-002 
6.329612e-002 
5.898647e-002 
5.611702e-002 
5.527210e-002 
5.375324e-002 
5.126164e-002 
4.744044e-002 
4.524673e-002 
4.507596e-002 
4.567806e-002 
4.758902e-002 
5.069452e-002 
5.404558e-002 
5.614907e-002 
5.968663e-002 
6.447762e-002 
7.087399e-002 
7.633822e-002 
8.065673e-002 
8.452397e-002 
8.822713e-002 
9.109448e-002 
9.300290e-002 
9.615963e-002 
9.875519e-002 
9.989313e-002 
1.000670e-001 
9.998710e-002 
9.862202e-002 
9.509844e-002 
9.050784e-002 
8.799425e-002 
8.678375e-002 
8.399971e-002 
8.081557e-002 
7.595683e-002 
6.859435e-002 
6.199737e-002 
5.586773e-002 
5.093956e-002 
4.649758e-002 
3.939687e-002 
3.099474e-002 
2.351837e-002 
1.591360e-002 
1.021224e-002 
7.160927e-003 
2.088863e-003 
-2.628365e-003 
-6.047592e-003 
-8.459050e-003 
-8.298201e-003 
-6.360700e-003 
-4.397026e-003 
-1.139230e-003 
3.613748e-003 
9.870991e-003 
1.867545e-002 
2.732741e-002 
3.607312e-002 
4.459594e-002 
5.224598e-002 
6.056759e-002 
6.990680e-002 
7.792320e-002 
8.290236e-002 
8.574237e-002 
8.865924e-002 
9.257924e-002 
9.515584e-002 
9.590600e-002 
9.541460e-002 
9.354555e-002 
9.078635e-002 
8.884803e-002 
8.913272e-002 
8.904850e-002 
8.620625e-002 
8.038714e-002 
7.465224e-002 
7.056601e-002 
6.885288e-002 
6.704343e-002 
6.368986e-002 
5.945710e-002 
5.384904e-002 
4.936184e-002 
4.770560e-002 
4.723765e-002 
4.491996e-002 
4.207945e-002 
3.809324e-002 
3.533540e-002 
3.420715e-002 
3.393157e-002 
3.571264e-002 
3.725128e-002 
3.751685e-002 
3.930313e-002 
4.515639e-002 
5.183410e-002 
5.721947e-002 
6.093556e-002 
6.597163e-002 
7.115519e-002 
7.557293e-002 
8.022813e-002 
8.506445e-002 
8.945788e-002 
9.111503e-002 
9.134035e-002 
9.381941e-002 
9.613520e-002 
9.514266e-002 
9.259253e-002 
8.909031e-002 
8.627923e-002 
8.363092e-002 
8.011965e-002 
7.767312e-002 
7.562934e-002 
7.070870e-002 
6.575057e-002 
6.217768e-002 
5.973976e-002 
5.799427e-002 
5.468166e-002 
4.988775e-002 
4.630405e-002 
4.243293e-002 
3.807134e-002 
3.536637e-002 
3.288709e-002 
3.070141e-002 
2.894117e-002 
2.543192e-002 
2.165933e-002 
2.048559e-002 
1.896671e-002 
1.747711e-002 
1.678843e-002 
1.677885e-002 
1.752613e-002 
1.911261e-002 
2.097231e-002 
2.511309e-002 
3.067256e-002 
3.472234e-002 
3.825301e-002 
4.308978e-002 
4.974156e-002 
5.601076e-002 
6.241101e-002 
6.697341e-002 
6.981047e-002 
7.240560e-002 
7.517086e-002 
7.797246e-002 
8.139557e-002 
8.308809e-002 
8.224297e-002 
8.035739e-002 
7.787336e-002 
7.719751e-002 
7.762459e-002 
7.640814e-002 
7.269543e-002 
6.916367e-002 
6.589825e-002 
6.270557e-002 
5.967353e-002 
5.640350e-002 
5.088198e-002 
4.443505e-002 
3.944405e-002 
3.658797e-002 
3.655052e-002 
3.449450e-002 
2.922342e-002 
2.430334e-002 
1.973469e-002 
1.593138e-002 
1.523162e-002 
1.413477e-002 
1.169103e-002 
9.412970e-003 
6.641816e-003 
7.738632e-003 
1.285889e-002 
1.786053e-002 
2.225053e-002 
2.481604e-002 
2.654971e-002 
3.106165e-002 
3.756560e-002 
4.460216e-002 
5.148837e-002 
5.572220e-002 
5.844214e-002 
6.183672e-002 
6.501462e-002 
6.964271e-002 
7.295265e-002 
7.358614e-002 
7.415941e-002 
7.387275e-002 
7.225561e-002 
7.090824e-002 
6.874318e-002 
6.439807e-002 
6.097782e-002 
5.776645e-002 
5.649133e-002 
5.462568e-002 
4.826527e-002 
3.959083e-002 
3.162669e-002 
2.445509e-002 
1.887885e-002 
1.524102e-002 
1.088571e-002 
4.609384e-003 
-3.262690e-003 
-9.428372e-003 
-1.327629e-002 
-1.674088e-002 
-2.086406e-002 
-2.492398e-002 
-2.960006e-002 
-3.352652e-002 
-3.504198e-002 
-3.350772e-002 
-3.114612e-002 
-3.014889e-002 
-2.929017e-002 
-2.576232e-002 
-1.957765e-002 
-1.368534e-002 
-8.609236e-003 
-4.486639e-003 
-9.660013e-004 
2.962918e-003 
8.198179e-003 
1.460377e-002 
2.034482e-002 
2.332614e-002 
2.273409e-002 
2.319933e-002 
2.668971e-002 
2.980514e-002 
3.020634e-002 
2.864643e-002 
2.562659e-002 
2.206609e-002 
2.027546e-002 
1.923034e-002 
2.005035e-002 
1.853947e-002 
1.414583e-002 
1.014049e-002 
6.020856e-003 
9.635201e-004 
-6.392519e-003 
-1.991422e-002 
-3.835984e-002 
-5.609058e-002 
-7.163173e-002 
-8.159252e-002 
-9.054231e-002 
-9.996317e-002 
-1.078123e-001 
-1.187549e-001 
-1.306885e-001 
-1.361188e-001 
-1.366480e-001 
-1.347249e-001 
-1.306120e-001 
-1.274268e-001 
-1.209217e-001 
-1.121705e-001 
-1.046269e-001 
-9.257738e-002 
-7.596707e-002 
-5.817950e-002 
-3.933169e-002 
-2.192142e-002 
-9.093459e-003 
6.353997e-004 
5.272322e-003 
7.352096e-003 
1.285788e-002 
1.936920e-002 
2.422881e-002 
2.652163e-002 
2.684753e-002 
2.534796e-002 
2.421029e-002 
2.312141e-002 
2.297174e-002 
2.306701e-002 
2.011761e-002 
1.547018e-002 
1.219737e-002 
8.952694e-003 
5.446036e-003 
2.972771e-003 
-1.658003e-003 
-8.046222e-003 
-1.456435e-002 
-2.000389e-002 
-2.276921e-002 
-2.622713e-002 
-3.221141e-002 
-3.766342e-002 
-4.393296e-002 
-5.084008e-002 
-5.598263e-002 
-5.910352e-002 
-6.095239e-002 
-6.352873e-002 
-6.764674e-002 
-7.023454e-002 
-7.156407e-002 
-7.269323e-002 
-7.063411e-002 
-6.547081e-002 
-5.979213e-002 
-5.549582e-002 
-5.103430e-002 
-4.676766e-002 
-4.170175e-002 
-3.569573e-002 
-2.818633e-002 
-1.910685e-002 
-1.258084e-002 
-1.070556e-002 
-9.294630e-003 
-7.642022e-003 
-6.157029e-003 
-2.897416e-003 
-1.089213e-003 
-1.922221e-003 
-4.628271e-003 
-8.617199e-003 
-1.195830e-002 
-1.359148e-002 
-1.637808e-002 
-1.838432e-002 
-2.160921e-002 
-2.805822e-002 
-3.362616e-002 
-3.649464e-002 
-3.988503e-002 
-4.443628e-002 
-4.946358e-002 
-5.374972e-002 
-5.569549e-002 
-5.961347e-002 
-6.441341e-002 
-6.759618e-002 
-7.211476e-002 
-7.890555e-002 
-8.320524e-002 
-8.454283e-002 
-8.601139e-002 
-8.782373e-002 
-9.020341e-002 
-9.001409e-002 
-8.790836e-002 
-8.562143e-002 
-8.347388e-002 
-7.994244e-002 
-7.666886e-002 
-7.379170e-002 
-6.838120e-002 
-6.318014e-002 
-5.926783e-002 
-5.675553e-002 
-5.560377e-002 
-5.464521e-002 
-5.071413e-002 
-4.685332e-002 
-4.429192e-002 
-4.451695e-002 
-4.757082e-002 
-4.960180e-002 
-5.040685e-002 
-5.082430e-002 
-5.043816e-002 
-5.084651e-002 
-5.259163e-002 
-5.384294e-002 
-5.488500e-002 
-5.500853e-002 
-5.639019e-002 
-5.968615e-002 
-6.313330e-002 
-6.503908e-002 
-6.568725e-002 
-6.512984e-002 
-6.605441e-002 
-6.954698e-002 
-7.380209e-002 
-7.718121e-002 
-7.851775e-002 
-7.855504e-002 
-7.853927e-002 
-8.011191e-002 
-8.091489e-002 
-8.100174e-002 
-7.893468e-002 
-7.328435e-002 
-6.790905e-002 
-6.474172e-002 
-6.086191e-002 
-5.469595e-002 
-4.577299e-002 
-3.576248e-002 
-2.956562e-002 
-2.518437e-002 
-2.158887e-002 
-1.998083e-002 
-1.608302e-002 
-8.817518e-003 
-2.831086e-003 
-2.036083e-003 
-5.586750e-003 
-9.228442e-003 
-9.308884e-003 
-8.497601e-003 
-9.990724e-003 
-1.220975e-002 
-1.600870e-002 
-2.208172e-002 
-2.692817e-002 
-2.869817e-002 
-2.972116e-002 
-3.213620e-002 
-3.772050e-002 
-4.432861e-002 
-4.806557e-002 
-5.046644e-002 
-5.312209e-002 
-5.602491e-002 
-6.025311e-002 
-6.576297e-002 
-7.006961e-002 
-7.367139e-002 
-7.700442e-002 
-7.975167e-002 
-8.445007e-002 
-8.897590e-002 
-9.049770e-002 
-8.905798e-002 
-8.746771e-002 
-8.576603e-002 
-8.461570e-002 
-8.315138e-002 
-7.912629e-002 
-7.278971e-002 
-6.590217e-002 
-6.002379e-002 
-5.561449e-002 
-5.300180e-002 
-4.719251e-002 
-4.000662e-002 
-3.399626e-002 
-2.927870e-002 
-2.618348e-002 
-2.525944e-002 
-2.367484e-002 
-2.119567e-002 
-1.948600e-002 
-1.888463e-002 
-2.172791e-002 
-2.638576e-002 
-2.884076e-002 
-2.793072e-002 
-2.791206e-002 
-3.013510e-002 
-3.324088e-002 
-3.713847e-002 
-4.109063e-002 
-4.425700e-002 
-4.770828e-002 
-4.960994e-002 
-5.231216e-002 
-5.904577e-002 
-6.499293e-002 
-6.783410e-002 
-7.077717e-002 
-7.464070e-002 
-7.915772e-002 
-8.419559e-002 
-8.649282e-002 
-8.813228e-002 
-9.065366e-002 
-9.122094e-002 
-9.200673e-002 
-9.442834e-002 
-9.409161e-002 
-9.093517e-002 
-8.639316e-002 
-8.056239e-002 
-7.649514e-002 
-7.180908e-002 
-6.537073e-002 
-5.949869e-002 
-5.371286e-002 
-4.657971e-002 
-4.058497e-002 
-3.457481e-002 
-2.943346e-002 
-2.504564e-002 
-2.066186e-002 
-1.833830e-002 
-1.798247e-002 
-1.898877e-002 
-1.877477e-002 
-1.855302e-002 
-1.905392e-002 
-2.164034e-002 
-2.416172e-002 
-2.813732e-002 
-3.170656e-002 
-3.444164e-002 
-3.752290e-002 
-4.002162e-002 
-4.398301e-002 
-4.786474e-002 
-5.178362e-002 
-5.624320e-002 
-6.087496e-002 
-6.273941e-002 
-6.473220e-002 
-6.708445e-002 
-6.927182e-002 
-7.101229e-002 
-7.295458e-002 
-7.663096e-002 
-7.972611e-002 
-8.051611e-002 
-8.138939e-002 
-8.288553e-002 
-8.393644e-002 
-8.470160e-002 
-8.382742e-002 
-8.270548e-002 
-8.038552e-002 
-7.640594e-002 
-7.304780e-002 
-7.158525e-002 
-6.796444e-002 
-6.329105e-002 
-5.879993e-002 
-5.516369e-002 
-5.288692e-002 
-5.073750e-002 
-4.853019e-002 
-4.590360e-002 
-4.255014e-002 
-3.966333e-002 
-4.060247e-002 
-4.402200e-002 
-4.661660e-002 
-4.833310e-002 
-5.006465e-002 
-5.257692e-002 
-5.684820e-002 
-6.262655e-002 
-6.901686e-002 
-7.356180e-002 
-7.482970e-002 
-7.582752e-002 
-8.043651e-002 
-8.674680e-002 
-9.414683e-002 
-9.944927e-002 
-1.006023e-001 
-1.015640e-001 
-1.037153e-001 
-1.080244e-001 
-1.135423e-001 
-1.170066e-001 
-1.177468e-001 
-1.165265e-001 
-1.140421e-001 
-1.143984e-001 
-1.179891e-001 
-1.203098e-001 
-1.202272e-001 
-1.186087e-001 
-1.220038e-001 
-1.308449e-001 
-1.420880e-001 
-1.546086e-001 
-1.628958e-001 
-1.647864e-001 
-1.624495e-001 
-1.585827e-001 
-1.573040e-001 
-1.596341e-001 
-1.587636e-001 
-1.547592e-001 
-1.482507e-001 
-1.395709e-001 
-1.316474e-001 
-1.245106e-001 
-1.172190e-001 
-1.107245e-001 
-1.029394e-001 
-9.259543e-002 
-8.183185e-002 
-7.146873e-002 
-6.244141e-002 
-5.530736e-002 
-5.094299e-002 
-4.979097e-002 
-5.251139e-002 
-5.720539e-002 
-6.234714e-002 
-6.657247e-002 
-7.139666e-002 
-7.586327e-002 
-7.973667e-002 
-8.318482e-002 
-8.577807e-002 
-8.856868e-002 
-9.172330e-002 
-9.539082e-002 
-1.004539e-001 
-1.060582e-001 
-1.087674e-001 
-1.107401e-001 
-1.127005e-001 
-1.140148e-001 
-1.158472e-001 
-1.175649e-001 
-1.180891e-001 
-1.163169e-001 
-1.121678e-001 
-1.071658e-001 
-1.027246e-001 
-9.794115e-002 
-9.148397e-002 
-8.421373e-002 
-7.674224e-002 
-7.033474e-002 
-6.386376e-002 
-5.829671e-002 
-5.385814e-002 
-4.988182e-002 
-4.694947e-002 
-4.341452e-002 
-4.074339e-002 
-4.099259e-002 
-4.252852e-002 
-4.268336e-002 
-4.376580e-002 
-4.672528e-002 
-4.965250e-002 
-5.229052e-002 
-5.356214e-002 
-5.622041e-002 
-5.903397e-002 
-6.100239e-002 
-6.365618e-002 
-6.791840e-002 
-7.313233e-002 
-7.690143e-002 
-7.979727e-002 
-8.236990e-002 
-8.526584e-002 
-8.658315e-002 
-9.004759e-002 
-9.429944e-002 
-9.821528e-002 
-1.021323e-001 
-1.050483e-001 
-1.083770e-001 
-1.111858e-001 
-1.124019e-001 
-1.132907e-001 
-1.153667e-001 
-1.144223e-001 
-1.123251e-001 
-1.093696e-001 
-1.054389e-001 
-1.008411e-001 
-9.416712e-002 
-8.723269e-002 
-8.201593e-002 
-7.641897e-002 
-7.063762e-002 
-6.692049e-002 
-6.224459e-002 
-5.733168e-002 
-5.221220e-002 
-4.835782e-002 
-4.769648e-002 
-4.819251e-002 
-4.808068e-002 
-4.891060e-002 
-4.943592e-002 
-5.042545e-002 
-5.512938e-002 
-6.131548e-002 
-6.801085e-002 
-7.390725e-002 
-7.738939e-002 
-8.049581e-002 
-8.625722e-002 
-9.262603e-002 
-1.004902e-001 
-1.079329e-001 
-1.118070e-001 
-1.139961e-001 
-1.162168e-001 
-1.187045e-001 
-1.232973e-001 
-1.276820e-001 
-1.287304e-001 
-1.291297e-001 
-1.286508e-001 
-1.279423e-001 
-1.265148e-001 
-1.236002e-001 
-1.195730e-001 
-1.149225e-001 
-1.075105e-001 
-1.002116e-001 
-9.451951e-002 
-8.770582e-002 
-7.914739e-002 
-6.894601e-002 
-5.976772e-002 
-5.256908e-002 
-4.552583e-002 
-3.728898e-002 
-2.991385e-002 
-2.238468e-002 
-1.572573e-002 
-1.209668e-002 
-1.057465e-002 
-9.362172e-003 
-7.674264e-003 
-5.520631e-003 
-3.496369e-003 
-3.283975e-003 
-5.259275e-003 
-8.580410e-003 
-1.150245e-002 
-1.239261e-002 
-1.209010e-002 
-1.427225e-002 
-1.742088e-002 
-2.033443e-002 
-2.450817e-002 
-2.959840e-002 
-3.431494e-002 
-3.912636e-002 
-4.208424e-002 
-4.477721e-002 
-4.862854e-002 
-5.044181e-002 
-5.311887e-002 
-5.836939e-002 
-6.372059e-002 
-6.738263e-002 
-6.939594e-002 
-6.789430e-002 
-6.649518e-002 
-6.565876e-002 
-6.355900e-002 
-6.225467e-002 
-5.926100e-002 
-5.275058e-002 
-4.654892e-002 
-4.095658e-002 
-3.369713e-002 
-2.735712e-002 
-2.072024e-002 
-1.442881e-002 
-1.035197e-002 
-5.669740e-003 
-2.559745e-003 
-2.125650e-003 
1.532079e-004 
3.052641e-003 
3.720371e-003 
2.757679e-003 
-1.242144e-003 
-4.920871e-003 
-6.026691e-003 
-8.607729e-003 
-1.170145e-002 
-1.491546e-002 
-1.914203e-002 
-2.313889e-002 
-2.693486e-002 
-3.137186e-002 
-3.400553e-002 
-3.851086e-002 
-4.475701e-002 
-4.930784e-002 
-5.207092e-002 
-5.308010e-002 
-5.491100e-002 
-5.875236e-002 
-6.305047e-002 
-6.718599e-002 
-7.124961e-002 
-7.206947e-002 
-7.221132e-002 
-7.378423e-002 
-7.629820e-002 
-7.728868e-002 
-7.492448e-002 
-7.040537e-002 
-6.526077e-002 
-6.081357e-002 
-5.741060e-002 
-5.386694e-002 
-4.934030e-002 
-4.169065e-002 
-3.221203e-002 
-2.573715e-002 
-2.112283e-002 
-1.728504e-002 
-1.397667e-002 
-8.655120e-003 
-2.513440e-003 
-1.013717e-004 
8.633746e-004 
4.025490e-004 
-4.098378e-004 
1.218047e-003 
2.131857e-003 
3.628933e-004 
-2.220417e-003 
-6.116448e-003 
-9.963122e-003 
-9.169366e-003 
-7.647909e-003 
-8.152063e-003 
-1.099420e-002 
-1.757927e-002 
-2.361736e-002 
-2.557678e-002 
-2.602411e-002 
-2.656591e-002 
-2.939697e-002 
-3.484804e-002 
-4.056742e-002 
-4.484288e-002 
-4.699493e-002 
-4.759791e-002 
-5.000147e-002 
-5.389156e-002 
-5.804415e-002 
-5.945392e-002 
-5.625371e-002 
-5.372237e-002 
-5.167057e-002 
-4.943620e-002 
-4.780593e-002 
-4.353538e-002 
-3.623755e-002 
-2.920694e-002 
-2.092779e-002 
-1.510679e-002 
-1.313031e-002 
-9.016425e-003 
-3.069946e-003 
2.747199e-003 
8.560196e-003 
1.161625e-002 
1.312395e-002 
1.560482e-002 
1.616599e-002 
1.610736e-002 
1.684348e-002 
1.543218e-002 
1.238814e-002 
1.052355e-002 
9.088890e-003 
7.832074e-003 
6.051717e-003 
2.860511e-003 
-8.684554e-004 
-4.184911e-003 
-7.190770e-003 
-1.032100e-002 
-1.314266e-002 
-1.789251e-002 
-2.404614e-002 
-2.813977e-002 
-3.150326e-002 
-3.522316e-002 
-3.828983e-002 
-4.218187e-002 
-4.677655e-002 
-4.944127e-002 
-5.214050e-002 
-5.336089e-002 
-5.269828e-002 
-5.395090e-002 
-5.417695e-002 
-5.161210e-002 
-4.814277e-002 
-4.244081e-002 
-3.480292e-002 
-2.700861e-002 
-1.842264e-002 
-1.099766e-002 
-5.355839e-003 
-3.073639e-004 
1.415370e-003 
-1.143877e-003 
-5.855115e-003 
-1.003287e-002 
-1.232575e-002 
-1.254841e-002 
-1.181514e-002 
-1.151931e-002 
-1.279264e-002 
-1.676199e-002 
-2.177918e-002 
-2.454729e-002 
-2.529503e-002 
-2.392920e-002 
-2.132482e-002 
-2.068757e-002 
-2.086862e-002 
-2.087570e-002 
-1.900109e-002 
-1.380345e-002 
-7.215825e-003 
-6.109679e-004 
6.449992e-003 
7.979238e-003 
4.768619e-003 
3.930054e-004 
-3.774995e-003 
-6.863751e-003 
-1.094838e-002 
-1.442511e-002 
-1.571374e-002 
-1.779083e-002 
-2.058457e-002 
-2.017910e-002 
-1.828818e-002 
-1.631664e-002 
-1.487600e-002 
-1.263040e-002 
-8.189694e-003 
-3.048696e-003 
2.266647e-003 
8.691124e-003 
1.498827e-002 
2.028185e-002 
2.566992e-002 
3.343643e-002 
4.099798e-002 
4.681848e-002 
5.054015e-002 
5.185134e-002 
5.309786e-002 
5.497317e-002 
5.750389e-002 
5.929842e-002 
5.891065e-002 
5.539600e-002 
5.239019e-002 
4.905443e-002 
4.711514e-002 
4.631892e-002 
4.438682e-002 
4.036713e-002 
3.403048e-002 
2.827784e-002 
2.428782e-002 
2.155840e-002 
1.652368e-002 
1.105088e-002 
6.188846e-003 
1.992914e-003 
-2.329818e-003 
-5.580663e-003 
-9.151663e-003 
-1.328710e-002 
-1.814740e-002 
-2.234394e-002 
-2.198225e-002 
-2.060969e-002 
-2.038969e-002 
-2.031637e-002 
-1.945474e-002 
-1.678360e-002 
-1.171833e-002 
-6.120439e-003 
1.965524e-003 
9.147816e-003 
1.360726e-002 
1.944292e-002 
2.629638e-002 
3.378988e-002 
4.031305e-002 
4.291732e-002 
4.465605e-002 
4.776794e-002 
4.917523e-002 
4.925409e-002 
4.793964e-002 
4.534244e-002 
4.247463e-002 
3.799153e-002 
3.331100e-002 
3.044061e-002 
2.656915e-002 
2.109880e-002 
1.532183e-002 
9.913005e-003 
5.449325e-003 
3.379921e-005 
-7.506519e-003 
-1.338001e-002 
-1.797081e-002 
-2.145273e-002 
-2.234756e-002 
-2.461109e-002 
-2.872604e-002 
-3.244834e-002 
-3.567787e-002 
-3.666452e-002 
-3.511431e-002 
-3.418273e-002 
-3.284055e-002 
-3.239829e-002 
-3.198557e-002 
-2.808121e-002 
-2.098893e-002 
-1.300653e-002 
-6.531272e-003 
-5.076931e-004 
7.872501e-003 
1.750800e-002 
2.648954e-002 
3.572343e-002 
4.289005e-002 
4.758377e-002 
5.194351e-002 
5.707816e-002 
6.379087e-002 
7.003142e-002 
7.212326e-002 
7.132464e-002 
6.992801e-002 
6.800885e-002 
6.745055e-002 
6.788955e-002 
6.522836e-002 
6.153987e-002 
5.780993e-002 
5.252766e-002 
4.622163e-002 
4.039043e-002 
3.539511e-002 
3.158561e-002 
2.715128e-002 
2.291402e-002 
2.106818e-002 
1.715037e-002 
1.121140e-002 
6.110259e-003 
3.789433e-003 
2.532731e-003 
2.218172e-003 
1.632318e-003 
1.303009e-003 
1.265571e-003 
1.518545e-003 
3.948459e-003 
8.929215e-003 
1.427828e-002 
1.840939e-002 
2.272652e-002 
2.675224e-002 
3.214571e-002 
3.790468e-002 
4.197416e-002 
4.617780e-002 
5.084337e-002 
5.312606e-002 
5.443510e-002 
5.633719e-002 
5.793246e-002 
5.817551e-002 
5.657720e-002 
5.514928e-002 
5.533952e-002 
5.354063e-002 
4.981691e-002 
4.808249e-002 
4.712667e-002 
4.532660e-002 
4.359443e-002 
4.190833e-002 
3.914457e-002 
3.531857e-002 
2.969026e-002 
2.595732e-002 
2.462748e-002 
2.183173e-002 
1.804940e-002 
1.358225e-002 
8.460021e-003 
5.367896e-003 
3.604797e-003 
1.810514e-003 
1.867247e-003 
8.886835e-004 
-1.813216e-003 
-2.350484e-003 
-7.273105e-004 
3.746401e-003 
1.006109e-002 
1.445667e-002 
1.862518e-002 
2.374986e-002 
2.823834e-002 
3.411890e-002 
4.094765e-002 
4.546117e-002 
4.916129e-002 
5.210940e-002 
5.392332e-002 
5.581031e-002 
5.663251e-002 
5.643852e-002 
5.586291e-002 
5.428729e-002 
5.312303e-002 
5.261178e-002 
5.045935e-002 
4.657663e-002 
4.220973e-002 
3.830841e-002 
3.537437e-002 
3.157166e-002 
2.702099e-002 
2.169646e-002 
1.467191e-002 
8.330125e-003 
3.887128e-003 
6.334279e-004 
-3.867844e-003 
-1.081773e-002 
-1.773247e-002 
-2.275867e-002 
-2.663351e-002 
-2.843979e-002 
-2.933520e-002 
-2.963441e-002 
-3.027676e-002 
-3.071575e-002 
-2.728157e-002 
-2.017264e-002 
-1.326211e-002 
-5.920434e-003 
2.933757e-003 
1.175126e-002 
2.183709e-002 
3.063653e-002 
3.894854e-002 
4.627155e-002 
5.063271e-002 
5.428977e-002 
5.957558e-002 
6.334618e-002 
6.501095e-002 
6.529711e-002 
6.276075e-002 
5.935962e-002 
5.554616e-002 
5.233606e-002 
4.915962e-002 
4.389128e-002 
3.750848e-002 
3.136468e-002 
2.497992e-002 
1.742410e-002 
9.802965e-003 
3.577441e-003 
-1.213813e-003 
-5.457220e-003 
-8.626542e-003 
-1.092984e-002 
-1.415120e-002 
-1.814160e-002 
-2.289288e-002 
-2.585488e-002 
-2.613169e-002 
-2.405001e-002 
-2.242427e-002 
-2.225968e-002 
-2.091472e-002 
-1.803483e-002 
-1.345244e-002 
-6.590960e-003 
1.526733e-003 
8.894261e-003 
1.471054e-002 
1.865649e-002 
2.488051e-002 
3.314883e-002 
4.035455e-002 
4.678131e-002 
5.149184e-002 
5.357608e-002 
5.222361e-002 
4.817666e-002 
4.133463e-002 
3.036805e-002 
1.524454e-002 
1.217745e-003 
-9.424553e-003 
-1.743539e-002 
-2.395569e-002 
-3.151466e-002 
-3.992901e-002 
-4.990428e-002 
-6.022673e-002 
-6.663562e-002 
-6.817486e-002 
-6.935847e-002 
-7.090699e-002 
-7.232627e-002 
-7.421931e-002 
-7.524123e-002 
-7.400043e-002 
-7.026469e-002 
-6.263801e-002 
-5.427240e-002 
-4.796917e-002 
-4.349276e-002 
-4.203146e-002 
-4.496704e-002 
-4.794684e-002 
-4.752032e-002 
-4.326467e-002 
-3.571348e-002 
-2.786599e-002 
-2.152905e-002 
-1.688609e-002 
-1.177298e-002 
-5.135865e-003 
3.713106e-003 
1.253688e-002 
1.851634e-002 
2.238371e-002 
2.672661e-002 
2.966938e-002 
3.229146e-002 
3.550517e-002 
3.652385e-002 
3.630337e-002 
3.666176e-002 
3.542049e-002 
3.498394e-002 
3.355321e-002 
2.864150e-002 
2.484234e-002 
2.228945e-002 
2.011890e-002 
1.853047e-002 
1.495378e-002 
7.791180e-003 
1.851426e-003 
-2.349751e-003 
-5.006082e-003 
-6.228334e-003 
-8.915496e-003 
-1.481057e-002 
-2.132938e-002 
-2.653281e-002 
-3.117446e-002 
-3.189964e-002 
-3.201440e-002 
-3.466680e-002 
-3.660155e-002 
-3.680612e-002 
-3.525695e-002 
-3.034795e-002 
-2.536698e-002 
-2.182399e-002 
-1.701193e-002 
-1.265360e-002 
-6.777164e-003 
1.437770e-003 
9.033025e-003 
1.415145e-002 
1.799536e-002 
2.163915e-002 
2.423115e-002 
2.677683e-002 
2.880603e-002 
2.938166e-002 
2.954068e-002 
2.956196e-002 
2.809255e-002 
2.673164e-002 
2.402855e-002 
1.876447e-002 
1.424247e-002 
8.785671e-003 
3.940246e-003 
1.142839e-003 
-4.167713e-003 
-1.271291e-002 
-2.083124e-002 
-2.909412e-002 
-3.647239e-002 
-4.189766e-002 
-4.694517e-002 
-5.062112e-002 
-5.518273e-002 
-6.282228e-002 
-7.062782e-002 
-7.580929e-002 
-8.037812e-002 
-8.319978e-002 
-8.213375e-002 
-7.960109e-002 
-7.656987e-002 
-7.270647e-002 
-6.844024e-002 
-6.361365e-002 
-5.698252e-002 
-4.840379e-002 
-3.642561e-002 
-2.335725e-002 
-1.390280e-002 
-6.962518e-003 
2.872076e-004 
7.160585e-003 
1.299620e-002 
2.000095e-002 
2.767491e-002 
3.285464e-002 
3.384453e-002 
3.273606e-002 
3.239751e-002 
3.316934e-002 
3.204404e-002 
2.913923e-002 
2.818626e-002 
2.769709e-002 
2.504325e-002 
2.192342e-002 
1.826373e-002 
1.386148e-002 
8.425444e-003 
3.004065e-003 
8.999173e-004 
2.518759e-003 
2.490355e-003 
-8.960618e-004 
-5.978863e-003 
-1.119720e-002 
-1.452595e-002 
-1.583467e-002 
-1.494308e-002 
-1.377504e-002 
-1.330956e-002 
-1.420426e-002 
-1.347972e-002 
-1.055871e-002 
-5.834990e-003 
-7.954411e-004 
5.147938e-003 
1.120763e-002 
1.764736e-002 
2.490770e-002 
3.140964e-002 
3.651898e-002 
3.948272e-002 
4.302117e-002 
4.753409e-002 
5.237732e-002 
5.593578e-002 
5.697236e-002 
5.682685e-002 
5.598870e-002 
5.386641e-002 
5.230361e-002 
5.025412e-002 
4.674788e-002 
4.369469e-002 
4.047552e-002 
3.714481e-002 
3.508363e-002 
2.983624e-002 
2.261589e-002 
1.645902e-002 
1.072071e-002 
6.982720e-003 
4.419128e-003 
5.226679e-004 
-4.865282e-003 
-1.134859e-002 
-1.768067e-002 
-2.039312e-002 
-2.081499e-002 
-2.135301e-002 
-2.150041e-002 
-2.285017e-002 
-2.371771e-002 
-2.292740e-002 
-1.915426e-002 
-1.224642e-002 
-6.299650e-003 
-1.690945e-003 
5.363295e-003 
1.326406e-002 
1.963121e-002 
2.628756e-002 
3.015887e-002 
3.397840e-002 
3.825659e-002 
3.928286e-002 
4.165278e-002 
4.545559e-002 
4.452198e-002 
4.156809e-002 
3.850330e-002 
3.536190e-002 
3.477991e-002 
3.266057e-002 
2.844410e-002 
2.614582e-002 
2.239309e-002 
1.647410e-002 
1.232125e-002 
8.733562e-003 
4.419819e-003 
1.116350e-004 
-4.038250e-003 
-7.008084e-003 
-9.683467e-003 
-1.343425e-002 
-1.786209e-002 
-2.136779e-002 
-2.449831e-002 
-2.730031e-002 
-2.775717e-002 
-2.754622e-002 
-2.885737e-002 
-2.988525e-002 
-2.887163e-002 
-2.650982e-002 
-2.085817e-002 
-1.484774e-002 
-9.618141e-003 
-3.439926e-003 
1.829543e-003 
7.531268e-003 
1.581740e-002 
2.325278e-002 
2.834903e-002 
3.243263e-002 
3.515066e-002 
3.787895e-002 
3.942297e-002 
4.043194e-002 
4.160509e-002 
4.142036e-002 
3.933146e-002 
3.631485e-002 
3.381318e-002 
3.133758e-002 
2.668304e-002 
2.012803e-002 
1.564793e-002 
1.054635e-002 
5.016414e-003 
-6.950521e-004 
-6.772824e-003 
-1.130953e-002 
-1.603927e-002 
-2.143833e-002 
-2.494121e-002 
-2.733461e-002 
-3.237130e-002 
-3.740860e-002 
-4.140978e-002 
-4.208787e-002 
-4.022387e-002 
-3.829681e-002 
-3.603420e-002 
-3.357024e-002 
-3.107351e-002 
-2.771246e-002 
-2.239819e-002 
-1.549198e-002 
-8.468887e-003 
-2.391829e-003 
3.489557e-003 
9.100488e-003 
1.404072e-002 
1.882748e-002 
2.284251e-002 
2.581723e-002 
2.887283e-002 
3.051086e-002 
3.173372e-002 
3.174602e-002 
2.886001e-002 
2.513835e-002 
2.255890e-002 
2.018760e-002 
1.761245e-002 
1.472847e-002 
8.125206e-003 
-3.620408e-003 
-2.020345e-002 
-3.893949e-002 
-5.372779e-002 
-6.413895e-002 
-7.265491e-002 
-7.873513e-002 
-8.448031e-002 
-9.329337e-002 
-1.026408e-001 
-1.093839e-001 
-1.123690e-001 
-1.104617e-001 
-1.069235e-001 
-1.027680e-001 
-9.836003e-002 
-9.537167e-002 
-9.276129e-002 
-8.620033e-002 
-7.350898e-002 
-5.722228e-002 
-3.969023e-002 
-2.427403e-002 
-1.358079e-002 
-7.549143e-003 
-3.731547e-003 
-3.540363e-004 
6.041649e-003 
1.414551e-002 
1.876425e-002 
2.176260e-002 
2.406691e-002 
2.397126e-002 
2.571340e-002 
2.796044e-002 
2.845456e-002 
2.888086e-002 
2.709980e-002 
2.322724e-002 
2.125694e-002 
1.873500e-002 
1.448736e-002 
1.224889e-002 
9.249785e-003 
5.627726e-003 
1.939338e-003 
-2.823426e-003 
-8.832451e-003 
-1.389412e-002 
-1.939737e-002 
-2.345560e-002 
-2.410211e-002 
-2.561152e-002 
-3.069943e-002 
-3.743895e-002 
-4.186272e-002 
-4.356354e-002 
-4.431943e-002 
-4.575494e-002 
-4.599679e-002 
-4.511474e-002 
-4.545520e-002 
-4.512703e-002 
-4.018393e-002 
-3.218646e-002 
-2.729301e-002 
-2.510228e-002 
-2.076460e-002 
-1.364795e-002 
-5.972582e-003 
-5.858617e-004 
3.881257e-003 
8.171227e-003 
1.058743e-002 
1.178227e-002 
1.411718e-002 
1.635282e-002 
1.594682e-002 
1.350779e-002 
9.578850e-003 
7.859634e-003 
6.919887e-003 
4.419103e-003 
1.123491e-003 
-3.126765e-003 
-7.574123e-003 
-1.153221e-002 
-1.453071e-002 
-1.811472e-002 
-2.199187e-002 
-2.795348e-002 
-3.336514e-002 
-3.637083e-002 
-3.858858e-002 
-4.183085e-002 
-4.621087e-002 
-4.986176e-002 
-5.347968e-002 
-5.660151e-002 
-5.844284e-002 
-5.995018e-002 
-6.246519e-002 
-6.520713e-002 
-6.713741e-002 
-6.573294e-002 
-6.175460e-002 
-5.915535e-002 
-5.607339e-002 
-5.248250e-002 
-4.869939e-002 
-4.344961e-002 
-3.811012e-002 
-3.305119e-002 
-2.898389e-002 
-2.581737e-002 
-2.265472e-002 
-1.836199e-002 
-1.436599e-002 
-1.092564e-002 
-1.059889e-002 
-1.124918e-002 
-1.074431e-002 
-9.514778e-003 
-7.559474e-003 
-7.131003e-003 
-8.530959e-003 
-1.032786e-002 
-1.180300e-002 
-1.412787e-002 
-1.500681e-002 
-1.640021e-002 
-1.993312e-002 
-2.385046e-002 
-2.765066e-002 
-3.118762e-002 
-3.250390e-002 
-3.372307e-002 
-3.695725e-002 
-4.010409e-002 
-4.318013e-002 
-4.413230e-002 
-4.286661e-002 
-4.405856e-002 
-4.539383e-002 
-4.432267e-002 
-4.394250e-002 
-4.214099e-002 
-3.740665e-002 
-3.098440e-002 
-2.405596e-002 
-2.006326e-002 
-1.682918e-002 
-9.921445e-003 
-2.236326e-003 
4.269519e-003 
1.109241e-002 
1.702558e-002 
2.066060e-002 
2.174742e-002 
2.226721e-002 
2.473503e-002 
2.685245e-002 
2.679460e-002 
2.645339e-002 
2.576322e-002 
2.326842e-002 
1.929681e-002 
1.406721e-002 
1.040386e-002 
8.145756e-003 
5.160638e-003 
2.421319e-003 
-3.944787e-004 
-6.654950e-003 
-1.405584e-002 
-2.009733e-002 
-2.454418e-002 
-2.563103e-002 
-2.678587e-002 
-3.056720e-002 
-3.532868e-002 
-4.050296e-002 
-4.628438e-002 
-4.933366e-002 
-5.074011e-002 
-5.265683e-002 
-5.370003e-002 
-5.492794e-002 
-5.545819e-002 
-5.305237e-002 
-4.910801e-002 
-4.628267e-002 
-4.279444e-002 
-3.823952e-002 
-3.186563e-002 
-2.315673e-002 
-1.496090e-002 
-8.392724e-003 
-3.328367e-003 
1.407926e-003 
6.313305e-003 
1.274897e-002 
1.982303e-002 
2.463983e-002 
2.590940e-002 
2.518005e-002 
2.298103e-002 
2.175455e-002 
2.223246e-002 
2.024499e-002 
1.667419e-002 
1.320214e-002 
9.415633e-003 
7.755638e-003 
6.560301e-003 
3.282262e-003 
-4.602338e-004 
-5.926761e-003 
-1.201912e-002 
-1.512471e-002 
-1.719707e-002 
-2.044186e-002 
-2.462818e-002 
-3.022349e-002 
-3.462065e-002 
-3.705967e-002 
-3.927601e-002 
-4.076188e-002 
-4.309308e-002 
-4.632380e-002 
-4.817512e-002 
-4.780856e-002 
-4.627600e-002 
-4.445620e-002 
-4.308409e-002 
-4.081799e-002 
-3.628927e-002 
-3.015031e-002 
-2.185163e-002 
-1.406906e-002 
-8.130283e-003 
-3.372774e-003 
2.082544e-003 
8.921707e-003 
1.586757e-002 
2.138170e-002 
2.515549e-002 
2.802757e-002 
2.988090e-002 
3.126072e-002 
3.186117e-002 
3.187863e-002 
3.083699e-002 
2.893926e-002 
2.740319e-002 
2.732583e-002 
2.814322e-002 
2.692709e-002 
2.296976e-002 
1.892713e-002 
1.636925e-002 
1.406172e-002 
1.087914e-002 
6.351929e-003 
1.758174e-003 
-2.787924e-003 
-8.444857e-003 
-1.226817e-002 
-1.476433e-002 
-1.893809e-002 
-2.438679e-002 
-2.925658e-002 
-3.285494e-002 
-3.345954e-002 
-3.499947e-002 
-3.837420e-002 
-3.980298e-002 
-4.042526e-002 
-3.902917e-002 
-3.425707e-002 
-2.881825e-002 
-2.529620e-002 
-2.150065e-002 
-1.807783e-002 
-1.265193e-002 
-5.159045e-003 
1.425903e-003 
6.234384e-003 
8.745407e-003 
8.724273e-003 
8.803046e-003 
1.268556e-002 
1.514259e-002 
1.358288e-002 
1.024604e-002 
6.668476e-003 
3.903712e-003 
2.227036e-003 
9.017866e-004 
-2.885079e-004 
-2.607963e-003 
-8.681756e-003 
-1.326324e-002 
-1.389338e-002 
-1.398501e-002 
-1.675219e-002 
-2.107821e-002 
-2.474309e-002 
-2.751867e-002 
-2.931290e-002 
-3.037122e-002 
-3.236037e-002 
-3.836899e-002 
-5.024807e-002 
-6.576760e-002 
-7.862270e-002 
-8.840226e-002 
-9.649665e-002 
-1.005016e-001 
-1.010248e-001 
-1.018846e-001 
-1.028046e-001 
-1.044422e-001 
-1.039924e-001 
-9.846596e-002 
-9.038415e-002 
-7.995866e-002 
-6.651927e-002 
-5.534553e-002 
-4.857154e-002 
-4.146275e-002 
-3.164202e-002 
-1.823563e-002 
-1.977119e-003 
1.236199e-002 
2.100826e-002 
2.441175e-002 
2.308136e-002 
2.059723e-002 
2.000526e-002 
1.810065e-002 
1.421763e-002 
1.026838e-002 
4.612903e-003 
4.709360e-004 
4.626960e-004 
6.243726e-004 
-1.812665e-003 
-7.082753e-003 
-1.356340e-002 
-1.790316e-002 
-2.014881e-002 
-2.193854e-002 
-2.336810e-002 
-2.662348e-002 
-3.214148e-002 
-3.736427e-002 
-4.044064e-002 
-4.194946e-002 
-4.447253e-002 
-4.791101e-002 
-5.116936e-002 
-5.208005e-002 
-5.000354e-002 
-4.698454e-002 
-4.410049e-002 
-4.088623e-002 
-3.785057e-002 
-3.365952e-002 
-2.639207e-002 
-1.851453e-002 
-1.096081e-002 
-5.118573e-003 
-7.726312e-004 
4.399910e-003 
1.092669e-002 
1.611824e-002 
2.056289e-002 
2.246910e-002 
2.210438e-002 
2.270543e-002 
2.507729e-002 
2.651600e-002 
2.523603e-002 
2.189529e-002 
1.738397e-002 
1.343271e-002 
1.069233e-002 
1.009413e-002 
9.026951e-003 
5.788549e-003 
-9.589474e-004 
-6.260487e-003 
-9.352376e-003 
-1.338886e-002 
-1.806959e-002 
-2.222294e-002 
-2.658304e-002 
-3.135911e-002 
-3.486665e-002 
-3.694733e-002 
-3.962359e-002 
-4.481156e-002 
-4.998136e-002 
-5.257235e-002 
-5.221832e-002 
-5.060685e-002 
-5.037626e-002 
-4.943905e-002 
-4.789933e-002 
-4.623869e-002 
-4.070405e-002 
-3.342492e-002 
-2.768134e-002 
-2.215854e-002 
-1.792042e-002 
-1.530124e-002 
-9.610171e-003 
-4.718479e-003 
-2.665062e-003 
-7.632076e-004 
-3.424340e-004 
-6.977791e-004 
5.736399e-004 
1.019201e-003 
1.856258e-004 
-1.983781e-003 
-7.708127e-003 
-1.268909e-002 
-1.433018e-002 
-1.586845e-002 
-1.919560e-002 
-2.290072e-002 
-2.613808e-002 
-2.884146e-002 
-3.149650e-002 
-3.268136e-002 
-3.380294e-002 
-3.608829e-002 
-3.870281e-002 
-4.145189e-002 
-4.179640e-002 
-4.083610e-002 
-4.177626e-002 
-4.380349e-002 
-4.573829e-002 
-4.789513e-002 
-4.691142e-002 
