96
0.7292
1.2989e+003
91.6832
1.173409e-002 
3.114732e-002 
4.927891e-002 
6.773639e-002 
8.598816e-002 
1.040352e-001 
1.224086e-001 
1.395056e-001 
1.642548e-001 
1.999850e-001 
2.233874e-001 
2.396279e-001 
2.579940e-001 
2.749504e-001 
2.913849e-001 
3.069204e-001 
3.211065e-001 
3.367872e-001 
3.456194e-001 
3.434413e-001 
3.412125e-001 
3.369066e-001 
3.296750e-001 
3.231290e-001 
3.166778e-001 
3.115805e-001 
3.082585e-001 
3.039333e-001 
2.965683e-001 
2.885278e-001 
2.802948e-001 
2.732037e-001 
2.679753e-001 
2.621113e-001 
2.561196e-001 
2.488815e-001 
2.402863e-001 
2.326642e-001 
2.275478e-001 
2.225144e-001 
2.169094e-001 
2.101347e-001 
2.037986e-001 
1.995044e-001 
1.959231e-001 
1.919751e-001 
1.874114e-001 
1.817345e-001 
1.759613e-001 
1.702565e-001 
1.669649e-001 
1.667103e-001 
1.652346e-001 
1.619652e-001 
1.589566e-001 
1.564621e-001 
1.540318e-001 
1.525238e-001 
1.506949e-001 
1.512220e-001 
1.510068e-001 
1.474370e-001 
1.454688e-001 
1.439162e-001 
1.397099e-001 
1.366682e-001 
1.358920e-001 
1.354961e-001 
1.356913e-001 
1.314412e-001 
1.247017e-001 
1.205267e-001 
1.160502e-001 
1.123156e-001 
1.113526e-001 
1.097877e-001 
1.060862e-001 
1.010456e-001 
9.538484e-002 
9.332477e-002 
9.438692e-002 
9.353185e-002 
9.071895e-002 
8.774551e-002 
8.489800e-002 
8.254099e-002 
8.093532e-002 
8.067049e-002 
7.977248e-002 
7.610698e-002 
7.179398e-002 
6.885975e-002 
6.838178e-002 
6.782271e-002 
6.560445e-002 
6.316506e-002 
6.117906e-002 
5.824698e-002 
5.647509e-002 
5.577556e-002 
5.367833e-002 
5.294769e-002 
5.203866e-002 
5.147892e-002 
5.219504e-002 
5.181741e-002 
5.058346e-002 
4.950111e-002 
4.776638e-002 
4.742266e-002 
4.947228e-002 
5.014896e-002 
4.943138e-002 
4.798841e-002 
4.760787e-002 
4.856774e-002 
4.970300e-002 
5.031543e-002 
5.055029e-002 
5.046632e-002 
5.100955e-002 
5.428996e-002 
6.171806e-002 
7.053551e-002 
7.734742e-002 
8.310497e-002 
8.922550e-002 
9.678013e-002 
1.059316e-001 
1.174331e-001 
1.279594e-001 
1.351940e-001 
1.382598e-001 
1.390302e-001 
1.398013e-001 
1.416643e-001 
1.440307e-001 
1.456825e-001 
1.464552e-001 
1.428838e-001 
1.353907e-001 
1.257696e-001 
1.152485e-001 
1.067432e-001 
1.009100e-001 
9.387269e-002 
8.568387e-002 
7.708219e-002 
6.605214e-002 
5.482826e-002 
4.562310e-002 
4.030606e-002 
3.783839e-002 
3.269688e-002 
2.375808e-002 
1.557795e-002 
8.864745e-003 
2.492990e-003 
-3.274288e-003 
-7.739064e-003 
-1.190162e-002 
-1.792530e-002 
-2.531757e-002 
-3.077906e-002 
-3.258556e-002 
-3.327630e-002 
-3.566648e-002 
-3.918311e-002 
-4.044535e-002 
-4.059813e-002 
-3.995405e-002 
-3.978031e-002 
-4.002116e-002 
-3.945287e-002 
-3.942723e-002 
-4.052436e-002 
-4.158907e-002 
-4.140611e-002 
-4.383449e-002 
-4.942899e-002 
-5.567665e-002 
-5.941318e-002 
-6.229562e-002 
-6.780998e-002 
-7.829512e-002 
-9.266967e-002 
-1.106503e-001 
-1.359085e-001 
-1.667634e-001 
-2.029324e-001 
-2.457997e-001 
-2.971177e-001 
-3.522778e-001 
-4.062379e-001 
-4.553769e-001 
-5.005644e-001 
-5.443882e-001 
-5.864540e-001 
-6.248248e-001 
-6.571873e-001 
-6.809393e-001 
-6.927368e-001 
-6.938696e-001 
-6.848373e-001 
-6.681517e-001 
-6.465902e-001 
-6.166105e-001 
-5.743211e-001 
-5.228347e-001 
-4.634875e-001 
-3.995972e-001 
-3.360209e-001 
-2.737218e-001 
-2.170529e-001 
-1.678042e-001 
-1.190680e-001 
-7.276579e-002 
-3.254904e-002 
4.054350e-003 
3.466046e-002 
5.883853e-002 
8.048204e-002 
9.894786e-002 
1.154540e-001 
1.321968e-001 
1.432310e-001 
1.490768e-001 
1.532645e-001 
1.564729e-001 
1.609032e-001 
1.672300e-001 
1.721812e-001 
1.747631e-001 
1.752460e-001 
1.736151e-001 
1.733452e-001 
1.763803e-001 
1.814095e-001 
1.858771e-001 
1.884062e-001 
1.904587e-001 
1.934026e-001 
1.959788e-001 
1.970261e-001 
1.987714e-001 
2.007168e-001 
2.021001e-001 
2.032102e-001 
2.053574e-001 
2.094341e-001 
2.113801e-001 
2.101527e-001 
2.093708e-001 
2.108889e-001 
2.121745e-001 
2.139769e-001 
2.159888e-001 
2.193685e-001 
2.213208e-001 
2.215424e-001 
2.236201e-001 
2.259201e-001 
2.273543e-001 
2.289872e-001 
2.314981e-001 
2.351751e-001 
2.389727e-001 
2.399405e-001 
2.407772e-001 
2.411436e-001 
2.421153e-001 
2.456952e-001 
2.501520e-001 
2.534828e-001 
2.553541e-001 
2.551582e-001 
2.552685e-001 
2.552751e-001 
2.560678e-001 
2.597113e-001 
2.623656e-001 
2.634823e-001 
2.642737e-001 
2.647749e-001 
2.660305e-001 
2.661671e-001 
2.627513e-001 
2.602799e-001 
2.587376e-001 
2.557276e-001 
2.525836e-001 
2.482615e-001 
2.416869e-001 
2.343940e-001 
2.263651e-001 
2.193422e-001 
2.149687e-001 
2.090891e-001 
2.006680e-001 
1.918497e-001 
1.819617e-001 
1.726287e-001 
1.647989e-001 
1.570343e-001 
1.498166e-001 
1.420206e-001 
1.343646e-001 
1.289646e-001 
1.251844e-001 
1.203592e-001 
1.138902e-001 
1.072258e-001 
1.021759e-001 
9.868287e-002 
9.625614e-002 
9.495840e-002 
9.186236e-002 
8.904444e-002 
8.534740e-002 
8.165663e-002 
8.125946e-002 
8.273860e-002 
8.218750e-002 
8.128589e-002 
7.993991e-002 
7.784685e-002 
7.744554e-002 
7.524310e-002 
7.318280e-002 
7.250287e-002 
7.112769e-002 
6.958277e-002 
7.072613e-002 
7.070192e-002 
6.793211e-002 
6.440092e-002 
6.107722e-002 
5.917219e-002 
5.725543e-002 
5.446835e-002 
5.253082e-002 
5.050533e-002 
4.645879e-002 
4.254973e-002 
4.026811e-002 
3.907315e-002 
3.682148e-002 
3.262565e-002 
2.977753e-002 
2.906131e-002 
2.728857e-002 
2.339861e-002 
1.817000e-002 
1.327406e-002 
9.670586e-003 
6.899041e-003 
5.012277e-003 
5.590457e-003 
5.292929e-003 
2.828609e-003 
-4.295743e-004 
-3.010668e-003 
-4.414767e-003 
-5.105960e-003 
-6.900680e-003 
-8.589767e-003 
-8.242479e-003 
-8.629995e-003 
-9.218965e-003 
-1.052499e-002 
-1.208678e-002 
-1.366071e-002 
-1.434852e-002 
-1.381782e-002 
-1.123028e-002 
-9.483751e-003 
-1.157708e-002 
-1.456264e-002 
-1.675287e-002 
-1.724342e-002 
-1.668029e-002 
-1.546926e-002 
-1.320997e-002 
-1.171270e-002 
-1.017812e-002 
-6.271670e-003 
3.545509e-004 
9.111781e-003 
1.775640e-002 
2.561455e-002 
3.494583e-002 
4.553633e-002 
5.633369e-002 
6.846180e-002 
7.729460e-002 
8.431182e-002 
9.172796e-002 
9.764748e-002 
1.039958e-001 
1.097922e-001 
1.126489e-001 
1.133231e-001 
1.100695e-001 
1.030947e-001 
9.773502e-002 
9.058445e-002 
8.181432e-002 
7.324739e-002 
6.395926e-002 
5.479528e-002 
4.563501e-002 
3.547023e-002 
2.555677e-002 
1.663652e-002 
8.743111e-003 
3.344532e-003 
-6.415169e-004 
-4.072773e-003 
-1.042174e-002 
-1.676668e-002 
-2.231238e-002 
-2.682924e-002 
-2.861794e-002 
-2.913959e-002 
-3.111658e-002 
-3.312948e-002 
-3.561555e-002 
-4.016062e-002 
-4.199503e-002 
-4.403403e-002 
-4.629067e-002 
-4.669867e-002 
-4.683595e-002 
-4.604885e-002 
-4.364180e-002 
-4.315755e-002 
-4.538575e-002 
-4.661548e-002 
-4.766450e-002 
-4.753950e-002 
-4.646858e-002 
-4.656322e-002 
-4.764941e-002 
-5.043106e-002 
-5.386499e-002 
-5.713771e-002 
-5.923392e-002 
-6.469121e-002 
-7.649364e-002 
-9.393302e-002 
-1.173753e-001 
-1.491084e-001 
-1.886090e-001 
-2.349585e-001 
-2.857187e-001 
-3.352913e-001 
-3.824869e-001 
-4.247086e-001 
-4.630439e-001 
-5.029631e-001 
-5.441284e-001 
-5.804696e-001 
-6.069680e-001 
-6.217366e-001 
-6.244215e-001 
-6.165953e-001 
-6.038630e-001 
-5.887740e-001 
-5.663606e-001 
-5.313919e-001 
-4.818087e-001 
-4.236401e-001 
-3.643291e-001 
-3.035139e-001 
-2.453512e-001 
-1.935172e-001 
-1.440677e-001 
-9.784299e-002 
-5.602280e-002 
-1.874378e-002 
1.244470e-002 
4.126218e-002 
6.856544e-002 
9.188935e-002 
1.115908e-001 
1.255204e-001 
1.339688e-001 
1.425927e-001 
1.508773e-001 
1.576251e-001 
1.624727e-001 
1.654453e-001 
1.682339e-001 
1.691709e-001 
1.680520e-001 
1.674814e-001 
1.679069e-001 
1.667517e-001 
1.649858e-001 
1.642569e-001 
1.646419e-001 
1.662974e-001 
1.672006e-001 
1.677901e-001 
1.682461e-001 
1.691039e-001 
1.698390e-001 
1.715244e-001 
1.730858e-001 
1.752560e-001 
1.786218e-001 
1.803840e-001 
1.821303e-001 
1.829718e-001 
1.825120e-001 
1.821357e-001 
1.834412e-001 
1.852835e-001 
1.874750e-001 
1.866755e-001 
1.836906e-001 
1.804266e-001 
1.759667e-001 
1.739534e-001 
1.751576e-001 
1.762790e-001 
1.748439e-001 
1.714022e-001 
1.691455e-001 
1.696194e-001 
1.709767e-001 
1.726360e-001 
1.755186e-001 
1.774186e-001 
1.764144e-001 
1.758162e-001 
1.780159e-001 
1.818700e-001 
1.841905e-001 
1.857445e-001 
1.868672e-001 
1.888032e-001 
1.890879e-001 
1.886272e-001 
1.891687e-001 
1.885616e-001 
1.864656e-001 
1.837768e-001 
1.823120e-001 
1.802148e-001 
1.769746e-001 
1.713089e-001 
1.666843e-001 
1.616440e-001 
1.565842e-001 
1.523634e-001 
1.472262e-001 
1.410423e-001 
1.336059e-001 
1.270054e-001 
1.206239e-001 
1.145690e-001 
1.083368e-001 
1.038813e-001 
9.928782e-002 
9.314894e-002 
8.669496e-002 
8.120947e-002 
7.611255e-002 
7.034645e-002 
6.725532e-002 
6.572079e-002 
6.402435e-002 
6.068662e-002 
5.672434e-002 
5.352082e-002 
5.180852e-002 
5.173811e-002 
5.337932e-002 
5.545123e-002 
5.451861e-002 
5.369255e-002 
5.404039e-002 
5.520954e-002 
5.749140e-002 
6.041522e-002 
6.198950e-002 
6.181322e-002 
5.968774e-002 
5.746317e-002 
5.766733e-002 
5.655475e-002 
5.440095e-002 
5.322740e-002 
5.220905e-002 
4.941867e-002 
4.767313e-002 
4.544394e-002 
4.238390e-002 
3.923702e-002 
3.520996e-002 
3.361072e-002 
3.313867e-002 
3.018156e-002 
2.527115e-002 
2.269018e-002 
1.993020e-002 
1.806596e-002 
1.766490e-002 
1.693982e-002 
1.538934e-002 
1.240980e-002 
8.081514e-003 
4.290533e-003 
2.811524e-003 
9.145237e-004 
-2.647621e-004 
-1.620246e-003 
-3.182619e-003 
-3.474037e-003 
-2.861804e-003 
-3.681461e-003 
-5.504599e-003 
-6.252737e-003 
-6.013593e-003 
-5.138488e-003 
-4.245763e-003 
-3.850719e-003 
-4.934807e-003 
-6.586242e-003 
-8.691965e-003 
-8.424764e-003 
-5.825583e-003 
-3.679148e-003 
-3.749381e-003 
-4.372430e-003 
-4.597600e-003 
-2.699250e-003 
2.718336e-003 
9.900604e-003 
1.791818e-002 
2.508321e-002 
3.122956e-002 
3.588513e-002 
4.296765e-002 
5.098134e-002 
5.786040e-002 
6.447270e-002 
6.972335e-002 
7.355019e-002 
7.705571e-002 
7.799288e-002 
7.829713e-002 
8.030389e-002 
7.870487e-002 
7.432072e-002 
6.990213e-002 
6.445317e-002 
5.723285e-002 
4.829382e-002 
3.984352e-002 
3.476864e-002 
2.831161e-002 
1.892087e-002 
1.027405e-002 
4.498690e-003 
-7.471949e-004 
-7.263808e-003 
-1.345043e-002 
-1.859111e-002 
-2.595481e-002 
-3.587461e-002 
-4.303893e-002 
-4.642508e-002 
-4.828159e-002 
-5.219065e-002 
-5.794471e-002 
-6.304930e-002 
-6.770039e-002 
-7.167416e-002 
-7.282591e-002 
-7.266782e-002 
-7.415286e-002 
-7.591082e-002 
-7.723960e-002 
-7.682572e-002 
-7.422782e-002 
-7.226397e-002 
-7.171472e-002 
-7.209115e-002 
-7.494456e-002 
-7.732101e-002 
-7.839880e-002 
-8.055533e-002 
-8.277101e-002 
-8.600319e-002 
-9.153986e-002 
-9.822186e-002 
-1.068043e-001 
-1.206085e-001 
-1.408617e-001 
-1.699105e-001 
-2.040116e-001 
-2.420270e-001 
-2.845955e-001 
-3.288158e-001 
-3.697663e-001 
-4.052718e-001 
-4.384094e-001 
-4.726052e-001 
-5.046490e-001 
-5.307243e-001 
-5.536959e-001 
-5.706748e-001 
-5.766669e-001 
-5.695982e-001 
-5.542881e-001 
-5.384593e-001 
-5.202362e-001 
-4.912477e-001 
-4.515254e-001 
-4.052400e-001 
-3.524883e-001 
-2.958137e-001 
-2.418266e-001 
-1.941602e-001 
-1.527049e-001 
-1.126003e-001 
-7.204033e-002 
-3.647265e-002 
-7.296173e-003 
1.980395e-002 
4.440283e-002 
6.573080e-002 
8.431316e-002 
9.702821e-002 
1.052073e-001 
1.112542e-001 
1.155640e-001 
1.208211e-001 
1.272158e-001 
1.318240e-001 
1.333691e-001 
1.322444e-001 
1.292147e-001 
1.275866e-001 
1.276707e-001 
1.279700e-001 
1.283936e-001 
1.286614e-001 
1.289752e-001 
1.291517e-001 
1.312335e-001 
1.325067e-001 
1.315454e-001 
1.311989e-001 
1.327875e-001 
1.344720e-001 
1.357619e-001 
1.361266e-001 
1.347867e-001 
1.332564e-001 
1.303529e-001 
1.298052e-001 
1.337069e-001 
1.366345e-001 
1.356691e-001 
1.331574e-001 
1.312745e-001 
1.303274e-001 
1.318422e-001 
1.332635e-001 
1.348247e-001 
1.366430e-001 
1.373955e-001 
1.379640e-001 
1.391672e-001 
1.407480e-001 
1.408755e-001 
1.414312e-001 
1.422006e-001 
1.461521e-001 
1.512062e-001 
1.536438e-001 
1.527338e-001 
1.511874e-001 
1.500236e-001 
1.494574e-001 
1.520107e-001 
1.552854e-001 
1.567839e-001 
1.542657e-001 
1.503008e-001 
1.474346e-001 
1.469519e-001 
1.465561e-001 
1.468332e-001 
1.474876e-001 
1.453619e-001 
1.418542e-001 
1.389335e-001 
1.372007e-001 
1.348607e-001 
1.311408e-001 
1.284641e-001 
1.269897e-001 
1.239770e-001 
1.199082e-001 
1.154179e-001 
1.096316e-001 
1.045373e-001 
9.882643e-002 
9.491289e-002 
9.297718e-002 
8.769823e-002 
8.072019e-002 
7.500073e-002 
6.941590e-002 
6.498627e-002 
6.297291e-002 
6.018817e-002 
5.866758e-002 
5.652058e-002 
5.351478e-002 
5.230307e-002 
5.099502e-002 
4.872543e-002 
4.748161e-002 
4.708370e-002 
4.707641e-002 
4.773001e-002 
4.714278e-002 
4.549913e-002 
4.220002e-002 
3.886942e-002 
3.708764e-002 
3.622195e-002 
3.486603e-002 
3.245085e-002 
2.880989e-002 
2.493671e-002 
2.125831e-002 
1.919337e-002 
1.821192e-002 
1.587013e-002 
1.309408e-002 
1.012526e-002 
7.001220e-003 
4.057785e-003 
1.357895e-003 
-7.789190e-004 
-3.181807e-003 
-6.742507e-003 
-8.956425e-003 
-8.699523e-003 
-9.512784e-003 
-1.189430e-002 
-1.503188e-002 
-1.763428e-002 
-1.939648e-002 
-2.123815e-002 
-2.200787e-002 
-2.315305e-002 
-2.562581e-002 
-2.939578e-002 
-3.253614e-002 
-3.505854e-002 
-3.578245e-002 
-3.683716e-002 
-3.898514e-002 
-4.156947e-002 
-4.398312e-002 
-4.654096e-002 
-4.912441e-002 
-5.240208e-002 
-5.407498e-002 
-5.239877e-002 
-5.157543e-002 
-5.124254e-002 
-4.984309e-002 
-4.997078e-002 
-5.234527e-002 
-5.337346e-002 
-5.228794e-002 
-4.716845e-002 
-4.353106e-002 
-4.420642e-002 
-4.464444e-002 
-4.422746e-002 
-4.530098e-002 
-4.451502e-002 
-4.145988e-002 
-3.745842e-002 
-3.396514e-002 
-3.188699e-002 
-2.734366e-002 
-1.976694e-002 
-1.221379e-002 
-5.914569e-003 
6.237318e-004 
8.610289e-003 
1.767237e-002 
2.727015e-002 
3.659410e-002 
4.308305e-002 
4.679825e-002 
4.862017e-002 
4.980809e-002 
5.355726e-002 
5.749905e-002 
5.742592e-002 
5.388487e-002 
4.611550e-002 
3.669375e-002 
2.852075e-002 
2.095945e-002 
1.406423e-002 
6.725026e-003 
-3.803861e-003 
-1.536823e-002 
-2.572072e-002 
-3.541211e-002 
-4.438199e-002 
-5.219514e-002 
-5.903970e-002 
-6.640714e-002 
-7.389790e-002 
-8.132557e-002 
-8.804009e-002 
-9.389849e-002 
-1.006599e-001 
-1.069930e-001 
-1.105795e-001 
-1.145503e-001 
-1.195575e-001 
-1.238050e-001 
-1.275321e-001 
-1.301944e-001 
-1.327879e-001 
-1.363751e-001 
-1.387500e-001 
-1.399688e-001 
-1.416352e-001 
-1.420591e-001 
-1.416329e-001 
-1.426349e-001 
-1.453338e-001 
-1.499472e-001 
-1.549575e-001 
-1.589125e-001 
-1.621183e-001 
-1.646219e-001 
-1.679605e-001 
-1.734585e-001 
-1.822353e-001 
-1.945534e-001 
-2.131051e-001 
-2.389036e-001 
-2.732139e-001 
-3.138405e-001 
-3.569859e-001 
-3.998522e-001 
-4.390816e-001 
-4.760997e-001 
-5.131584e-001 
-5.522811e-001 
-5.898034e-001 
-6.219635e-001 
-6.445204e-001 
-6.580339e-001 
-6.638829e-001 
-6.629642e-001 
-6.570049e-001 
-6.474190e-001 
-6.328986e-001 
-6.066588e-001 
-5.674589e-001 
-5.188118e-001 
-4.667561e-001 
-4.131354e-001 
-3.595575e-001 
-3.096585e-001 
-2.657088e-001 
-2.235825e-001 
-1.800282e-001 
-1.393614e-001 
-1.052030e-001 
-7.625980e-002 
-5.121296e-002 
-2.867101e-002 
-8.275089e-003 
1.016883e-002 
2.763235e-002 
4.195524e-002 
5.095588e-002 
5.730839e-002 
6.222593e-002 
6.596737e-002 
7.141474e-002 
7.658330e-002 
7.893096e-002 
7.899077e-002 
7.737532e-002 
7.547577e-002 
7.503660e-002 
7.505224e-002 
7.623458e-002 
7.821725e-002 
7.890921e-002 
7.908588e-002 
7.854641e-002 
7.600685e-002 
7.317519e-002 
7.162219e-002 
7.180313e-002 
7.283399e-002 
7.237271e-002 
7.076317e-002 
6.911204e-002 
6.683740e-002 
6.483235e-002 
6.408898e-002 
6.488330e-002 
6.589504e-002 
6.509340e-002 
6.370289e-002 
6.422947e-002 
6.595939e-002 
6.707024e-002 
6.693240e-002 
6.664173e-002 
6.899191e-002 
7.101278e-002 
7.248176e-002 
7.445481e-002 
7.605361e-002 
7.644990e-002 
7.637882e-002 
7.715508e-002 
7.942033e-002 
8.235286e-002 
8.308463e-002 
8.363370e-002 
8.366446e-002 
8.410309e-002 
8.542981e-002 
8.694321e-002 
8.725523e-002 
8.621396e-002 
8.602574e-002 
8.762239e-002 
8.934423e-002 
8.959890e-002 
8.901879e-002 
8.700327e-002 
8.439180e-002 
8.203098e-002 
8.087704e-002 
8.124557e-002 
7.987924e-002 
7.605087e-002 
7.100648e-002 
6.577159e-002 
6.163067e-002 
5.746979e-002 
5.198070e-002 
4.732234e-002 
4.312324e-002 
3.776972e-002 
3.210067e-002 
2.548435e-002 
1.871484e-002 
1.214969e-002 
4.923058e-003 
9.859214e-005 
-2.038509e-003 
-5.841185e-003 
-1.117218e-002 
-1.619622e-002 
-2.046002e-002 
-2.457847e-002 
-2.870600e-002 
-3.146018e-002 
-3.402108e-002 
-3.754080e-002 
-4.054537e-002 
-4.228274e-002 
-4.310315e-002 
-4.472414e-002 
-4.822900e-002 
-5.006162e-002 
-4.997221e-002 
-4.954943e-002 
-4.676353e-002 
-4.544817e-002 
-4.839499e-002 
-5.111486e-002 
-5.349854e-002 
-5.429693e-002 
-5.150305e-002 
-4.945342e-002 
-4.891727e-002 
-4.925727e-002 
-5.253857e-002 
-5.496805e-002 
-5.376463e-002 
-5.472139e-002 
-5.603890e-002 
-5.739811e-002 
-6.033765e-002 
-6.291607e-002 
-6.440523e-002 
-6.712395e-002 
-7.020559e-002 
-7.290713e-002 
-7.662578e-002 
-7.841592e-002 
-7.980773e-002 
-8.166380e-002 
-8.556686e-002 
-9.032291e-002 
-9.497718e-002 
-9.830768e-002 
-9.897600e-002 
-9.953089e-002 
-1.007147e-001 
-1.031828e-001 
-1.056539e-001 
-1.074957e-001 
-1.069049e-001 
-1.062001e-001 
-1.065622e-001 
-1.063842e-001 
-1.057447e-001 
-1.056537e-001 
-1.055307e-001 
-1.030775e-001 
-1.019934e-001 
-1.018669e-001 
-1.015572e-001 
-1.010286e-001 
-9.896997e-002 
-9.751986e-002 
-9.902702e-002 
-9.899732e-002 
-9.833835e-002 
-1.000558e-001 
-9.970827e-002 
-9.830015e-002 
-9.796022e-002 
-9.640175e-002 
-9.356153e-002 
-8.802175e-002 
-7.865396e-002 
-7.075301e-002 
-6.321666e-002 
-5.364436e-002 
-4.486661e-002 
-3.613749e-002 
-2.479875e-002 
-1.391236e-002 
-5.914024e-003 
-1.271486e-003 
1.351231e-003 
5.039936e-003 
8.911594e-003 
1.066629e-002 
1.068338e-002 
1.023600e-002 
5.296290e-003 
-4.035030e-003 
-1.303670e-002 
-2.024593e-002 
-2.736779e-002 
-3.525863e-002 
-4.495366e-002 
-5.491737e-002 
-6.416578e-002 
-7.627941e-002 
-8.680116e-002 
-9.245214e-002 
-9.653088e-002 
-9.951356e-002 
-1.036431e-001 
-1.108291e-001 
-1.179327e-001 
-1.241093e-001 
-1.285631e-001 
-1.297753e-001 
-1.305426e-001 
-1.315393e-001 
-1.334746e-001 
-1.382893e-001 
-1.426158e-001 
-1.439556e-001 
-1.428320e-001 
-1.400048e-001 
-1.384574e-001 
-1.372238e-001 
-1.352988e-001 
-1.335027e-001 
-1.323367e-001 
-1.321232e-001 
-1.328264e-001 
-1.327882e-001 
-1.325302e-001 
-1.339499e-001 
-1.340278e-001 
-1.353360e-001 
-1.391295e-001 
-1.462518e-001 
-1.580815e-001 
-1.732242e-001 
-1.943428e-001 
-2.257549e-001 
-2.670816e-001 
-3.152293e-001 
-3.677782e-001 
-4.157974e-001 
-4.588511e-001 
-4.986307e-001 
-5.374451e-001 
-5.804144e-001 
-6.225254e-001 
-6.575955e-001 
-6.838162e-001 
-6.973703e-001 
-6.975724e-001 
-6.904802e-001 
-6.774811e-001 
-6.628989e-001 
-6.411896e-001 
-6.038263e-001 
-5.557753e-001 
-4.998457e-001 
-4.375998e-001 
-3.742087e-001 
-3.136456e-001 
-2.601253e-001 
-2.147635e-001 
-1.699962e-001 
-1.270816e-001 
-8.891398e-002 
-5.312098e-002 
-2.137124e-002 
6.460856e-003 
2.896501e-002 
4.490911e-002 
5.755459e-002 
6.945460e-002 
7.852618e-002 
8.621824e-002 
9.289802e-002 
9.774286e-002 
1.019555e-001 
1.046499e-001 
1.060027e-001 
1.058270e-001 
1.045267e-001 
1.038943e-001 
1.061247e-001 
1.093195e-001 
1.119186e-001 
1.144039e-001 
1.153250e-001 
1.151190e-001 
1.147423e-001 
1.162302e-001 
1.190685e-001 
1.213349e-001 
1.230324e-001 
1.249403e-001 
1.262610e-001 
1.273652e-001 
1.291085e-001 
1.306571e-001 
1.332710e-001 
1.357109e-001 
1.389190e-001 
1.430268e-001 
1.458242e-001 
1.466630e-001 
1.470176e-001 
1.481814e-001 
1.504888e-001 
1.547612e-001 
1.580349e-001 
1.606021e-001 
1.621657e-001 
1.632574e-001 
1.640941e-001 
1.653526e-001 
1.682283e-001 
1.712930e-001 
1.732278e-001 
1.739123e-001 
1.755845e-001 
1.765971e-001 
1.774075e-001 
1.769032e-001 
1.766031e-001 
1.785191e-001 
1.800842e-001 
1.808725e-001 
1.821745e-001 
1.819687e-001 
1.799157e-001 
1.793682e-001 
1.782590e-001 
1.775596e-001 
1.771955e-001 
1.740146e-001 
1.706584e-001 
1.669799e-001 
1.623915e-001 
1.591983e-001 
1.566543e-001 
1.512665e-001 
1.451595e-001 
1.392780e-001 
1.337681e-001 
1.288869e-001 
1.209625e-001 
1.119235e-001 
1.037331e-001 
9.559446e-002 
8.808976e-002 
8.232412e-002 
7.812532e-002 
7.420172e-002 
6.745071e-002 
6.003850e-002 
5.629846e-002 
5.374215e-002 
5.108346e-002 
4.805119e-002 
4.376295e-002 
4.168239e-002 
3.980246e-002 
3.746839e-002 
3.805950e-002 
3.851848e-002 
3.756668e-002 
3.739855e-002 
3.680358e-002 
3.650854e-002 
3.826804e-002 
3.809929e-002 
3.680545e-002 
3.592597e-002 
3.483601e-002 
3.607914e-002 
3.702193e-002 
3.559662e-002 
3.464528e-002 
3.480267e-002 
3.419764e-002 
3.337353e-002 
3.270028e-002 
3.178960e-002 
3.046486e-002 
2.760162e-002 
2.562131e-002 
2.522368e-002 
2.455931e-002 
2.154160e-002 
1.866686e-002 
1.678195e-002 
1.579001e-002 
1.631605e-002 
1.534968e-002 
1.349184e-002 
1.120024e-002 
7.727179e-003 
4.854129e-003 
5.356542e-003 
5.612452e-003 
5.970724e-003 
4.016881e-003 
-1.795131e-004 
-1.884950e-003 
-2.628093e-003 
-3.066973e-003 
-2.664705e-003 
-1.705197e-003 
-2.215674e-003 
-4.183349e-003 
-7.262432e-003 
-8.205771e-003 
-8.279006e-003 
-9.271626e-003 
-8.853996e-003 
-7.341497e-003 
-4.916659e-003 
-4.466141e-003 
-5.861466e-003 
-5.768867e-003 
-5.179574e-003 
-4.330833e-003 
-2.460551e-003 
1.294924e-005 
1.354830e-003 
2.858878e-003 
4.259646e-003 
7.062887e-003 
1.230667e-002 
1.706434e-002 
2.374685e-002 
3.207590e-002 
3.972579e-002 
4.782936e-002 
5.706338e-002 
6.398569e-002 
7.061060e-002 
7.685231e-002 
8.220561e-002 
9.012321e-002 
9.577788e-002 
9.774941e-002 
9.908620e-002 
9.900494e-002 
9.748487e-002 
9.686922e-002 
9.382298e-002 
8.852075e-002 
8.133231e-002 
7.181906e-002 
6.337578e-002 
5.713231e-002 
5.118740e-002 
4.388393e-002 
3.507214e-002 
2.406426e-002 
1.494060e-002 
8.490487e-003 
4.729830e-003 
1.867179e-003 
-2.865249e-003 
-1.011177e-002 
-1.742585e-002 
-2.321508e-002 
-2.747776e-002 
-2.896910e-002 
-3.113557e-002 
-3.344284e-002 
-3.721637e-002 
-4.227653e-002 
-4.557527e-002 
-4.827043e-002 
-5.159866e-002 
-5.355268e-002 
-5.391300e-002 
-5.384608e-002 
-5.338184e-002 
-5.497483e-002 
-5.635192e-002 
-5.694557e-002 
-5.836823e-002 
-5.795200e-002 
-5.599246e-002 
-5.474582e-002 
-5.679468e-002 
-6.224821e-002 
-6.670101e-002 
-6.804252e-002 
-6.779303e-002 
-6.851028e-002 
-7.005910e-002 
-7.471015e-002 
-8.498892e-002 
-1.042458e-001 
-1.300486e-001 
-1.607599e-001 
-1.983435e-001 
-2.401922e-001 
-2.815591e-001 
-3.176664e-001 
-3.507051e-001 
-3.852871e-001 
-4.234276e-001 
-4.590393e-001 
-4.895439e-001 
-5.130136e-001 
-5.269959e-001 
-5.320443e-001 
-5.300064e-001 
-5.237159e-001 
-5.150763e-001 
-4.986455e-001 
-4.701022e-001 
-4.310545e-001 
-3.836383e-001 
-3.326239e-001 
-2.799841e-001 
-2.264192e-001 
-1.754578e-001 
-1.301931e-001 
-8.953188e-002 
-5.287893e-002 
-1.680077e-002 
1.626981e-002 
4.547146e-002 
7.440200e-002 
1.001454e-001 
1.196384e-001 
1.327198e-001 
1.430809e-001 
1.540850e-001 
1.646863e-001 
1.714636e-001 
1.778411e-001 
1.843852e-001 
1.878931e-001 
1.886959e-001 
1.879327e-001 
1.882600e-001 
1.888710e-001 
1.897684e-001 
1.916150e-001 
1.943600e-001 
1.949843e-001 
1.933416e-001 
1.908441e-001 
1.903314e-001 
1.924300e-001 
1.939634e-001 
1.937443e-001 
1.910693e-001 
1.874815e-001 
1.835742e-001 
1.814377e-001 
1.807474e-001 
1.808853e-001 
1.801029e-001 
1.780338e-001 
1.761056e-001 
1.746534e-001 
1.744017e-001 
1.744281e-001 
1.744532e-001 
1.745086e-001 
1.756386e-001 
1.777060e-001 
1.814634e-001 
1.839060e-001 
1.839381e-001 
1.853822e-001 
1.870150e-001 
1.895004e-001 
1.941457e-001 
1.983626e-001 
2.010844e-001 
2.028088e-001 
2.020396e-001 
2.028470e-001 
2.057911e-001 
2.067534e-001 
2.081390e-001 
2.104787e-001 
2.111770e-001 
2.107492e-001 
2.094153e-001 
2.080545e-001 
2.074777e-001 
2.052607e-001 
2.038285e-001 
2.052869e-001 
2.069700e-001 
2.052086e-001 
2.007967e-001 
1.962096e-001 
1.928214e-001 
1.903470e-001 
1.883489e-001 
1.871968e-001 
1.841791e-001 
1.790705e-001 
1.736500e-001 
1.695254e-001 
1.656597e-001 
1.624986e-001 
1.585119e-001 
1.528421e-001 
1.469717e-001 
1.417200e-001 
1.389408e-001 
1.355605e-001 
1.292092e-001 
1.220206e-001 
1.174028e-001 
1.131626e-001 
1.100993e-001 
1.084504e-001 
1.076301e-001 
1.058257e-001 
1.008083e-001 
9.681626e-002 
9.688240e-002 
9.775101e-002 
9.746510e-002 
9.782535e-002 
9.844560e-002 
9.908549e-002 
9.824268e-002 
9.770788e-002 
9.886178e-002 
1.001159e-001 
9.973567e-002 
1.002004e-001 
1.018025e-001 
1.017085e-001 
9.975161e-002 
9.757090e-002 
9.509607e-002 
9.278946e-002 
9.129724e-002 
8.976429e-002 
8.787637e-002 
8.435928e-002 
8.016202e-002 
7.754056e-002 
7.535072e-002 
7.228553e-002 
6.977248e-002 
6.744811e-002 
6.457192e-002 
6.046716e-002 
5.753530e-002 
5.580852e-002 
5.327546e-002 
5.045432e-002 
4.887697e-002 
4.799762e-002 
4.750541e-002 
4.569706e-002 
4.332608e-002 
4.226880e-002 
3.975851e-002 
3.774046e-002 
3.710144e-002 
3.599742e-002 
3.374327e-002 
3.143560e-002 
2.960715e-002 
2.986839e-002 
2.988564e-002 
2.892384e-002 
2.812850e-002 
2.679464e-002 
2.541508e-002 
2.467279e-002 
2.533701e-002 
2.574803e-002 
2.514577e-002 
2.339117e-002 
2.168418e-002 
2.013811e-002 
1.967438e-002 
1.962932e-002 
1.926808e-002 
1.808162e-002 
1.661814e-002 
1.556278e-002 
1.486392e-002 
1.489573e-002 
1.537961e-002 
1.754082e-002 
2.177251e-002 
2.684325e-002 
3.383677e-002 
4.242200e-002 
4.871911e-002 
5.527706e-002 
6.323310e-002 
7.148147e-002 
8.156237e-002 
9.019680e-002 
9.501893e-002 
1.000277e-001 
1.026465e-001 
1.032221e-001 
1.046666e-001 
1.052103e-001 
1.043435e-001 
1.008352e-001 
9.281309e-002 
8.441287e-002 
7.781948e-002 
6.958944e-002 
5.998638e-002 
5.008625e-002 
4.189028e-002 
3.310512e-002 
2.355585e-002 
1.442067e-002 
7.205820e-003 
1.328893e-003 
-5.276156e-003 
-1.223696e-002 
-1.743637e-002 
-2.257019e-002 
-2.956656e-002 
-3.601334e-002 
-4.197776e-002 
-4.592074e-002 
-4.955398e-002 
-5.453364e-002 
-6.002043e-002 
-6.465624e-002 
-6.787285e-002 
-7.022741e-002 
-7.164121e-002 
-7.290634e-002 
-7.466296e-002 
-7.725274e-002 
-7.934478e-002 
-8.006291e-002 
-7.855292e-002 
-7.809801e-002 
-7.989860e-002 
-8.146629e-002 
-8.313886e-002 
-8.401074e-002 
-8.454809e-002 
-8.664720e-002 
-9.048369e-002 
-9.435017e-002 
-9.873937e-002 
-1.018459e-001 
-1.050558e-001 
-1.115797e-001 
-1.232475e-001 
-1.418272e-001 
-1.679502e-001 
-2.001192e-001 
-2.370205e-001 
-2.791237e-001 
-3.237861e-001 
-3.669905e-001 
-4.064609e-001 
-4.434786e-001 
-4.800952e-001 
-5.168284e-001 
-5.502745e-001 
-5.780879e-001 
-5.984475e-001 
-6.094676e-001 
-6.093397e-001 
-6.026515e-001 
-5.946285e-001 
-5.822909e-001 
-5.596547e-001 
-5.246843e-001 
-4.794184e-001 
-4.270932e-001 
-3.727507e-001 
-3.182347e-001 
-2.678621e-001 
-2.216288e-001 
-1.758796e-001 
-1.324401e-001 
-9.409520e-002 
-5.765714e-002 
-2.387784e-002 
5.302451e-003 
3.324891e-002 
5.635877e-002 
7.554311e-002 
9.265856e-002 
1.055504e-001 
1.174618e-001 
1.298793e-001 
1.378908e-001 
1.423242e-001 
1.452519e-001 
1.456746e-001 
1.480754e-001 
1.499888e-001 
1.491516e-001 
1.487622e-001 
1.484968e-001 
1.470177e-001 
1.455495e-001 
1.457619e-001 
1.473484e-001 
1.488660e-001 
1.475725e-001 
1.471582e-001 
1.486232e-001 
1.494025e-001 
1.487057e-001 
1.480551e-001 
1.490206e-001 
1.494447e-001 
1.487916e-001 
1.493605e-001 
1.513422e-001 
1.501278e-001 
1.479999e-001 
1.475797e-001 
1.486339e-001 
1.500578e-001 
1.498261e-001 
1.486909e-001 
1.485049e-001 
1.484244e-001 
1.483883e-001 
1.505564e-001 
1.525399e-001 
1.517975e-001 
1.495757e-001 
1.485485e-001 
1.487522e-001 
1.512819e-001 
1.548313e-001 
1.565608e-001 
1.565904e-001 
1.556762e-001 
1.545094e-001 
1.553790e-001 
1.569088e-001 
1.573289e-001 
1.588048e-001 
1.594008e-001 
1.581640e-001 
1.569548e-001 
1.564803e-001 
1.559139e-001 
1.549555e-001 
1.536971e-001 
1.541674e-001 
1.555041e-001 
1.550504e-001 
1.524396e-001 
1.487836e-001 
1.464683e-001 
1.449862e-001 
1.435611e-001 
1.424744e-001 
1.405698e-001 
1.359130e-001 
1.310386e-001 
1.259970e-001 
1.220015e-001 
1.187239e-001 
1.132832e-001 
1.067806e-001 
1.005265e-001 
9.431744e-002 
8.908616e-002 
8.584845e-002 
8.021428e-002 
7.341261e-002 
6.562345e-002 
5.897987e-002 
5.419375e-002 
5.011545e-002 
4.676268e-002 
4.412058e-002 
4.065694e-002 
3.496976e-002 
2.991312e-002 
2.614684e-002 
2.458384e-002 
2.223085e-002 
2.064114e-002 
2.045469e-002 
2.025696e-002 
1.847158e-002 
1.491279e-002 
1.261748e-002 
1.276157e-002 
1.279881e-002 
1.192794e-002 
1.253423e-002 
1.178153e-002 
9.576592e-003 
7.431402e-003 
5.663722e-003 
6.613558e-003 
6.795403e-003 
4.494892e-003 
2.812667e-003 
7.102744e-004 
-2.210534e-003 
-3.032100e-003 
-4.878585e-003 
-9.369354e-003 
-1.310181e-002 
-1.690308e-002 
-1.905577e-002 
-2.094887e-002 
-2.364109e-002 
-2.667520e-002 
-2.947285e-002 
-3.423706e-002 
-3.885181e-002 
-4.068987e-002 
-4.290118e-002 
-4.731031e-002 
-5.241995e-002 
-5.644912e-002 
-5.904233e-002 
-5.911191e-002 
-6.128992e-002 
-6.443923e-002 
-6.626037e-002 
-6.963356e-002 
-7.303148e-002 
-7.292218e-002 
-7.296276e-002 
-7.321360e-002 
-7.408115e-002 
-7.782152e-002 
-7.987336e-002 
-7.929444e-002 
-8.001667e-002 
-8.149444e-002 
-8.167495e-002 
-8.293521e-002 
-8.378113e-002 
-8.442631e-002 
-8.622987e-002 
-8.706306e-002 
-8.742744e-002 
-9.018467e-002 
-9.114372e-002 
-8.901513e-002 
-8.889849e-002 
-9.053689e-002 
-9.204864e-002 
-9.240107e-002 
-9.120290e-002 
-9.024589e-002 
-8.951820e-002 
-8.756782e-002 
-8.592310e-002 
-8.512186e-002 
-8.169116e-002 
-7.267887e-002 
-6.219467e-002 
-5.309991e-002 
-4.494793e-002 
-3.654967e-002 
-2.671690e-002 
-1.458187e-002 
-2.535342e-003 
9.452297e-003 
2.109661e-002 
2.810564e-002 
3.224127e-002 
3.533697e-002 
3.885844e-002 
4.316998e-002 
4.626336e-002 
4.594092e-002 
4.273321e-002 
3.699765e-002 
2.718563e-002 
1.598008e-002 
6.792095e-003 
-3.323889e-004 
-6.677909e-003 
-1.313729e-002 
-2.213978e-002 
-3.338090e-002 
-4.363594e-002 
-5.314091e-002 
-5.891490e-002 
-6.193993e-002 
-6.654170e-002 
-7.180819e-002 
-7.813708e-002 
-8.588281e-002 
-9.142820e-002 
-9.449690e-002 
-9.741788e-002 
-9.983698e-002 
-1.043187e-001 
-1.089822e-001 
-1.123781e-001 
-1.155102e-001 
-1.179737e-001 
-1.208632e-001 
-1.234051e-001 
-1.243971e-001 
-1.255948e-001 
-1.258143e-001 
-1.244423e-001 
-1.238030e-001 
-1.230805e-001 
-1.234686e-001 
-1.236383e-001 
-1.227193e-001 
-1.238955e-001 
-1.266505e-001 
-1.275376e-001 
-1.280787e-001 
-1.285224e-001 
-1.292198e-001 
-1.308387e-001 
-1.336426e-001 
-1.406399e-001 
-1.501083e-001 
-1.618417e-001 
-1.789919e-001 
-2.048839e-001 
-2.406775e-001 
-2.850970e-001 
-3.331321e-001 
-3.825981e-001 
-4.312923e-001 
-4.768784e-001 
-5.212999e-001 
-5.643655e-001 
-6.069821e-001 
-6.474697e-001 
-6.804742e-001 
-7.026820e-001 
-7.168743e-001 
-7.243890e-001 
-7.226325e-001 
-7.111176e-001 
-6.913808e-001 
-6.654165e-001 
-6.292450e-001 
-5.804764e-001 
-5.229347e-001 
-4.634866e-001 
-4.045223e-001 
-3.458911e-001 
-2.899636e-001 
-2.380739e-001 
-1.899173e-001 
-1.420361e-001 
-9.605356e-002 
-5.518137e-002 
-2.090731e-002 
9.221119e-003 
3.704379e-002 
6.380915e-002 
8.718122e-002 
1.053970e-001 
1.207601e-001 
1.323168e-001 
1.414113e-001 
1.498054e-001 
1.574482e-001 
1.641729e-001 
1.700900e-001 
1.725168e-001 
1.734209e-001 
1.748410e-001 
1.763881e-001 
1.783432e-001 
1.793588e-001 
1.794249e-001 
1.807369e-001 
1.845978e-001 
1.891109e-001 
1.927470e-001 
1.939122e-001 
1.938487e-001 
1.941466e-001 
1.948576e-001 
1.970165e-001 
2.006479e-001 
2.038497e-001 
2.046400e-001 
2.037786e-001 
2.031110e-001 
2.049349e-001 
2.076785e-001 
2.091280e-001 
2.103516e-001 
2.117943e-001 
2.125225e-001 
2.138055e-001 
2.151220e-001 
2.160316e-001 
2.179269e-001 
2.194520e-001 
2.206629e-001 
2.237454e-001 
2.265380e-001 
2.278943e-001 
2.294978e-001 
2.308075e-001 
2.332911e-001 
2.366059e-001 
2.388032e-001 
2.407063e-001 
2.427601e-001 
2.428438e-001 
2.441886e-001 
2.472633e-001 
2.495819e-001 
2.509515e-001 
2.506866e-001 
2.504335e-001 
2.518362e-001 
2.531464e-001 
2.541316e-001 
2.554154e-001 
2.558171e-001 
2.564030e-001 
2.573983e-001 
2.574026e-001 
2.575607e-001 
2.579496e-001 
2.570270e-001 
2.563728e-001 
2.564069e-001 
2.565901e-001 
2.563127e-001 
2.531210e-001 
2.477190e-001 
2.435707e-001 
2.389718e-001 
2.343387e-001 
2.307263e-001 
2.244901e-001 
2.162697e-001 
2.081168e-001 
1.999675e-001 
1.930451e-001 
1.864573e-001 
1.784978e-001 
1.713050e-001 
1.639535e-001 
1.566526e-001 
1.512750e-001 
1.463171e-001 
1.407679e-001 
1.358779e-001 
1.316296e-001 
1.279369e-001 
1.259806e-001 
1.244243e-001 
1.228520e-001 
1.204547e-001 
1.186853e-001 
1.175722e-001 
1.170015e-001 
1.150857e-001 
1.126782e-001 
1.113722e-001 
1.100433e-001 
1.098331e-001 
1.097452e-001 
1.093546e-001 
1.079540e-001 
1.062217e-001 
1.042307e-001 
1.035591e-001 
1.033813e-001 
1.039518e-001 
1.032789e-001 
1.000350e-001 
9.819064e-002 
9.711580e-002 
9.633167e-002 
9.487714e-002 
9.191248e-002 
8.930369e-002 
8.771837e-002 
8.421340e-002 
8.202669e-002 
8.069431e-002 
7.696246e-002 
7.251291e-002 
6.697379e-002 
6.208082e-002 
6.071535e-002 
5.849128e-002 
5.319618e-002 
4.931069e-002 
4.594135e-002 
4.257149e-002 
3.958003e-002 
3.516682e-002 
3.092904e-002 
2.871080e-002 
2.485229e-002 
2.137870e-002 
2.165609e-002 
2.151889e-002 
1.827358e-002 
1.388371e-002 
1.017449e-002 
8.947462e-003 
9.908012e-003 
9.870242e-003 
8.770816e-003 
7.505067e-003 
5.169437e-003 
1.851470e-003 
1.442312e-003 
2.950712e-003 
3.114262e-003 
3.502382e-003 
3.639433e-003 
3.209765e-003 
5.137058e-003 
7.100350e-003 
7.454175e-003 
8.247278e-003 
8.361752e-003 
9.666677e-003 
1.339989e-002 
1.632411e-002 
1.843192e-002 
2.112524e-002 
2.391563e-002 
2.840548e-002 
3.547427e-002 
4.464234e-002 
5.450965e-002 
6.345132e-002 
7.106857e-002 
7.930221e-002 
8.908440e-002 
9.985474e-002 
1.089311e-001 
1.149852e-001 
1.197770e-001 
1.226370e-001 
1.246813e-001 
1.265405e-001 
1.282982e-001 
1.288365e-001 
1.269100e-001 
1.206139e-001 
1.128615e-001 
1.046207e-001 
9.420074e-002 
8.547627e-002 
7.803178e-002 
7.030477e-002 
6.091888e-002 
4.960366e-002 
3.723823e-002 
2.770895e-002 
2.154806e-002 
1.761179e-002 
1.557950e-002 
1.178000e-002 
4.715017e-003 
-4.001626e-003 
-1.173698e-002 
-1.752368e-002 
-2.082170e-002 
-2.382387e-002 
-2.871687e-002 
-3.282970e-002 
-3.640555e-002 
-3.957794e-002 
-4.084045e-002 
-4.176911e-002 
-4.359149e-002 
-4.559258e-002 
-4.666183e-002 
-4.666223e-002 
-4.555989e-002 
-4.537464e-002 
-4.638188e-002 
-4.849002e-002 
-5.088308e-002 
-5.219749e-002 
-5.224668e-002 
-5.276370e-002 
-5.719280e-002 
-6.224968e-002 
-6.650801e-002 
-7.242724e-002 
-8.050755e-002 
-9.198047e-002 
-1.100708e-001 
-1.367343e-001 
-1.727989e-001 
-2.170494e-001 
-2.636137e-001 
-3.131902e-001 
-3.639582e-001 
-4.110957e-001 
-4.547640e-001 
-4.968472e-001 
-5.384068e-001 
-5.799155e-001 
-6.162551e-001 
-6.409134e-001 
-6.551307e-001 
-6.578730e-001 
-6.497625e-001 
-6.347395e-001 
-6.159929e-001 
-5.915082e-001 
-5.554064e-001 
-5.046955e-001 
-4.442023e-001 
-3.813774e-001 
-3.181101e-001 
-2.574335e-001 
-2.031826e-001 
-1.547940e-001 
-1.083760e-001 
-6.368771e-002 
-2.427136e-002 
1.019727e-002 
4.177487e-002 
7.072135e-002 
9.578994e-002 
1.148457e-001 
1.290926e-001 
1.401565e-001 
1.490199e-001 
1.571847e-001 
1.654383e-001 
1.725657e-001 
1.776471e-001 
1.807092e-001 
1.815695e-001 
1.826149e-001 
1.840798e-001 
1.851405e-001 
1.843862e-001 
1.827447e-001 
1.826485e-001 
1.842792e-001 
1.863963e-001 
1.873484e-001 
1.880789e-001 
1.877193e-001 
1.866548e-001 
1.867692e-001 
1.890428e-001 
1.925392e-001 
1.950671e-001 
1.953879e-001 
1.947562e-001 
1.957296e-001 
1.968014e-001 
1.989969e-001 
2.002897e-001 
2.009065e-001 
2.027777e-001 
2.039640e-001 
2.048554e-001 
2.063322e-001 
2.066902e-001 
2.070282e-001 
2.091173e-001 
2.108790e-001 
2.151080e-001 
2.171538e-001 
2.164021e-001 
2.169192e-001 
2.171118e-001 
2.170668e-001 
2.195511e-001 
2.230870e-001 
2.243893e-001 
2.239755e-001 
2.223896e-001 
2.240974e-001 
2.266691e-001 
2.265292e-001 
2.247635e-001 
2.242360e-001 
2.244056e-001 
2.226652e-001 
2.223179e-001 
2.235119e-001 
2.235230e-001 
2.215774e-001 
2.192798e-001 
2.186024e-001 
2.217249e-001 
2.234702e-001 
2.214749e-001 
2.193506e-001 
2.159966e-001 
2.116539e-001 
2.085716e-001 
2.052581e-001 
2.021143e-001 
1.990749e-001 
1.938558e-001 
1.888570e-001 
1.846069e-001 
1.785967e-001 
1.703413e-001 
1.618119e-001 
1.535353e-001 
1.461830e-001 
1.399008e-001 
1.327595e-001 
1.243172e-001 
1.160490e-001 
1.078978e-001 
1.010218e-001 
9.698073e-002 
9.394181e-002 
9.034138e-002 
8.621940e-002 
8.094910e-002 
7.749328e-002 
7.543419e-002 
7.303019e-002 
7.034923e-002 
6.848217e-002 
6.786096e-002 
6.860095e-002 
6.992029e-002 
7.085408e-002 
7.112924e-002 
6.959055e-002 
6.762389e-002 
6.615340e-002 
6.647431e-002 
6.842692e-002 
6.929691e-002 
6.723057e-002 
6.508849e-002 
6.382534e-002 
6.351559e-002 
6.344609e-002 
6.305819e-002 
6.264649e-002 
6.211899e-002 
6.040426e-002 
5.867366e-002 
5.695171e-002 
5.400396e-002 
5.080127e-002 
4.807390e-002 
4.644924e-002 
4.517809e-002 
4.375883e-002 
4.098712e-002 
3.636617e-002 
3.139621e-002 
2.812422e-002 
2.619896e-002 
2.387230e-002 
1.955524e-002 
1.486265e-002 
1.146619e-002 
7.586665e-003 
4.992822e-003 
4.142571e-003 
1.849090e-003 
-1.286839e-003 
-5.300155e-003 
-8.712857e-003 
-8.815078e-003 
-9.083771e-003 
-1.152434e-002 
-1.315878e-002 
-1.535299e-002 
-1.773952e-002 
-1.767885e-002 
-1.825145e-002 
-1.876399e-002 
-1.906727e-002 
-2.053019e-002 
-2.101273e-002 
-2.108452e-002 
-2.215277e-002 
-2.281612e-002 
-2.422343e-002 
-2.612132e-002 
-2.552488e-002 
-2.286792e-002 
-1.860341e-002 
-1.649947e-002 
-1.548251e-002 
-1.045517e-002 
-3.291474e-003 
4.493961e-003 
1.353763e-002 
2.261039e-002 
3.041998e-002 
3.622080e-002 
4.108214e-002 
5.013623e-002 
6.024899e-002 
6.571437e-002 
6.891683e-002 
7.113194e-002 
7.231129e-002 
7.305338e-002 
7.310103e-002 
7.209732e-002 
6.954930e-002 
6.134056e-002 
5.072927e-002 
4.203218e-002 
3.423938e-002 
2.707172e-002 
1.955766e-002 
1.146800e-002 
3.921083e-003 
-4.486153e-003 
-1.445804e-002 
-2.283083e-002 
-2.925563e-002 
-3.467923e-002 
-4.082947e-002 
-4.671231e-002 
-5.288768e-002 
-6.104164e-002 
-6.962825e-002 
-7.540221e-002 
-7.851298e-002 
-7.975872e-002 
-8.263359e-002 
-8.720012e-002 
-9.099689e-002 
-9.586515e-002 
-1.003870e-001 
-1.013515e-001 
-9.955927e-002 
-9.867559e-002 
-9.808366e-002 
-9.809713e-002 
-9.803363e-002 
-9.676456e-002 
-9.535550e-002 
-9.537737e-002 
-9.382777e-002 
-9.184417e-002 
-9.202026e-002 
-9.342035e-002 
-9.721201e-002 
-1.022514e-001 
-1.044461e-001 
-1.067586e-001 
-1.098559e-001 
-1.115061e-001 
-1.175688e-001 
-1.318767e-001 
-1.528865e-001 
-1.785773e-001 
-2.078239e-001 
-2.411827e-001 
-2.820251e-001 
-3.254979e-001 
-3.655599e-001 
-4.020038e-001 
-4.361356e-001 
-4.687024e-001 
-5.009899e-001 
-5.308526e-001 
-5.569246e-001 
-5.773166e-001 
-5.855266e-001 
-5.806765e-001 
-5.708485e-001 
-5.606449e-001 
-5.473306e-001 
-5.243964e-001 
-4.884260e-001 
-4.448497e-001 
-3.959899e-001 
-3.430047e-001 
-2.916859e-001 
-2.459297e-001 
-2.045107e-001 
-1.651099e-001 
-1.266292e-001 
-9.191753e-002 
-6.192901e-002 
-3.421543e-002 
-9.068991e-003 
1.377745e-002 
3.320976e-002 
4.672501e-002 
5.655592e-002 
6.495195e-002 
7.352719e-002 
8.215277e-002 
8.789512e-002 
9.085215e-002 
9.344867e-002 
9.433359e-002 
9.422766e-002 
9.493827e-002 
9.489480e-002 
9.392885e-002 
9.263123e-002 
9.196902e-002 
9.244339e-002 
9.333359e-002 
9.387929e-002 
9.347069e-002 
9.143701e-002 
8.945987e-002 
8.865417e-002 
9.019434e-002 
9.032805e-002 
8.731826e-002 
8.468696e-002 
8.297260e-002 
8.080532e-002 
8.003515e-002 
8.024096e-002 
7.984804e-002 
7.815628e-002 
7.478655e-002 
7.441695e-002 
7.626387e-002 
7.682021e-002 
7.704668e-002 
7.769586e-002 
7.886982e-002 
8.007208e-002 
8.012235e-002 
8.221036e-002 
8.466584e-002 
8.527094e-002 
8.709432e-002 
9.061007e-002 
9.412195e-002 
9.751239e-002 
9.744642e-002 
9.720538e-002 
9.906035e-002 
1.002305e-001 
1.025603e-001 
1.050566e-001 
1.052199e-001 
1.042586e-001 
1.035232e-001 
1.024754e-001 
1.037806e-001 
1.042335e-001 
1.029378e-001 
1.020761e-001 
1.003991e-001 
9.720363e-002 
9.496694e-002 
9.200717e-002 
8.585626e-002 
7.997306e-002 
7.559998e-002 
7.298457e-002 
7.155028e-002 
6.709816e-002 
5.983324e-002 
5.311188e-002 
4.516971e-002 
3.841165e-002 
3.687540e-002 
3.549441e-002 
3.074288e-002 
2.499430e-002 
1.810668e-002 
1.293919e-002 
1.049036e-002 
9.538604e-003 
9.392956e-003 
8.466490e-003 
5.498322e-003 
2.983199e-003 
2.238458e-003 
8.832256e-004 
-2.609910e-004 
-4.993370e-004 
-5.650697e-004 
-1.427930e-003 
-8.958528e-004 
-5.886304e-004 
-1.935463e-003 
-3.880798e-003 
-4.926830e-003 
-4.473368e-003 
-4.358134e-003 
-4.478986e-003 
-5.067863e-003 
-6.858035e-003 
-1.002644e-002 
-1.238508e-002 
-1.253019e-002 
-1.216071e-002 
-1.407128e-002 
-1.680655e-002 
-1.721160e-002 
-1.869113e-002 
-2.096695e-002 
-2.349339e-002 
-2.724510e-002 
-2.978159e-002 
-3.258201e-002 
-3.574339e-002 
-3.648058e-002 
-3.776431e-002 
-4.344721e-002 
-4.829751e-002 
-5.367851e-002 
-5.660164e-002 
-5.682207e-002 
-5.995871e-002 
-6.254640e-002 
-6.507821e-002 
-7.032997e-002 
-7.486865e-002 
-7.554318e-002 
-7.667544e-002 
-7.751506e-002 
-8.012294e-002 
-8.158662e-002 
-8.004876e-002 
-8.069410e-002 
-8.271457e-002 
-8.367072e-002 
-8.322354e-002 
-8.406997e-002 
-8.520483e-002 
-8.419342e-002 
-8.154701e-002 
-8.258606e-002 
-8.528316e-002 
-8.659789e-002 
-8.618335e-002 
-8.377937e-002 
-8.407583e-002 
-8.530678e-002 
-8.462224e-002 
-8.544137e-002 
-8.689870e-002 
-8.460092e-002 
-8.144814e-002 
-7.736184e-002 
-7.175902e-002 
-6.630442e-002 
-5.807519e-002 
-4.854327e-002 
-4.108988e-002 
-3.316054e-002 
-2.426167e-002 
-1.667029e-002 
-8.569579e-003 
-8.230900e-004 
4.243868e-003 
6.380554e-003 
6.983115e-003 
7.631043e-003 
9.161167e-003 
9.671870e-003 
6.538672e-003 
-1.791129e-005 
-8.906101e-003 
-1.867778e-002 
-2.683806e-002 
-3.245953e-002 
-3.895005e-002 
-4.808477e-002 
-5.973283e-002 
-7.156903e-002 
-8.083732e-002 
-8.731592e-002 
-9.200678e-002 
-9.654674e-002 
-1.023342e-001 
-1.095130e-001 
-1.171641e-001 
-1.230828e-001 
-1.269493e-001 
-1.310110e-001 
-1.359853e-001 
-1.399816e-001 
-1.431615e-001 
-1.460533e-001 
-1.491665e-001 
-1.526866e-001 
-1.547278e-001 
-1.561527e-001 
-1.569349e-001 
-1.551305e-001 
-1.519319e-001 
-1.511652e-001 
-1.518282e-001 
-1.525306e-001 
-1.535629e-001 
-1.550389e-001 
-1.578488e-001 
-1.599704e-001 
-1.618833e-001 
-1.656860e-001 
-1.705427e-001 
-1.765699e-001 
-1.878165e-001 
-2.059893e-001 
-2.305168e-001 
-2.604173e-001 
-2.960518e-001 
-3.391706e-001 
-3.863884e-001 
-4.343547e-001 
-4.812539e-001 
-5.244135e-001 
-5.637587e-001 
-6.010258e-001 
-6.358461e-001 
-6.667838e-001 
-6.908097e-001 
-7.047229e-001 
-7.061900e-001 
-6.970232e-001 
-6.835387e-001 
-6.683829e-001 
-6.476257e-001 
-6.145691e-001 
-5.682294e-001 
-5.140464e-001 
-4.545451e-001 
-3.933467e-001 
-3.371676e-001 
-2.865876e-001 
-2.386719e-001 
-1.921420e-001 
-1.477817e-001 
-1.095873e-001 
-7.848255e-002 
-5.157138e-002 
-2.871537e-002 
-8.178426e-003 
1.000371e-002 
2.432761e-002 
3.592163e-002 
4.572751e-002 
5.390361e-002 
6.043145e-002 
6.469263e-002 
6.552648e-002 
6.590887e-002 
6.708701e-002 
6.786793e-002 
6.879383e-002 
6.896537e-002 
6.778563e-002 
6.702600e-002 
6.617018e-002 
6.631927e-002 
7.163336e-002 
7.656353e-002 
7.685403e-002 
7.654342e-002 
7.528021e-002 
7.555453e-002 
7.760723e-002 
7.857331e-002 
8.059121e-002 
8.358118e-002 
8.404696e-002 
8.514717e-002 
8.779855e-002 
8.888529e-002 
8.998849e-002 
8.967730e-002 
9.149924e-002 
9.597252e-002 
9.993904e-002 
1.023457e-001 
1.043085e-001 
1.050071e-001 
1.057988e-001 
1.071981e-001 
1.110493e-001 
1.171505e-001 
1.200850e-001 
1.207345e-001 
1.213732e-001 
1.247267e-001 
1.294506e-001 
1.323287e-001 
1.339911e-001 
1.382414e-001 
1.409626e-001 
1.431034e-001 
1.461317e-001 
1.500962e-001 
1.533393e-001 
1.522639e-001 
1.506736e-001 
1.530815e-001 
1.570339e-001 
1.581389e-001 
1.579493e-001 
1.563205e-001 
1.536111e-001 
1.495585e-001 
1.470154e-001 
1.467286e-001 
1.451619e-001 
1.408605e-001 
1.353930e-001 
1.306610e-001 
1.257663e-001 
1.204665e-001 
1.156996e-001 
1.114016e-001 
1.063593e-001 
9.962857e-002 
9.286663e-002 
8.734185e-002 
8.116758e-002 
7.409372e-002 
6.781577e-002 
6.287828e-002 
5.830918e-002 
5.245594e-002 
4.514229e-002 
3.961114e-002 
3.505682e-002 
3.010169e-002 
2.608844e-002 
2.292573e-002 
2.009464e-002 
1.665312e-002 
1.440347e-002 
1.401524e-002 
1.400656e-002 
1.274466e-002 
1.082523e-002 
8.733842e-003 
8.280248e-003 
9.288073e-003 
1.082752e-002 
1.234485e-002 
1.047540e-002 
7.327509e-003 
5.602143e-003 
5.579170e-003 
6.780850e-003 
7.764651e-003 
5.578247e-003 
1.510306e-003 
-2.856348e-003 
-6.859323e-003 
-8.884079e-003 
-1.016051e-002 
-1.199639e-002 
-1.522887e-002 
-1.991418e-002 
-2.425331e-002 
-2.705788e-002 
-2.935042e-002 
-3.288287e-002 
-3.656858e-002 
-3.888040e-002 
-4.105807e-002 
-4.316968e-002 
-4.518122e-002 
-4.859087e-002 
-5.154797e-002 
-5.347147e-002 
-5.526691e-002 
-5.448973e-002 
-5.356531e-002 
-5.599140e-002 
-5.970610e-002 
-6.337351e-002 
-6.498826e-002 
-6.327345e-002 
-6.278650e-002 
-6.333831e-002 
-6.349079e-002 
-6.568990e-002 
-6.874609e-002 
-6.884415e-002 
-6.745425e-002 
-6.563887e-002 
-6.466828e-002 
-6.531746e-002 
-6.500000e-002 
-6.430752e-002 
-6.447580e-002 
-6.462565e-002 
-6.355264e-002 
-6.066884e-002 
-5.513119e-002 
-4.878900e-002 
-4.118340e-002 
-3.185844e-002 
-2.373101e-002 
-1.676253e-002 
-7.769244e-003 
4.163667e-003 
1.728938e-002 
2.729186e-002 
3.500254e-002 
4.357914e-002 
4.924968e-002 
5.118168e-002 
5.422079e-002 
5.792749e-002 
5.949246e-002 
5.791994e-002 
5.265932e-002 
4.740330e-002 
4.049162e-002 
2.939759e-002 
1.883056e-002 
1.029890e-002 
7.551835e-004 
-9.616173e-003 
-2.148645e-002 
-3.301886e-002 
-4.167741e-002 
-4.915356e-002 
-5.565034e-002 
-6.065463e-002 
-6.595131e-002 
-7.215033e-002 
-7.835342e-002 
-8.333402e-002 
-8.552847e-002 
-8.691694e-002 
-8.926171e-002 
-9.334876e-002 
-9.743115e-002 
-1.005230e-001 
-1.025290e-001 
-1.031691e-001 
-1.031516e-001 
-1.039488e-001 
-1.056644e-001 
-1.070094e-001 
-1.078218e-001 
-1.072817e-001 
-1.068802e-001 
-1.082615e-001 
-1.119783e-001 
-1.156531e-001 
-1.186969e-001 
-1.208987e-001 
-1.231929e-001 
-1.284000e-001 
-1.363846e-001 
-1.473377e-001 
-1.653081e-001 
-1.891383e-001 
-2.191124e-001 
-2.593533e-001 
-3.064698e-001 
-3.576160e-001 
-4.092972e-001 
-4.565681e-001 
-5.012363e-001 
-5.468038e-001 
-5.896975e-001 
-6.315636e-001 
-6.683874e-001 
-6.949220e-001 
-7.112758e-001 
-7.162741e-001 
-7.116519e-001 
-7.005296e-001 
-6.830260e-001 
-6.567873e-001 
-6.212352e-001 
-5.736546e-001 
-5.169029e-001 
-4.542873e-001 
-3.902441e-001 
-3.277367e-001 
-2.678353e-001 
-2.132568e-001 
-1.634560e-001 
-1.175744e-001 
-7.538781e-002 
-3.749366e-002 
-4.252328e-003 
2.281517e-002 
4.774822e-002 
7.012639e-002 
8.665336e-002 
9.973716e-002 
1.099424e-001 
1.177677e-001 
1.259688e-001 
1.331201e-001 
1.397372e-001 
1.477336e-001 
1.527323e-001 
1.533080e-001 
1.533977e-001 
1.540574e-001 
1.560978e-001 
1.603977e-001 
1.639053e-001 
1.661632e-001 
1.673912e-001 
1.683101e-001 
1.694574e-001 
1.714692e-001 
1.725714e-001 
1.721360e-001 
1.719275e-001 
1.715016e-001 
1.708360e-001 
1.711294e-001 
1.719412e-001 
1.712451e-001 
1.701997e-001 
1.703231e-001 
1.707112e-001 
1.714275e-001 
1.727656e-001 
1.739252e-001 
1.751434e-001 
1.763017e-001 
1.774264e-001 
1.813666e-001 
1.845942e-001 
1.839739e-001 
1.841897e-001 
1.870149e-001 
1.905630e-001 
1.943984e-001 
1.963061e-001 
1.973427e-001 
1.976616e-001 
1.968054e-001 
1.978290e-001 
2.019991e-001 
2.075705e-001 
2.106071e-001 
2.103117e-001 
2.082696e-001 
2.080546e-001 
2.096887e-001 
2.126341e-001 
2.141271e-001 
2.154872e-001 
2.164364e-001 
2.148175e-001 
2.129525e-001 
2.127183e-001 
2.129587e-001 
2.116827e-001 
2.100035e-001 
2.078118e-001 
2.056010e-001 
2.016115e-001 
1.949651e-001 
1.882163e-001 
1.823734e-001 
1.758349e-001 
1.699199e-001 
1.654272e-001 
1.593471e-001 
1.517102e-001 
1.433119e-001 
1.346852e-001 
1.278446e-001 
1.215041e-001 
1.148068e-001 
1.096027e-001 
1.058674e-001 
1.010520e-001 
9.672085e-002 
9.310333e-002 
8.838968e-002 
8.507731e-002 
8.386335e-002 
8.411281e-002 
8.585045e-002 
8.593366e-002 
8.294006e-002 
8.082391e-002 
7.837181e-002 
7.674309e-002 
7.883913e-002 
8.148099e-002 
8.260680e-002 
8.230714e-002 
8.072238e-002 
7.917783e-002 
7.930762e-002 
7.844216e-002 
7.725184e-002 
7.689236e-002 
7.535454e-002 
7.321288e-002 
7.187090e-002 
6.955160e-002 
6.666618e-002 
6.451604e-002 
6.107740e-002 
5.987920e-002 
5.989506e-002 
5.777005e-002 
5.493078e-002 
5.119847e-002 
4.663155e-002 
4.261276e-002 
3.904648e-002 
3.599678e-002 
3.371146e-002 
2.977353e-002 
2.610067e-002 
2.289934e-002 
1.976375e-002 
1.653640e-002 
1.244255e-002 
1.074797e-002 
1.055114e-002 
8.900375e-003 
7.915474e-003 
6.137742e-003 
1.696779e-003 
-7.371416e-004 
-1.600089e-003 
-1.318822e-003 
1.419742e-003 
2.238080e-003 
1.265902e-004 
-1.514292e-003 
-4.535399e-003 
-4.821101e-003 
-1.298542e-003 
1.160308e-004 
-2.094371e-004 
-2.133276e-004 
-1.079593e-003 
-1.674893e-003 
-8.953464e-004 
6.602526e-004 
3.488622e-003 
4.908635e-003 
6.229279e-003 
9.585514e-003 
1.448831e-002 
2.059108e-002 
2.743770e-002 
3.562730e-002 
4.483943e-002 
5.420192e-002 
6.442891e-002 
7.397744e-002 
7.974960e-002 
8.461719e-002 
9.079859e-002 
9.549866e-002 
1.002345e-001 
1.038341e-001 
1.057842e-001 
1.056565e-001 
1.016326e-001 
9.578538e-002 
9.083873e-002 
8.458503e-002 
7.609976e-002 
6.776789e-002 
5.872177e-002 
4.828766e-002 
3.625795e-002 
2.435980e-002 
1.234089e-002 
3.884225e-003 
-9.428272e-004 
-5.038761e-003 
-9.405089e-003 
-1.615722e-002 
-2.587020e-002 
-3.359316e-002 
-3.916460e-002 
-4.207351e-002 
-4.005896e-002 
-4.033791e-002 
-4.418450e-002 
-4.937191e-002 
-5.489852e-002 
-5.808657e-002 
-5.765349e-002 
-5.776562e-002 
-5.712597e-002 
-5.752578e-002 
-6.080433e-002 
-6.369802e-002 
-6.545200e-002 
-6.635491e-002 
-6.763496e-002 
-6.957165e-002 
-7.191561e-002 
-7.405588e-002 
-7.733438e-002 
-8.157743e-002 
-8.701284e-002 
-9.350306e-002 
-1.030278e-001 
-1.191283e-001 
-1.418369e-001 
-1.744992e-001 
-2.180132e-001 
-2.656902e-001 
-3.115004e-001 
-3.512616e-001 
-3.850836e-001 
-4.200341e-001 
-4.581211e-001 
-4.938467e-001 
-5.276832e-001 
-5.545633e-001 
-5.686880e-001 
-5.700564e-001 
-5.612891e-001 
-5.501925e-001 
-5.383246e-001 
-5.183190e-001 
-4.859779e-001 
-4.448605e-001 
-3.939027e-001 
-3.350544e-001 
-2.719446e-001 
-2.112095e-001 
-1.582074e-001 
-1.112162e-001 
-6.852821e-002 
-2.995409e-002 
4.081213e-003 
3.708360e-002 
6.841030e-002 
9.653773e-002 
1.178255e-001 
1.318052e-001 
1.428406e-001 
1.525091e-001 
1.610127e-001 
1.685681e-001 
1.757477e-001 
1.799914e-001 
1.817849e-001 
1.816032e-001 
1.813228e-001 
1.818670e-001 
1.810679e-001 
1.804165e-001 
1.818242e-001 
1.840307e-001 
1.851620e-001 
1.865643e-001 
1.866696e-001 
1.868069e-001 
1.875084e-001 
1.885355e-001 
1.908727e-001 
1.932797e-001 
1.931388e-001 
1.922608e-001 
1.923692e-001 
1.917142e-001 
1.919874e-001 
1.920533e-001 
1.918749e-001 
1.922325e-001 
1.929041e-001 
1.927122e-001 
1.936459e-001 
1.932037e-001 
1.903941e-001 
1.885608e-001 
1.891713e-001 
1.922178e-001 
1.956392e-001 
1.977145e-001 
1.977846e-001 
1.974977e-001 
1.967693e-001 
1.985550e-001 
2.032599e-001 
2.076449e-001 
2.095378e-001 
2.100419e-001 
2.101330e-001 
2.107709e-001 
2.125312e-001 
2.144276e-001 
2.163055e-001 
2.173462e-001 
2.174907e-001 
2.187707e-001 
2.203121e-001 
2.204619e-001 
2.194445e-001 
2.178454e-001 
2.164324e-001 
2.165242e-001 
2.179490e-001 
2.177752e-001 
2.152961e-001 
2.119164e-001 
2.089105e-001 
2.056785e-001 
2.040342e-001 
2.029787e-001 
2.005966e-001 
1.965485e-001 
1.907674e-001 
1.862091e-001 
1.836888e-001 
1.795434e-001 
1.733263e-001 
1.689165e-001 
1.639171e-001 
1.577988e-001 
1.526370e-001 
1.478045e-001 
1.427953e-001 
1.374997e-001 
1.321846e-001 
1.272432e-001 
1.241833e-001 
1.198842e-001 
1.151181e-001 
1.118139e-001 
1.091327e-001 
1.066530e-001 
1.062046e-001 
1.043697e-001 
9.973504e-002 
9.677611e-002 
9.545492e-002 
9.559610e-002 
9.677309e-002 
9.736887e-002 
9.586612e-002 
9.359846e-002 
8.996533e-002 
8.682837e-002 
8.640126e-002 
8.621359e-002 
8.394791e-002 
8.035475e-002 
7.711837e-002 
7.275667e-002 
6.947458e-002 
6.673324e-002 
6.222102e-002 
5.960827e-002 
5.813182e-002 
5.455937e-002 
5.069490e-002 
4.691554e-002 
4.114560e-002 
3.699888e-002 
3.327613e-002 
3.017543e-002 
2.962755e-002 
2.789093e-002 
2.310250e-002 
1.869167e-002 
1.674585e-002 
1.541858e-002 
1.386383e-002 
1.091655e-002 
7.849103e-003 
5.302027e-003 
2.725841e-003 
6.782466e-004 
1.154357e-003 
2.546939e-003 
-5.760202e-004 
-4.902417e-003 
-6.891521e-003 
-6.732824e-003 
-5.084496e-003 
-4.824211e-003 
-7.374953e-003 
-9.466208e-003 
-1.145334e-002 
-1.486779e-002 
-1.512942e-002 
-1.494404e-002 
-1.629730e-002 
-1.773412e-002 
-2.054026e-002 
-2.303173e-002 
-2.216824e-002 
-2.186952e-002 
-2.310940e-002 
-2.328003e-002 
-2.438862e-002 
-2.502867e-002 
-2.331101e-002 
-2.187216e-002 
-2.162594e-002 
-1.886978e-002 
-1.359743e-002 
-6.684804e-003 
2.890615e-003 
1.297896e-002 
2.157910e-002 
3.092262e-002 
3.855564e-002 
4.643763e-002 
5.878319e-002 
7.044090e-002 
7.833717e-002 
8.529776e-002 
8.874778e-002 
9.059735e-002 
9.530796e-002 
9.761321e-002 
9.857373e-002 
9.821871e-002 
9.363730e-002 
8.719011e-002 
8.001171e-002 
7.089834e-002 
6.275602e-002 
5.480907e-002 
4.511901e-002 
3.504678e-002 
2.460781e-002 
1.462567e-002 
5.293737e-003 
-3.566597e-003 
-1.097066e-002 
-1.786598e-002 
-2.422882e-002 
-3.202892e-002 
-4.062145e-002 
-4.749340e-002 
-5.209429e-002 
-5.568958e-002 
-5.947851e-002 
-6.374895e-002 
-6.994143e-002 
-7.630449e-002 
-8.130571e-002 
-8.308871e-002 
-8.351890e-002 
-8.307467e-002 
-8.451650e-002 
-8.757362e-002 
-8.999196e-002 
-9.177138e-002 
-9.116629e-002 
-9.030966e-002 
-9.199816e-002 
-9.487952e-002 
-9.726407e-002 
-1.009356e-001 
-1.039045e-001 
-1.061613e-001 
-1.082997e-001 
-1.100768e-001 
-1.130910e-001 
-1.182615e-001 
-1.255420e-001 
-1.375266e-001 
-1.564046e-001 
-1.814808e-001 
-2.124835e-001 
-2.489638e-001 
-2.889372e-001 
-3.302908e-001 
-3.696810e-001 
-4.039041e-001 
-4.361642e-001 
-4.687389e-001 
-4.999444e-001 
-5.285092e-001 
-5.533487e-001 
-5.695062e-001 
-5.737344e-001 
-5.665943e-001 
-5.545409e-001 
-5.429105e-001 
-5.279927e-001 
-5.035950e-001 
-4.684170e-001 
-4.230157e-001 
-3.702768e-001 
-3.167193e-001 
-2.679437e-001 
-2.268973e-001 
-1.886005e-001 
-1.497052e-001 
-1.117053e-001 
-7.613078e-002 
-4.612569e-002 
-2.199377e-002 
-2.804061e-004 
1.940653e-002 
3.759164e-002 
5.330279e-002 
6.341672e-002 
7.161186e-002 
7.939679e-002 
8.513063e-002 
9.183874e-002 
9.792264e-002 
1.011458e-001 
1.013731e-001 
9.859619e-002 
9.724900e-002 
9.870056e-002 
9.874716e-002 
9.849242e-002 
9.796350e-002 
9.559593e-002 
9.375850e-002 
9.307065e-002 
9.393019e-002 
9.547889e-002 
9.475716e-002 
9.464816e-002 
9.633253e-002 
9.667730e-002 
9.537356e-002 
9.404801e-002 
9.428401e-002 
9.499334e-002 
9.608186e-002 
9.800779e-002 
1.008358e-001 
1.020474e-001 
1.009330e-001 
1.002286e-001 
1.027494e-001 
1.071577e-001 
1.103259e-001 
1.126081e-001 
1.137577e-001 
1.157043e-001 
1.189551e-001 
1.226381e-001 
1.263463e-001 
1.286907e-001 
1.307186e-001 
1.332136e-001 
1.359312e-001 
1.388303e-001 
1.431826e-001 
1.453875e-001 
1.445694e-001 
1.426421e-001 
1.423030e-001 
1.451786e-001 
1.474272e-001 
1.464251e-001 
1.448337e-001 
1.441979e-001 
1.417279e-001 
1.395816e-001 
1.386893e-001 
1.384798e-001 
1.384706e-001 
1.370066e-001 
1.358872e-001 
1.368227e-001 
1.370222e-001 
1.346040e-001 
1.314547e-001 
1.281274e-001 
1.261563e-001 
1.249082e-001 
1.230525e-001 
1.208566e-001 
1.167093e-001 
1.121878e-001 
1.075362e-001 
1.030319e-001 
9.915255e-002 
9.518442e-002 
8.977383e-002 
8.440860e-002 
7.903604e-002 
7.302968e-002 
6.740105e-002 
6.016613e-002 
5.432939e-002 
4.975790e-002 
4.571020e-002 
4.308081e-002 
4.144889e-002 
3.742075e-002 
3.202028e-002 
2.720661e-002 
2.404878e-002 
2.372939e-002 
2.180725e-002 
1.930260e-002 
1.805816e-002 
1.696059e-002 
1.448890e-002 
1.349606e-002 
1.334803e-002 
1.322169e-002 
1.217338e-002 
1.025780e-002 
9.535443e-003 
1.105854e-002 
1.156634e-002 
8.700427e-003 
6.020117e-003 
3.852709e-003 
2.603620e-003 
2.088907e-003 
9.754197e-004 
-1.503672e-003 
-2.855954e-003 
-5.925864e-003 
-8.901372e-003 
-1.015332e-002 
-1.175263e-002 
-1.452394e-002 
-1.886933e-002 
-2.377907e-002 
-2.704566e-002 
-2.853308e-002 
-3.069326e-002 
-3.293580e-002 
-3.738090e-002 
-4.154267e-002 
-4.555870e-002 
-4.871405e-002 
-5.018070e-002 
-5.189015e-002 
-5.424810e-002 
-5.592085e-002 
-5.789731e-002 
-6.059141e-002 
-6.270566e-002 
-6.549931e-002 
-6.663780e-002 
-6.734541e-002 
-6.767327e-002 
-6.616882e-002 
-6.537568e-002 
-6.720302e-002 
-7.031578e-002 
-7.269777e-002 
-7.246959e-002 
-7.108445e-002 
-7.058614e-002 
-7.011934e-002 
-7.105593e-002 
-7.352484e-002 
-7.510115e-002 
-7.511787e-002 
-7.493814e-002 
-7.536384e-002 
-7.581650e-002 
-7.565143e-002 
-7.440649e-002 
-7.333072e-002 
-7.327075e-002 
-7.366460e-002 
-7.511438e-002 
-7.660364e-002 
-7.446013e-002 
-7.040379e-002 
-6.545466e-002 
-5.879402e-002 
-5.312065e-002 
-4.616053e-002 
-3.765532e-002 
-2.810754e-002 
-1.713134e-002 
-6.703637e-003 
2.654170e-003 
1.378040e-002 
2.372935e-002 
3.116188e-002 
3.765350e-002 
4.080887e-002 
4.334249e-002 
4.503036e-002 
4.653239e-002 
4.881569e-002 
4.806423e-002 
4.067433e-002 
2.951226e-002 
1.793886e-002 
6.897297e-003 
-2.157838e-003 
-1.086620e-002 
-2.005057e-002 
-3.001496e-002 
-4.199920e-002 
-5.459150e-002 
-6.400088e-002 
-7.031185e-002 
-7.731640e-002 
-8.468932e-002 
-9.133849e-002 
-9.661297e-002 
-1.018709e-001 
-1.083960e-001 
-1.143912e-001 
-1.187084e-001 
-1.234858e-001 
-1.286244e-001 
-1.320416e-001 
-1.336632e-001 
-1.367127e-001 
-1.421941e-001 
-1.455908e-001 
-1.466346e-001 
-1.470346e-001 
-1.482502e-001 
-1.495581e-001 
-1.491927e-001 
-1.475042e-001 
-1.479420e-001 
-1.471959e-001 
-1.448864e-001 
-1.437712e-001 
-1.433656e-001 
-1.442708e-001 
-1.438564e-001 
-1.416766e-001 
-1.429886e-001 
-1.478626e-001 
-1.524387e-001 
-1.574265e-001 
-1.624956e-001 
-1.705738e-001 
-1.843255e-001 
-2.027346e-001 
-2.281043e-001 
-2.625167e-001 
-3.033000e-001 
-3.487943e-001 
-3.978612e-001 
-4.486749e-001 
-4.986455e-001 
-5.434751e-001 
-5.825767e-001 
-6.209484e-001 
-6.612581e-001 
-6.984428e-001 
-7.273523e-001 
-7.457132e-001 
-7.526005e-001 
-7.479813e-001 
-7.353415e-001 
-7.200225e-001 
-7.023078e-001 
-6.744443e-001 
-6.312957e-001 
-5.768581e-001 
-5.176442e-001 
-4.587692e-001 
-4.031828e-001 
-3.512805e-001 
-3.033596e-001 
-2.558161e-001 
-2.078858e-001 
-1.646376e-001 
-1.265633e-001 
-9.174541e-002 
-6.055995e-002 
-3.185919e-002 
-5.512267e-003 
1.514582e-002 
3.134934e-002 
4.359604e-002 
5.388758e-002 
6.492961e-002 
7.402382e-002 
7.897904e-002 
8.249112e-002 
8.505982e-002 
8.634454e-002 
8.806973e-002 
8.952594e-002 
8.968160e-002 
8.919110e-002 
8.811482e-002 
8.806536e-002 
8.962648e-002 
9.149217e-002 
9.319880e-002 
9.492572e-002 
9.672012e-002 
9.923552e-002 
1.031591e-001 
1.060192e-001 
1.075137e-001 
1.081060e-001 
1.091665e-001 
1.112577e-001 
1.141773e-001 
1.179967e-001 
1.200007e-001 
1.199316e-001 
1.188821e-001 
1.193431e-001 
1.220143e-001 
1.251942e-001 
1.273901e-001 
1.295615e-001 
1.320322e-001 
1.333522e-001 
1.350724e-001 
1.371605e-001 
1.402756e-001 
1.433752e-001 
1.459623e-001 
1.499454e-001 
1.547698e-001 
1.588622e-001 
1.609991e-001 
1.618662e-001 
1.638288e-001 
1.669815e-001 
1.695313e-001 
1.712155e-001 
1.726612e-001 
1.733863e-001 
1.745507e-001 
1.752227e-001 
1.760701e-001 
1.773528e-001 
1.770590e-001 
1.765524e-001 
1.774714e-001 
1.790415e-001 
1.799607e-001 
1.805041e-001 
1.781589e-001 
1.751342e-001 
1.734958e-001 
1.725785e-001 
1.729398e-001 
1.725206e-001 
1.680860e-001 
1.628235e-001 
1.575383e-001 
1.513373e-001 
1.472417e-001 
1.432321e-001 
1.371350e-001 
1.306525e-001 
1.231872e-001 
1.153733e-001 
1.088396e-001 
1.016519e-001 
9.462530e-002 
8.754091e-002 
8.062515e-002 
7.596167e-002 
7.256740e-002 
6.802671e-002 
6.172642e-002 
5.524507e-002 
5.102840e-002 
4.911211e-002 
4.696396e-002 
4.571836e-002 
4.534204e-002 
4.332476e-002 
4.060110e-002 
3.895071e-002 
3.895426e-002 
4.069196e-002 
4.146312e-002 
4.016433e-002 
4.109972e-002 
4.233826e-002 
4.238781e-002 
4.246156e-002 
4.211614e-002 
4.179264e-002 
4.348317e-002 
4.418546e-002 
4.433017e-002 
4.495635e-002 
4.326553e-002 
4.056003e-002 
3.891428e-002 
3.764774e-002 
3.715442e-002 
3.693383e-002 
3.343066e-002 
2.965777e-002 
2.701452e-002 
2.407296e-002 
2.153519e-002 
1.958522e-002 
1.444440e-002 
9.146643e-003 
4.542955e-003 
5.560005e-004 
-1.219947e-003 
-3.208311e-003 
-7.281197e-003 
-1.078973e-002 
-1.413224e-002 
-1.803594e-002 
-1.924382e-002 
-2.025174e-002 
-2.161048e-002 
-2.375534e-002 
-2.581642e-002 
-2.725148e-002 
-2.801038e-002 
-2.962739e-002 
-3.155950e-002 
-3.237113e-002 
-3.232523e-002 
-3.138181e-002 
-3.073931e-002 
-3.076043e-002 
-3.244683e-002 
-3.487482e-002 
-3.611366e-002 
-3.505020e-002 
-3.262178e-002 
-3.054077e-002 
-3.058238e-002 
-3.267555e-002 
-3.411462e-002 
-3.406674e-002 
-3.299735e-002 
-3.080119e-002 
-2.894963e-002 
-2.742907e-002 
-2.513557e-002 
-2.128445e-002 
-1.491005e-002 
-6.295201e-003 
2.505202e-003 
1.161293e-002 
2.178528e-002 
3.239790e-002 
4.400509e-002 
5.634527e-002 
6.803222e-002 
7.767520e-002 
8.616094e-002 
9.345238e-002 
9.983514e-002 
1.043532e-001 
1.070580e-001 
1.099864e-001 
1.123532e-001 
1.098734e-001 
1.038965e-001 
9.675078e-002 
8.729645e-002 
7.769927e-002 
6.873342e-002 
6.184207e-002 
5.576333e-002 
4.486691e-002 
2.938258e-002 
1.650724e-002 
6.923902e-003 
3.403545e-004 
-3.944439e-003 
-8.773096e-003 
-1.505701e-002 
-2.419674e-002 
-3.540144e-002 
-4.369187e-002 
-4.766722e-002 
-5.038420e-002 
-5.449472e-002 
-6.070260e-002 
-6.647345e-002 
-7.054028e-002 
-7.498908e-002 
-7.847817e-002 
-8.034458e-002 
-8.192620e-002 
-8.215807e-002 
-8.250114e-002 
-8.243901e-002 
-8.181729e-002 
-8.275853e-002 
-8.576049e-002 
-8.621508e-002 
-8.610989e-002 
-8.538333e-002 
-8.398290e-002 
-8.521935e-002 
-8.796796e-002 
-8.961535e-002 
-9.178912e-002 
-9.472728e-002 
-9.720297e-002 
-1.041538e-001 
-1.157187e-001 
-1.313228e-001 
-1.515958e-001 
-1.775524e-001 
-2.114725e-001 
-2.549993e-001 
-3.047015e-001 
-3.567291e-001 
-4.096906e-001 
-4.585710e-001 
-5.015082e-001 
-5.424683e-001 
-5.840870e-001 
-6.235351e-001 
-6.566294e-001 
-6.805486e-001 
-6.944866e-001 
-6.987870e-001 
-6.906844e-001 
-6.724117e-001 
-6.494327e-001 
-6.194367e-001 
-5.791544e-001 
-5.298609e-001 
-4.734069e-001 
-4.129314e-001 
-3.494572e-001 
-2.854008e-001 
-2.285527e-001 
-1.796290e-001 
-1.323305e-001 
-8.794394e-002 
-4.802367e-002 
-1.234754e-002 
1.946377e-002 
4.643219e-002 
6.827938e-002 
8.637998e-002 
1.031204e-001 
1.186914e-001 
1.292024e-001 
1.354989e-001 
1.399011e-001 
1.444301e-001 
1.483639e-001 
1.545110e-001 
1.598117e-001 
1.611330e-001 
1.614201e-001 
1.609177e-001 
1.599164e-001 
1.621028e-001 
1.657519e-001 
1.677520e-001 
1.716977e-001 
1.741794e-001 
1.759704e-001 
1.807669e-001 
1.836341e-001 
1.841309e-001 
1.859145e-001 
1.859684e-001 
1.878404e-001 
1.932947e-001 
1.957254e-001 
1.966769e-001 
1.993431e-001 
2.003590e-001 
2.007560e-001 
2.027467e-001 
2.047812e-001 
2.072349e-001 
2.089826e-001 
2.100185e-001 
2.130091e-001 
2.175053e-001 
2.191911e-001 
2.186833e-001 
2.187205e-001 
2.189880e-001 
2.214231e-001 
2.255641e-001 
2.290689e-001 
2.304639e-001 
2.305398e-001 
2.292787e-001 
2.280421e-001 
2.288067e-001 
2.307069e-001 
2.324790e-001 
2.337485e-001 
2.343761e-001 
2.345550e-001 
2.359208e-001 
2.351813e-001 
2.338159e-001 
2.337321e-001 
2.340521e-001 
2.355316e-001 
2.385195e-001 
2.397119e-001 
2.387567e-001 
2.361655e-001 
2.326854e-001 
2.325723e-001 
2.340277e-001 
2.348640e-001 
2.343613e-001 
2.330209e-001 
2.294058e-001 
2.244316e-001 
2.209646e-001 
2.190064e-001 
2.161441e-001 
2.103252e-001 
2.048049e-001 
2.005464e-001 
1.973270e-001 
1.915737e-001 
1.845832e-001 
1.797763e-001 
1.755088e-001 
1.686906e-001 
1.622155e-001 
1.580910e-001 
1.533085e-001 
1.483688e-001 
1.418382e-001 
1.368427e-001 
1.346030e-001 
1.305263e-001 
1.240166e-001 
1.203344e-001 
1.185475e-001 
1.177145e-001 
1.166557e-001 
1.134451e-001 
1.105137e-001 
1.079598e-001 
1.042838e-001 
1.026155e-001 
1.045280e-001 
1.066104e-001 
1.059834e-001 
1.031933e-001 
1.011641e-001 
1.009428e-001 
1.017159e-001 
1.023085e-001 
1.018209e-001 
1.002974e-001 
9.796566e-002 
9.487967e-002 
9.328123e-002 
9.124934e-002 
8.740596e-002 
8.472040e-002 
8.235106e-002 
7.920011e-002 
7.821044e-002 
7.710158e-002 
7.322510e-002 
6.876122e-002 
6.397038e-002 
6.168205e-002 
6.222302e-002 
6.118911e-002 
5.973887e-002 
5.880407e-002 
5.604451e-002 
5.361412e-002 
5.240460e-002 
5.104318e-002 
5.059903e-002 
4.869716e-002 
4.643971e-002 
4.602696e-002 
4.514092e-002 
4.297177e-002 
4.089512e-002 
3.808849e-002 
3.674399e-002 
3.722346e-002 
3.713350e-002 
3.715631e-002 
3.536021e-002 
3.116435e-002 
2.768649e-002 
2.713604e-002 
2.817482e-002 
2.944003e-002 
2.828111e-002 
2.616569e-002 
2.425346e-002 
2.270875e-002 
2.248055e-002 
2.285069e-002 
2.252207e-002 
2.060412e-002 
1.826415e-002 
1.731282e-002 
1.884875e-002 
2.024543e-002 
2.109643e-002 
2.144366e-002 
2.209475e-002 
2.504757e-002 
3.167141e-002 
4.054073e-002 
4.880261e-002 
5.682608e-002 
6.488041e-002 
7.271526e-002 
8.063746e-002 
8.878675e-002 
9.714840e-002 
1.053858e-001 
1.113745e-001 
1.148444e-001 
1.189277e-001 
1.225510e-001 
1.228420e-001 
1.216884e-001 
1.212475e-001 
1.194486e-001 
1.156825e-001 
1.096029e-001 
1.000998e-001 
9.196423e-002 
8.442097e-002 
7.432889e-002 
6.683719e-002 
6.032675e-002 
4.983359e-002 
4.095430e-002 
3.325911e-002 
2.643186e-002 
2.401477e-002 
1.813210e-002 
9.016201e-003 
1.844835e-003 
-7.097855e-003 
-1.480107e-002 
-1.856482e-002 
-2.258436e-002 
-2.620486e-002 
-3.109284e-002 
-3.785687e-002 
-4.159288e-002 
-4.508347e-002 
-4.831920e-002 
-4.979685e-002 
-5.158358e-002 
-5.241883e-002 
-5.363733e-002 
-5.603762e-002 
-5.782856e-002 
-6.055418e-002 
-6.396462e-002 
-6.428126e-002 
-6.395761e-002 
-6.366201e-002 
-6.464550e-002 
-7.029868e-002 
-7.760988e-002 
-8.372951e-002 
-8.879221e-002 
-9.190964e-002 
-9.469269e-002 
-9.958366e-002 
-1.072794e-001 
-1.203075e-001 
-1.399382e-001 
-1.641088e-001 
-1.946231e-001 
-2.333766e-001 
-2.747672e-001 
-3.143846e-001 
-3.488779e-001 
-3.782956e-001 
-4.082435e-001 
-4.417497e-001 
-4.765074e-001 
-5.083651e-001 
-5.318042e-001 
-5.440185e-001 
-5.472226e-001 
-5.431788e-001 
-5.365553e-001 
-5.295474e-001 
-5.190165e-001 
-4.984530e-001 
-4.628943e-001 
-4.174366e-001 
-3.674420e-001 
-3.162425e-001 
-2.671747e-001 
-2.229129e-001 
-1.840276e-001 
-1.505053e-001 
-1.171462e-001 
-8.223548e-002 
-5.013283e-002 
-2.034127e-002 
6.024032e-003 
2.833765e-002 
4.575831e-002 
5.853770e-002 
6.826506e-002 
7.908249e-002 
9.021321e-002 
9.849710e-002 
1.041477e-001 
1.075407e-001 
1.093510e-001 
1.109163e-001 
1.116804e-001 
1.101377e-001 
1.106073e-001 
1.124570e-001 
1.145262e-001 
1.167244e-001 
1.169669e-001 
1.160173e-001 
1.153005e-001 
1.138469e-001 
1.133973e-001 
1.156667e-001 
1.172232e-001 
1.169376e-001 
1.150979e-001 
1.124737e-001 
1.110602e-001 
1.103250e-001 
1.091885e-001 
1.076017e-001 
1.068657e-001 
1.062330e-001 
1.042776e-001 
1.024649e-001 
1.010006e-001 
9.900420e-002 
9.736808e-002 
9.705371e-002 
9.835507e-002 
1.022982e-001 
1.038219e-001 
1.020731e-001 
1.020444e-001 
1.025071e-001 
1.040130e-001 
1.081639e-001 
1.132060e-001 
1.172929e-001 
1.204017e-001 
1.216330e-001 
1.243314e-001 
1.295050e-001 
1.326573e-001 
1.352825e-001 
1.390448e-001 
1.425707e-001 
1.446307e-001 
1.460400e-001 
1.470831e-001 
1.475355e-001 
1.476688e-001 
1.480166e-001 
1.500878e-001 
1.529765e-001 
1.521564e-001 
1.476429e-001 
1.430354e-001 
1.395829e-001 
1.364598e-001 
1.345233e-001 
1.316645e-001 
1.280172e-001 
1.229317e-001 
1.159976e-001 
1.112435e-001 
1.079212e-001 
1.036868e-001 
9.768176e-002 
9.194348e-002 
8.641658e-002 
8.343941e-002 
7.984555e-002 
7.562373e-002 
7.221723e-002 
6.660787e-002 
6.176425e-002 
5.960127e-002 
5.882002e-002 
5.863998e-002 
5.787970e-002 
5.387838e-002 
5.124660e-002 
4.978433e-002 
4.911341e-002 
4.980480e-002 
4.872999e-002 
4.744599e-002 
4.830268e-002 
4.856610e-002 
4.785978e-002 
4.702422e-002 
4.505838e-002 
4.348680e-002 
4.074538e-002 
3.997612e-002 
4.237678e-002 
4.353951e-002 
4.076326e-002 
3.634608e-002 
3.275906e-002 
3.097736e-002 
2.979484e-002 
2.874587e-002 
2.800578e-002 
2.527712e-002 
2.175807e-002 
1.808130e-002 
1.541294e-002 
1.347193e-002 
9.736843e-003 
6.373496e-003 
4.380681e-003 
2.552543e-003 
1.045167e-003 
-8.933259e-004 
-4.855343e-003 
-9.197700e-003 
-1.248014e-002 
-1.560318e-002 
-1.602112e-002 
-1.587623e-002 
-1.846333e-002 
-2.271086e-002 
-2.670190e-002 
-2.878864e-002 
-2.983312e-002 
-3.117972e-002 
-3.397629e-002 
-3.497464e-002 
-3.624994e-002 
-3.919757e-002 
-4.051968e-002 
-4.073000e-002 
-4.200286e-002 
-4.604756e-002 
-4.846894e-002 
-4.866590e-002 
-4.680182e-002 
-4.687071e-002 
-4.828358e-002 
-4.965015e-002 
-5.128569e-002 
-5.295190e-002 
-5.327343e-002 
-5.124432e-002 
-5.113154e-002 
-5.117558e-002 
-5.111845e-002 
-5.169957e-002 
-5.229085e-002 
-5.151992e-002 
-5.184316e-002 
-5.199692e-002 
-5.056242e-002 
-4.849828e-002 
-4.313943e-002 
-3.776977e-002 
-3.508696e-002 
-2.883491e-002 
-2.057114e-002 
-1.380773e-002 
-4.587673e-003 
5.174816e-003 
1.228585e-002 
2.020382e-002 
2.729956e-002 
3.289877e-002 
3.979503e-002 
4.292992e-002 
4.375482e-002 
4.544637e-002 
4.496667e-002 
4.345301e-002 
4.284976e-002 
3.781356e-002 
2.719432e-002 
1.593521e-002 
6.020619e-003 
-1.748786e-003 
-9.828072e-003 
-1.936606e-002 
-2.949317e-002 
-4.100411e-002 
-5.414847e-002 
-6.523398e-002 
-7.112886e-002 
-7.578210e-002 
-8.223860e-002 
-9.014566e-002 
-9.649618e-002 
-1.008358e-001 
-1.053699e-001 
-1.093964e-001 
-1.130688e-001 
-1.170713e-001 
-1.204259e-001 
-1.221238e-001 
-1.233675e-001 
-1.234305e-001 
-1.250581e-001 
-1.279601e-001 
-1.284769e-001 
-1.289227e-001 
-1.280609e-001 
-1.249659e-001 
-1.240128e-001 
-1.256211e-001 
-1.259297e-001 
-1.268017e-001 
-1.273979e-001 
-1.286399e-001 
-1.326102e-001 
-1.357632e-001 
-1.379427e-001 
-1.414332e-001 
-1.449598e-001 
-1.487255e-001 
-1.577353e-001 
-1.711341e-001 
-1.867634e-001 
-2.046074e-001 
-2.244929e-001 
-2.516697e-001 
-2.899416e-001 
-3.370253e-001 
-3.884441e-001 
-4.392412e-001 
-4.839619e-001 
-5.211876e-001 
-5.558894e-001 
-5.918361e-001 
-6.282672e-001 
-6.602641e-001 
-6.842519e-001 
-6.966264e-001 
-6.975877e-001 
-6.880787e-001 
-6.720873e-001 
-6.548617e-001 
-6.322002e-001 
-5.986702e-001 
-5.552322e-001 
-5.046286e-001 
-4.476459e-001 
-3.885069e-001 
-3.308518e-001 
-2.796143e-001 
-2.338965e-001 
-1.902072e-001 
-1.489034e-001 
-1.122933e-001 
-8.005651e-002 
-5.083763e-002 
-2.563436e-002 
-4.322000e-003 
1.436973e-002 
3.142033e-002 
4.564752e-002 
5.768118e-002 
6.524833e-002 
7.136543e-002 
7.773549e-002 
8.342686e-002 
8.912354e-002 
9.355094e-002 
9.433186e-002 
9.370484e-002 
9.384061e-002 
9.406228e-002 
9.712982e-002 
1.002317e-001 
1.012516e-001 
1.012786e-001 
1.016158e-001 
1.021184e-001 
1.042511e-001 
1.066261e-001 
1.066422e-001 
1.058850e-001 
1.046976e-001 
1.036122e-001 
1.040118e-001 
1.060145e-001 
1.065271e-001 
1.069450e-001 
1.073339e-001 
1.064754e-001 
1.068030e-001 
1.075089e-001 
1.078581e-001 
1.090847e-001 
1.110280e-001 
1.128904e-001 
1.157130e-001 
1.182822e-001 
1.181424e-001 
1.174488e-001 
1.182696e-001 
1.212384e-001 
1.258151e-001 
1.297081e-001 
1.311551e-001 
1.312545e-001 
1.316123e-001 
1.312138e-001 
1.339287e-001 
1.379944e-001 
1.406384e-001 
1.427143e-001 
1.438931e-001 
1.442625e-001 
1.465135e-001 
1.492042e-001 
1.497636e-001 
1.515532e-001 
1.520422e-001 
1.535086e-001 
1.557502e-001 
1.553202e-001 
1.535898e-001 
1.526127e-001 
1.501514e-001 
1.473458e-001 
1.462213e-001 
1.441625e-001 
1.411207e-001 
1.351774e-001 
1.283392e-001 
1.225731e-001 
1.170773e-001 
1.101050e-001 
1.026936e-001 
9.563243e-002 
8.931063e-002 
8.336852e-002 
7.743646e-002 
7.136110e-002 
6.409148e-002 
5.724304e-002 
5.025533e-002 
4.533208e-002 
4.286916e-002 
4.034489e-002 
3.501284e-002 
2.885683e-002 
2.379693e-002 
2.194777e-002 
2.219993e-002 
2.122878e-002 
2.096847e-002 
2.019635e-002 
1.769407e-002 
1.472056e-002 
1.341589e-002 
1.362691e-002 
1.446945e-002 
1.465720e-002 
1.472926e-002 
1.606349e-002 
1.745863e-002 
1.798521e-002 
1.645967e-002 
1.505887e-002 
1.573779e-002 
1.768204e-002 
1.922725e-002 
1.810787e-002 
1.564950e-002 
1.302661e-002 
1.044462e-002 
7.634343e-003 
8.086545e-003 
9.099529e-003 
6.556226e-003 
1.636712e-003 
-3.019352e-003 
-6.479717e-003 
-8.983328e-003 
-1.185397e-002 
-1.582692e-002 
-1.900470e-002 
-2.311406e-002 
-2.720911e-002 
-2.973860e-002 
-3.193999e-002 
-3.557071e-002 
-3.945425e-002 
-4.221603e-002 
-4.370775e-002 
-4.413903e-002 
-4.435580e-002 
-4.563895e-002 
-4.699640e-002 
-4.728356e-002 
-4.833273e-002 
-4.779530e-002 
-4.590201e-002 
-4.668901e-002 
-4.808065e-002 
-4.836878e-002 
-4.891741e-002 
-4.760200e-002 
-4.683800e-002 
-4.863887e-002 
-4.924137e-002 
-5.021301e-002 
-5.089671e-002 
-4.937779e-002 
-4.843325e-002 
-4.972345e-002 
-5.063378e-002 
-5.189593e-002 
-5.244268e-002 
-5.055114e-002 
-4.876552e-002 
-4.751740e-002 
-4.634370e-002 
-4.485642e-002 
-4.263209e-002 
-3.783554e-002 
-3.227070e-002 
-2.606202e-002 
-1.812437e-002 
-9.148167e-003 
9.669006e-004 
1.100237e-002 
2.025399e-002 
2.872648e-002 
3.733013e-002 
4.505346e-002 
5.270964e-002 
5.999581e-002 
6.480496e-002 
6.664727e-002 
6.740635e-002 
6.950917e-002 
7.021529e-002 
6.908382e-002 
6.572832e-002 
5.839275e-002 
4.858961e-002 
3.899265e-002 
3.190866e-002 
2.760413e-002 
2.095748e-002 
1.076446e-002 
1.371937e-003 
-8.794125e-003 
-1.752477e-002 
-2.260847e-002 
-2.624450e-002 
-3.017083e-002 
-3.724906e-002 
-4.674436e-002 
-5.464141e-002 
-6.112317e-002 
-6.737386e-002 
-7.078013e-002 
-7.347177e-002 
-7.682291e-002 
-7.996383e-002 
-8.298771e-002 
-8.607012e-002 
-9.003783e-002 
-9.369622e-002 
-9.488579e-002 
-9.375121e-002 
-9.322974e-002 
-9.246778e-002 
-9.114888e-002 
-9.110655e-002 
-9.125052e-002 
-9.108739e-002 
-9.020681e-002 
-8.928560e-002 
-9.087274e-002 
-9.389060e-002 
-9.561561e-002 
-9.887115e-002 
-1.021882e-001 
-1.049018e-001 
-1.103900e-001 
-1.171486e-001 
-1.252716e-001 
-1.371769e-001 
-1.534631e-001 
-1.781056e-001 
-2.129528e-001 
-2.548218e-001 
-3.031549e-001 
-3.541992e-001 
-4.017394e-001 
-4.441616e-001 
-4.843097e-001 
-5.235248e-001 
-5.622213e-001 
-5.964453e-001 
-6.240344e-001 
-6.449346e-001 
-6.565651e-001 
-6.558764e-001 
-6.445570e-001 
-6.281817e-001 
-6.071495e-001 
-5.784375e-001 
-5.398312e-001 
-4.929990e-001 
-4.386139e-001 
-3.785477e-001 
-3.145370e-001 
-2.539492e-001 
-2.027150e-001 
-1.568830e-001 
-1.147141e-001 
-7.659315e-002 
-4.130724e-002 
-9.131282e-003 
1.866934e-002 
4.406941e-002 
6.392103e-002 
7.922167e-002 
9.249305e-002 
1.018647e-001 
1.085579e-001 
1.167631e-001 
1.249852e-001 
1.311429e-001 
1.358034e-001 
1.371272e-001 
1.368661e-001 
1.352213e-001 
1.327650e-001 
1.343764e-001 
1.408433e-001 
1.449336e-001 
1.450897e-001 
1.448415e-001 
1.463463e-001 
1.483509e-001 
1.492396e-001 
1.526749e-001 
1.574493e-001 
1.591318e-001 
1.578628e-001 
1.569322e-001 
1.577533e-001 
1.583827e-001 
1.566765e-001 
1.564822e-001 
1.593668e-001 
1.607610e-001 
1.620607e-001 
1.633810e-001 
1.639537e-001 
1.638429e-001 
1.645004e-001 
1.670978e-001 
1.713784e-001 
1.754244e-001 
1.784533e-001 
1.806311e-001 
1.834989e-001 
1.872639e-001 
1.903981e-001 
1.934508e-001 
1.959215e-001 
1.979166e-001 
2.008834e-001 
2.035521e-001 
2.051019e-001 
2.067573e-001 
2.060934e-001 
2.044915e-001 
2.052022e-001 
2.082656e-001 
2.119291e-001 
2.140848e-001 
2.124232e-001 
2.094798e-001 
2.074665e-001 
2.066425e-001 
2.073552e-001 
2.082586e-001 
2.069201e-001 
2.029326e-001 
1.976785e-001 
1.934561e-001 
1.916331e-001 
1.898060e-001 
1.859697e-001 
1.800633e-001 
1.733249e-001 
1.667276e-001 
1.607287e-001 
1.551779e-001 
1.490177e-001 
1.411500e-001 
1.329201e-001 
1.268189e-001 
1.213087e-001 
1.156258e-001 
1.097490e-001 
1.030685e-001 
9.704837e-002 
9.076278e-002 
8.477560e-002 
8.099995e-002 
7.717335e-002 
7.185866e-002 
6.882864e-002 
6.618475e-002 
6.363856e-002 
6.210082e-002 
5.855869e-002 
5.541403e-002 
5.417641e-002 
5.384323e-002 
5.399432e-002 
5.367267e-002 
5.005174e-002 
4.718084e-002 
4.673680e-002 
4.688865e-002 
4.824513e-002 
5.055024e-002 
5.016018e-002 
4.669178e-002 
4.291672e-002 
3.949655e-002 
4.055478e-002 
4.268532e-002 
4.093584e-002 
3.824198e-002 
3.713346e-002 
3.435628e-002 
3.220699e-002 
3.018171e-002 
2.903445e-002 
2.997361e-002 
2.842499e-002 
2.596800e-002 
2.483003e-002 
2.254858e-002 
1.803678e-002 
1.532809e-002 
1.537071e-002 
1.756896e-002 
1.976750e-002 
1.999984e-002 
1.733216e-002 
1.395906e-002 
1.003381e-002 
7.753912e-003 
9.562724e-003 
1.073536e-002 
9.351757e-003 
7.395272e-003 
3.607523e-003 
6.255452e-004 
1.098378e-003 
4.537834e-004 
-3.331239e-004 
-1.233553e-003 
-3.461051e-003 
-4.621501e-003 
-5.381586e-003 
-6.837970e-003 
-7.512359e-003 
-8.101380e-003 
-9.757781e-003 
-9.854329e-003 
-7.258424e-003 
-4.489014e-003 
-4.295198e-003 
-5.556415e-003 
-5.447037e-003 
-4.643443e-003 
-1.392245e-003 
3.914666e-003 
1.190866e-002 
2.023535e-002 
2.668510e-002 
3.289805e-002 
4.015750e-002 
4.739572e-002 
5.378373e-002 
6.198109e-002 
7.035298e-002 
7.709229e-002 
8.041351e-002 
8.182616e-002 
8.204216e-002 
8.129195e-002 
8.152639e-002 
8.174041e-002 
7.964866e-002 
7.492787e-002 
6.752545e-002 
5.763526e-002 
4.895342e-002 
4.188970e-002 
3.509905e-002 
2.761488e-002 
1.659765e-002 
5.668628e-003 
-1.576722e-003 
-7.877018e-003 
-1.424222e-002 
-1.925311e-002 
-2.613056e-002 
-3.491851e-002 
-4.224606e-002 
-4.772346e-002 
-5.085905e-002 
-5.320905e-002 
-5.862370e-002 
-6.462031e-002 
-6.893287e-002 
-7.298506e-002 
-7.480567e-002 
-7.533593e-002 
-7.771796e-002 
-8.077046e-002 
-8.275903e-002 
-8.464803e-002 
-8.397776e-002 
-8.301812e-002 
-8.387914e-002 
-8.499331e-002 
-8.496779e-002 
-8.612136e-002 
-8.791978e-002 
-8.977090e-002 
-9.363541e-002 
-9.706125e-002 
-1.007918e-001 
-1.034871e-001 
-1.050570e-001 
-1.100360e-001 
-1.247017e-001 
-1.453652e-001 
-1.713758e-001 
-2.044967e-001 
-2.420241e-001 
-2.824047e-001 
-3.218107e-001 
-3.588724e-001 
-3.951155e-001 
-4.330522e-001 
-4.700378e-001 
-5.058410e-001 
-5.379962e-001 
-5.612221e-001 
-5.749468e-001 
-5.798037e-001 
-5.768731e-001 
-5.724625e-001 
-5.677227e-001 
-5.548753e-001 
-5.296985e-001 
-4.906201e-001 
-4.422572e-001 
-3.918194e-001 
-3.415045e-001 
-2.937866e-001 
-2.514106e-001 
-2.102682e-001 
-1.685616e-001 
-1.284617e-001 
-9.260037e-002 
-6.179642e-002 
-3.389687e-002 
-8.169278e-003 
1.444728e-002 
3.254068e-002 
4.763663e-002 
5.972528e-002 
7.046486e-002 
8.042854e-002 
8.996879e-002 
9.557840e-002 
9.745333e-002 
9.820850e-002 
9.901247e-002 
1.012027e-001 
1.034675e-001 
1.044407e-001 
1.037063e-001 
1.011192e-001 
9.682369e-002 
9.568012e-002 
9.617708e-002 
9.674158e-002 
9.748760e-002 
9.681084e-002 
9.391152e-002 
9.148585e-002 
8.882713e-002 
8.761591e-002 
8.724750e-002 
8.546224e-002 
8.572790e-002 
8.694065e-002 
8.658635e-002 
8.544394e-002 
8.463318e-002 
8.434453e-002 
8.611029e-002 
8.747799e-002 
8.997701e-002 
9.347261e-002 
9.433881e-002 
9.350053e-002 
9.378969e-002 
9.555107e-002 
9.782109e-002 
9.997553e-002 
1.005516e-001 
1.024574e-001 
1.060621e-001 
1.089806e-001 
1.112207e-001 
1.127814e-001 
1.125759e-001 
1.129684e-001 
1.156762e-001 
1.172374e-001 
1.199314e-001 
1.226290e-001 
1.206857e-001 
1.172234e-001 
1.147801e-001 
1.139941e-001 
1.162042e-001 
1.173498e-001 
1.147874e-001 
1.136389e-001 
1.117389e-001 
1.089210e-001 
1.080248e-001 
1.065415e-001 
1.039407e-001 
1.014643e-001 
9.747432e-002 
9.423298e-002 
9.236471e-002 
8.921241e-002 
8.534984e-002 
7.984389e-002 
7.461589e-002 
7.160969e-002 
6.951833e-002 
6.651797e-002 
6.163166e-002 
5.493368e-002 
4.958724e-002 
4.442389e-002 
4.049753e-002 
3.763634e-002 
3.374327e-002 
2.970214e-002 
2.539188e-002 
2.098542e-002 
1.968209e-002 
1.884223e-002 
1.636852e-002 
1.506174e-002 
1.332259e-002 
1.252371e-002 
1.281057e-002 
1.180098e-002 
9.596437e-003 
7.990699e-003 
5.485209e-003 
4.758731e-003 
5.665511e-003 
5.544116e-003 
5.110759e-003 
3.519171e-003 
1.520129e-003 
6.129269e-004 
3.544828e-005 
-1.691512e-003 
-3.682506e-003 
-6.940602e-003 
-1.130944e-002 
-1.525988e-002 
-1.784402e-002 
-1.969765e-002 
-2.387093e-002 
-2.926848e-002 
-3.315251e-002 
-3.580885e-002 
-3.885878e-002 
-4.399940e-002 
-4.944314e-002 
-5.408116e-002 
-5.972562e-002 
-6.518101e-002 
-6.703421e-002 
-6.843814e-002 
-7.141111e-002 
-7.410632e-002 
-7.696073e-002 
-7.824929e-002 
-7.878119e-002 
-8.010115e-002 
-8.172752e-002 
-8.328736e-002 
-8.593676e-002 
-8.693970e-002 
-8.532191e-002 
-8.539470e-002 
-8.758578e-002 
-8.919653e-002 
-8.997494e-002 
-9.042137e-002 
-8.998587e-002 
-9.002013e-002 
-9.061437e-002 
-9.194733e-002 
-9.505912e-002 
-9.788542e-002 
-9.722866e-002 
-9.562032e-002 
-9.660835e-002 
-9.745225e-002 
-9.697301e-002 
-9.594172e-002 
-9.437188e-002 
-9.319888e-002 
-9.165941e-002 
-8.802057e-002 
-8.314196e-002 
-7.775797e-002 
-6.895901e-002 
-5.923621e-002 
-5.223270e-002 
-4.557632e-002 
-3.738575e-002 
-2.891418e-002 
-1.912537e-002 
-9.311388e-003 
-2.428721e-003 
2.625817e-003 
6.284757e-003 
9.143857e-003 
1.280118e-002 
1.581184e-002 
1.490171e-002 
1.069194e-002 
4.974137e-003 
-1.902803e-003 
-6.995833e-003 
-1.040125e-002 
-1.700610e-002 
-2.541284e-002 
-3.405730e-002 
-4.540113e-002 
-5.574604e-002 
-6.284283e-002 
-6.935036e-002 
-7.340964e-002 
-7.852514e-002 
-8.707191e-002 
-9.320219e-002 
-9.904426e-002 
-1.060975e-001 
-1.106520e-001 
-1.135805e-001 
-1.150333e-001 
-1.161640e-001 
-1.206990e-001 
-1.265238e-001 
-1.298538e-001 
-1.322971e-001 
-1.340157e-001 
-1.334697e-001 
-1.305847e-001 
-1.286433e-001 
-1.284837e-001 
-1.291027e-001 
-1.285478e-001 
-1.266575e-001 
-1.272826e-001 
-1.302867e-001 
-1.324064e-001 
-1.338286e-001 
-1.353009e-001 
-1.362082e-001 
-1.387772e-001 
-1.441798e-001 
-1.555456e-001 
-1.734112e-001 
-1.966404e-001 
-2.266987e-001 
-2.647533e-001 
-3.085718e-001 
-3.530162e-001 
-3.924729e-001 
-4.275355e-001 
-4.624204e-001 
-4.964292e-001 
-5.287129e-001 
-5.583250e-001 
-5.817120e-001 
-5.941571e-001 
-5.926976e-001 
-5.819802e-001 
-5.719417e-001 
-5.623968e-001 
-5.443096e-001 
-5.147762e-001 
-4.754653e-001 
-4.270416e-001 
-3.718118e-001 
-3.135384e-001 
-2.599127e-001 
-2.144388e-001 
-1.722570e-001 
-1.314927e-001 
-9.569264e-002 
-6.516126e-002 
-3.726139e-002 
-1.145448e-002 
1.251770e-002 
3.182215e-002 
4.526019e-002 
5.459504e-002 
6.376999e-002 
7.318740e-002 
8.238690e-002 
9.029522e-002 
9.457506e-002 
9.804269e-002 
9.972339e-002 
9.814079e-002 
9.776066e-002 
1.001603e-001 
1.011958e-001 
1.016459e-001 
1.017859e-001 
1.022676e-001 
1.050740e-001 
1.045689e-001 
1.022316e-001 
1.014338e-001 
1.015297e-001 
1.027544e-001 
1.042771e-001 
1.043919e-001 
1.036549e-001 
1.013175e-001 
9.818385e-002 
9.859891e-002 
1.010858e-001 
1.042009e-001 
1.052920e-001 
1.037222e-001 
1.030266e-001 
1.034864e-001 
1.043917e-001 
1.072801e-001 
1.101895e-001 
1.121053e-001 
1.138009e-001 
1.148856e-001 
1.166520e-001 
1.190999e-001 
1.199120e-001 
1.205295e-001 
1.225484e-001 
1.239949e-001 
1.266890e-001 
1.286745e-001 
1.275711e-001 
1.253450e-001 
1.246549e-001 
1.248465e-001 
1.265910e-001 
1.278581e-001 
1.257357e-001 
1.246431e-001 
1.225225e-001 
1.195308e-001 
1.195929e-001 
1.213821e-001 
1.200340e-001 
1.175093e-001 
1.132631e-001 
1.097595e-001 
1.094683e-001 
1.062088e-001 
1.007033e-001 
9.632563e-002 
9.068664e-002 
8.349914e-002 
7.754938e-002 
7.219131e-002 
6.688970e-002 
5.926119e-002 
4.997630e-002 
4.282328e-002 
3.754926e-002 
3.077010e-002 
2.332657e-002 
1.698400e-002 
1.196651e-002 
6.182740e-003 
1.209782e-003 
-1.009135e-003 
-3.026334e-003 
-6.383322e-003 
-9.007216e-003 
-1.014303e-002 
-1.057112e-002 
-1.064155e-002 
-1.361074e-002 
-1.511645e-002 
-1.472371e-002 
-1.429962e-002 
-1.304074e-002 
-1.193778e-002 
-1.330358e-002 
-1.514245e-002 
-1.793441e-002 
-2.141507e-002 
-2.168425e-002 
-2.375059e-002 
-2.838760e-002 
-3.523035e-002 
-4.377709e-002 
-5.336668e-002 
-6.514574e-002 
-7.980170e-002 
-9.542394e-002 
-1.133011e-001 
-1.323853e-001 
-1.503232e-001 
-1.706519e-001 
-1.941986e-001 
-2.242723e-001 
-2.616497e-001 
-3.024678e-001 
-3.457148e-001 
-3.871907e-001 
-4.237232e-001 
-4.587657e-001 
-4.920915e-001 
-5.201363e-001 
-5.431879e-001 
-5.546523e-001 
-5.499334e-001 
-5.262361e-001 
-4.794953e-001 
-4.135104e-001 
-3.320510e-001 
-2.368230e-001 
-1.341644e-001 
-2.876646e-002 
8.001084e-002 
1.916271e-001 
3.030806e-001 
4.086707e-001 
5.028866e-001 
5.831582e-001 
6.459226e-001 
6.878018e-001 
7.088400e-001 
7.133093e-001 
7.020626e-001 
6.724845e-001 
6.283562e-001 
5.722027e-001 
5.042232e-001 
4.249302e-001 
3.393970e-001 
2.535497e-001 
1.747101e-001 
1.058657e-001 
4.958292e-002 
4.728127e-003 
-3.315871e-002 
-6.598044e-002 
-9.372072e-002 
-1.148354e-001 
-1.314783e-001 
-1.440638e-001 
-1.530591e-001 
-1.615106e-001 
-1.714099e-001 
-1.811948e-001 
-1.911239e-001 
-2.006227e-001 
-2.106456e-001 
-2.230610e-001 
-2.342565e-001 
-2.423678e-001 
-2.488882e-001 
-2.540951e-001 
-2.595376e-001 
-2.652471e-001 
-2.685604e-001 
-2.686925e-001 
-2.660725e-001 
-2.601270e-001 
-2.534976e-001 
-2.486670e-001 
-2.435368e-001 
-2.355127e-001 
-2.231745e-001 
-2.075657e-001 
-1.927986e-001 
-1.817559e-001 
-1.724224e-001 
-1.640499e-001 
-1.557405e-001 
-1.443151e-001 
-1.325668e-001 
-1.244066e-001 
-1.197435e-001 
-1.177614e-001 
-1.162079e-001 
-1.133505e-001 
-1.103648e-001 
-1.061005e-001 
-1.010029e-001 
-9.782393e-002 
-9.579232e-002 
-9.253874e-002 
-8.988328e-002 
-8.823811e-002 
-8.620864e-002 
-8.229515e-002 
-7.730781e-002 
-7.303594e-002 
-7.024467e-002 
-6.907779e-002 
-6.798582e-002 
-6.709412e-002 
-6.405510e-002 
-5.852221e-002 
-5.274446e-002 
-4.946114e-002 
-4.683528e-002 
-4.512784e-002 
-4.262514e-002 
-3.769810e-002 
-3.163564e-002 
-2.467961e-002 
-1.801077e-002 
-1.196646e-002 
-6.065378e-003 
4.941762e-004 
5.965870e-003 
1.082651e-002 
1.572136e-002 
2.255597e-002 
2.877850e-002 
3.309800e-002 
3.638124e-002 
3.857943e-002 
4.043137e-002 
4.207126e-002 
4.440589e-002 
4.858651e-002 
5.170557e-002 
4.988235e-002 
4.699209e-002 
4.558526e-002 
4.540053e-002 
4.574136e-002 
4.600073e-002 
4.487721e-002 
4.334000e-002 
4.142006e-002 
3.938817e-002 
3.877128e-002 
3.847528e-002 
3.594231e-002 
3.365068e-002 
3.134916e-002 
2.785830e-002 
2.624010e-002 
2.409618e-002 
1.985605e-002 
1.580665e-002 
1.219829e-002 
1.010483e-002 
1.127176e-002 
1.014906e-002 
6.391386e-003 
3.108058e-003 
-9.043402e-004 
-4.129744e-003 
-5.768846e-003 
-7.181099e-003 
-8.916265e-003 
-1.152645e-002 
-1.542233e-002 
-1.868507e-002 
-2.050970e-002 
-2.239523e-002 
-2.489463e-002 
-2.755793e-002 
-2.953181e-002 
-3.180934e-002 
-3.343015e-002 
-3.667177e-002 
-4.220248e-002 
-4.725177e-002 
-5.086429e-002 
-5.277889e-002 
-5.256078e-002 
-5.195030e-002 
-5.356272e-002 
-5.600578e-002 
-5.999772e-002 
-6.190810e-002 
-6.190260e-002 
-6.287902e-002 
-6.343231e-002 
-6.459809e-002 
-6.790278e-002 
-7.101010e-002 
-7.318049e-002 
-7.551129e-002 
-7.646720e-002 
-7.924786e-002 
-8.044588e-002 
-7.973213e-002 
-8.065028e-002 
-8.276274e-002 
-8.542025e-002 
-8.919175e-002 
-9.152704e-002 
-9.129958e-002 
-9.066817e-002 
-8.951717e-002 
-9.055652e-002 
-9.213416e-002 
-9.288596e-002 
-9.304417e-002 
-9.149700e-002 
-8.873902e-002 
-8.767882e-002 
-8.826117e-002 
-8.852824e-002 
-8.726969e-002 
-8.463554e-002 
-8.316448e-002 
-8.355923e-002 
-8.268592e-002 
-8.175289e-002 
-8.075929e-002 
-7.749375e-002 
-7.404079e-002 
-7.221438e-002 
-7.149176e-002 
-7.271041e-002 
-7.300167e-002 
-7.086839e-002 
-7.068557e-002 
-6.982236e-002 
-6.823938e-002 
-6.797634e-002 
-6.714195e-002 
-6.665417e-002 
-6.778025e-002 
-6.877247e-002 
-7.033155e-002 
-7.116807e-002 
-6.916171e-002 
-6.719345e-002 
-6.621464e-002 
-6.725694e-002 
-7.037148e-002 
-7.240565e-002 
-7.300402e-002 
-7.145162e-002 
-6.927521e-002 
-6.946604e-002 
-7.086794e-002 
-7.253764e-002 
-7.532817e-002 
-7.708958e-002 
-7.721626e-002 
-7.803711e-002 
-7.828946e-002 
-7.871228e-002 
-7.904595e-002 
-7.845107e-002 
-7.849044e-002 
-8.088846e-002 
-8.302018e-002 
-8.389690e-002 
-8.339636e-002 
-8.158242e-002 
-8.012429e-002 
-7.994237e-002 
-8.021159e-002 
-7.974923e-002 
-7.930250e-002 
-7.820634e-002 
-7.626444e-002 
-7.504715e-002 
-7.458294e-002 
-7.295851e-002 
-7.180279e-002 
-7.048787e-002 
-6.870111e-002 
-7.047471e-002 
-7.302788e-002 
-7.326867e-002 
-7.231939e-002 
-6.924936e-002 
-6.782217e-002 
-6.984864e-002 
-7.103232e-002 
-7.175805e-002 
-7.341911e-002 
-7.148728e-002 
-6.856266e-002 
-6.770648e-002 
-6.851194e-002 
-6.977312e-002 
-6.958251e-002 
-6.720138e-002 
-6.516502e-002 
-6.515366e-002 
-6.435383e-002 
-6.386732e-002 
-6.375222e-002 
-6.172209e-002 
-5.880161e-002 
-5.880960e-002 
-5.995440e-002 
-6.063169e-002 
-6.154085e-002 
-6.056422e-002 
-5.952110e-002 
-5.944499e-002 
-5.890502e-002 
-5.737648e-002 
-5.469204e-002 
-4.865733e-002 
-4.077524e-002 
-3.383546e-002 
-2.729561e-002 
-2.052431e-002 
-1.383022e-002 
-5.230347e-003 
5.356802e-003 
1.322119e-002 
1.840945e-002 
2.192563e-002 
2.377171e-002 
2.508991e-002 
2.588840e-002 
2.513921e-002 
2.593346e-002 
2.577412e-002 
2.139892e-002 
1.437217e-002 
6.579512e-003 
-2.259670e-003 
-1.122693e-002 
-1.839284e-002 
-2.225713e-002 
-2.419358e-002 
-2.992568e-002 
-3.965006e-002 
-4.896313e-002 
-5.428286e-002 
-5.757942e-002 
-5.801232e-002 
-5.601817e-002 
-5.657768e-002 
-6.040242e-002 
-6.624231e-002 
-7.187304e-002 
-7.400036e-002 
-7.476861e-002 
-7.704479e-002 
-7.829698e-002 
-8.020943e-002 
-8.246370e-002 
-8.405731e-002 
-8.671039e-002 
-8.828472e-002 
-8.797442e-002 
-8.733609e-002 
-8.519103e-002 
-8.137780e-002 
-7.911191e-002 
-7.964782e-002 
-8.301566e-002 
-8.508697e-002 
-8.464702e-002 
-8.452269e-002 
-8.398416e-002 
-8.400684e-002 
-8.584855e-002 
-8.851696e-002 
-9.072595e-002 
-9.315401e-002 
-9.898964e-002 
-1.116677e-001 
-1.321666e-001 
-1.593752e-001 
-1.944124e-001 
-2.355115e-001 
-2.808701e-001 
-3.267052e-001 
-3.710896e-001 
-4.131614e-001 
-4.519973e-001 
-4.914871e-001 
-5.313216e-001 
-5.683297e-001 
-5.981417e-001 
-6.185169e-001 
-6.256939e-001 
-6.227495e-001 
-6.139766e-001 
-6.023451e-001 
-5.865604e-001 
-5.576592e-001 
-5.131207e-001 
-4.580765e-001 
-3.980755e-001 
-3.369622e-001 
-2.785878e-001 
-2.254399e-001 
-1.763744e-001 
-1.275888e-001 
-7.879028e-002 
-3.577239e-002 
3.105129e-004 
3.222851e-002 
6.039565e-002 
8.679138e-002 
1.083100e-001 
1.239701e-001 
1.365536e-001 
1.474875e-001 
1.551335e-001 
1.624022e-001 
1.686219e-001 
1.718468e-001 
1.745364e-001 
1.749206e-001 
1.742072e-001 
1.758436e-001 
1.776484e-001 
1.762379e-001 
1.751774e-001 
1.747905e-001 
1.750481e-001 
1.773453e-001 
1.783465e-001 
1.782477e-001 
1.793391e-001 
1.797209e-001 
1.792830e-001 
1.800027e-001 
1.808875e-001 
1.812280e-001 
1.807590e-001 
1.795420e-001 
1.795823e-001 
1.815137e-001 
1.825660e-001 
1.815710e-001 
1.805731e-001 
1.821004e-001 
1.843142e-001 
1.865362e-001 
1.892601e-001 
1.912427e-001 
1.934469e-001 
1.940835e-001 
1.949950e-001 
1.986804e-001 
2.027772e-001 
2.042641e-001 
2.061430e-001 
2.088622e-001 
2.123028e-001 
2.161401e-001 
2.180438e-001 
2.196295e-001 
2.214203e-001 
2.245576e-001 
2.280160e-001 
2.322888e-001 
2.355657e-001 
2.362465e-001 
2.355161e-001 
2.353505e-001 
2.364365e-001 
2.405614e-001 
2.449354e-001 
2.459964e-001 
2.463746e-001 
2.462063e-001 
2.456662e-001 
2.473016e-001 
2.487994e-001 
2.488912e-001 
2.500337e-001 
2.498271e-001 
2.492838e-001 
2.492908e-001 
2.475714e-001 
2.442787e-001 
2.414292e-001 
2.387629e-001 
2.377515e-001 
2.378583e-001 
2.353840e-001 
2.303886e-001 
2.232739e-001 
2.156458e-001 
2.100986e-001 
2.064116e-001 
2.026528e-001 
1.965590e-001 
1.885801e-001 
1.800869e-001 
1.724562e-001 
1.648818e-001 
1.584426e-001 
1.519882e-001 
1.446285e-001 
1.376704e-001 
1.313158e-001 
1.268035e-001 
1.227041e-001 
1.176224e-001 
1.121927e-001 
1.093781e-001 
1.067850e-001 
1.042694e-001 
1.030957e-001 
1.003745e-001 
9.697860e-002 
9.392857e-002 
9.147299e-002 
9.141233e-002 
9.104210e-002 
8.694190e-002 
8.303029e-002 
8.094496e-002 
7.906483e-002 
7.860616e-002 
7.625472e-002 
7.317624e-002 
6.978163e-002 
6.380355e-002 
5.837895e-002 
5.617438e-002 
5.431002e-002 
5.060874e-002 
4.537366e-002 
3.893980e-002 
3.487797e-002 
3.143101e-002 
2.684782e-002 
2.202092e-002 
1.758837e-002 
1.274896e-002 
7.319475e-003 
2.508813e-003 
-2.666325e-003 
-7.216834e-003 
-1.292693e-002 
-1.859592e-002 
-2.248742e-002 
-2.453479e-002 
-2.623486e-002 
-2.992792e-002 
-3.360841e-002 
-3.586540e-002 
-3.768762e-002 
-4.011903e-002 
-4.107884e-002 
-4.318910e-002 
-4.444119e-002 
-4.509674e-002 
-4.694218e-002 
-4.632452e-002 
-4.512687e-002 
-4.775934e-002 
-5.050757e-002 
-5.010611e-002 
-4.998530e-002 
-4.885283e-002 
-4.931361e-002 
-5.172135e-002 
-5.215900e-002 
-5.326744e-002 
-5.466698e-002 
-5.259584e-002 
-5.004483e-002 
-5.089566e-002 
-5.246332e-002 
-5.347831e-002 
-5.306738e-002 
-5.082628e-002 
-4.833779e-002 
-4.580293e-002 
-4.273910e-002 
-3.855404e-002 
-3.280576e-002 
-2.455744e-002 
-1.528712e-002 
-8.597018e-003 
-2.196677e-003 
4.946726e-003 
1.179232e-002 
1.934328e-002 
2.600636e-002 
3.021075e-002 
3.290613e-002 
3.421805e-002 
3.522427e-002 
3.866970e-002 
3.970143e-002 
3.628472e-002 
2.982270e-002 
2.153304e-002 
1.393650e-002 
7.287461e-003 
7.896276e-004 
-5.804545e-003 
-1.398370e-002 
-2.598491e-002 
-3.741663e-002 
-4.698830e-002 
-5.498533e-002 
-6.168072e-002 
-6.869691e-002 
-7.491238e-002 
-8.073811e-002 
-8.807343e-002 
-9.460877e-002 
-9.858904e-002 
-1.027259e-001 
-1.058130e-001 
-1.086741e-001 
-1.107127e-001 
-1.124098e-001 
-1.164987e-001 
-1.206772e-001 
-1.218106e-001 
-1.220913e-001 
-1.224792e-001 
-1.226550e-001 
-1.232713e-001 
-1.229159e-001 
-1.240851e-001 
-1.251183e-001 
-1.239753e-001 
-1.236054e-001 
-1.254421e-001 
-1.278019e-001 
-1.293056e-001 
-1.288180e-001 
-1.284941e-001 
-1.308152e-001 
-1.333308e-001 
-1.366948e-001 
-1.407563e-001 
-1.438422e-001 
-1.459214e-001 
-1.478997e-001 
-1.525658e-001 
-1.622406e-001 
-1.757173e-001 
-1.932118e-001 
-2.156771e-001 
-2.447032e-001 
-2.819258e-001 
-3.229372e-001 
-3.648439e-001 
-4.051193e-001 
-4.403494e-001 
-4.726730e-001 
-5.049743e-001 
-5.370435e-001 
-5.685714e-001 
-5.948271e-001 
-6.112302e-001 
-6.202848e-001 
-6.209136e-001 
-6.138155e-001 
-6.031343e-001 
-5.890539e-001 
-5.674294e-001 
-5.357032e-001 
-4.943247e-001 
-4.472305e-001 
-3.983640e-001 
-3.479598e-001 
-3.008309e-001 
-2.597848e-001 
-2.229226e-001 
-1.863094e-001 
-1.494513e-001 
-1.143911e-001 
-8.385840e-002 
-5.684813e-002 
-3.312539e-002 
-1.310644e-002 
4.371107e-003 
1.966666e-002 
3.326269e-002 
4.434510e-002 
5.113261e-002 
5.527789e-002 
5.992798e-002 
6.470336e-002 
6.908368e-002 
7.036235e-002 
6.834914e-002 
6.452645e-002 
6.118531e-002 
5.964213e-002 
5.946242e-002 
5.931613e-002 
5.906688e-002 
5.814761e-002 
5.717343e-002 
5.720702e-002 
5.926582e-002 
6.217019e-002 
6.261624e-002 
6.165977e-002 
6.215342e-002 
6.437582e-002 
6.732740e-002 
6.898044e-002 
6.883973e-002 
6.951319e-002 
6.954497e-002 
6.942169e-002 
7.277632e-002 
7.694287e-002 
7.787466e-002 
7.750818e-002 
7.652278e-002 
7.780725e-002 
8.190794e-002 
8.410628e-002 
8.667428e-002 
9.097213e-002 
9.302355e-002 
9.474123e-002 
9.841800e-002 
1.021979e-001 
1.062081e-001 
1.085773e-001 
1.100786e-001 
1.140947e-001 
1.185933e-001 
1.219421e-001 
1.242895e-001 
1.259526e-001 
1.273923e-001 
1.287180e-001 
1.302124e-001 
1.325215e-001 
1.341395e-001 
1.351057e-001 
1.356918e-001 
1.368259e-001 
1.394166e-001 
1.409038e-001 
1.408315e-001 
1.410662e-001 
1.413348e-001 
1.413474e-001 
1.419347e-001 
1.418381e-001 
1.409217e-001 
1.376228e-001 
1.331799e-001 
1.301613e-001 
1.287068e-001 
1.261201e-001 
1.229475e-001 
1.191711e-001 
1.149200e-001 
1.099794e-001 
1.039915e-001 
9.909933e-002 
9.473905e-002 
9.042261e-002 
8.720805e-002 
8.527341e-002 
8.199861e-002 
7.833071e-002 
7.349128e-002 
6.884472e-002 
6.602683e-002 
6.452468e-002 
6.458555e-002 
6.462486e-002 
6.258797e-002 
5.857024e-002 
5.570004e-002 
5.425291e-002 
5.383247e-002 
5.326375e-002 
5.235788e-002 
5.129939e-002 
5.031072e-002 
4.894909e-002 
4.764454e-002 
4.726532e-002 
4.619034e-002 
4.362568e-002 
4.172426e-002 
4.166935e-002 
4.247292e-002 
4.265398e-002 
3.967357e-002 
3.667610e-002 
3.509058e-002 
3.335981e-002 
3.157950e-002 
3.115557e-002 
2.867296e-002 
2.651672e-002 
2.418838e-002 
2.067038e-002 
2.042369e-002 
1.953753e-002 
1.577146e-002 
1.176916e-002 
8.373759e-003 
4.729945e-003 
4.672480e-003 
2.741486e-003 
-2.953634e-004 
-2.613039e-003 
-6.835136e-003 
-1.102505e-002 
-1.344977e-002 
-1.490407e-002 
-1.683833e-002 
-1.824002e-002 
-2.050663e-002 
-2.197332e-002 
-2.372101e-002 
-2.568734e-002 
-2.818679e-002 
-3.004426e-002 
-3.039389e-002 
-3.036611e-002 
-2.979757e-002 
-3.014010e-002 
-3.183195e-002 
-3.395209e-002 
-3.550417e-002 
-3.655204e-002 
-3.602259e-002 
-3.506373e-002 
-3.611619e-002 
-3.764932e-002 
-3.840587e-002 
-3.867129e-002 
-3.849455e-002 
-3.883654e-002 
-3.979806e-002 
-4.080850e-002 
-4.148052e-002 
-4.133740e-002 
-3.971446e-002 
-3.838182e-002 
-3.875071e-002 
-3.993262e-002 
-4.081595e-002 
-4.005715e-002 
-3.788659e-002 
-3.407791e-002 
-3.020817e-002 
-2.516037e-002 
-1.779083e-002 
-9.897134e-003 
-5.185711e-004 
8.419982e-003 
1.578746e-002 
2.373750e-002 
3.378923e-002 
4.419575e-002 
5.431263e-002 
6.142126e-002 
6.441356e-002 
6.615758e-002 
6.700773e-002 
6.952561e-002 
7.394996e-002 
7.570469e-002 
7.141969e-002 
6.285755e-002 
5.326735e-002 
4.470042e-002 
3.793677e-002 
3.160878e-002 
2.500729e-002 
1.664340e-002 
6.032955e-003 
-3.212222e-003 
-9.520600e-003 
-1.339669e-002 
-1.777190e-002 
-2.415192e-002 
-3.112941e-002 
-3.749342e-002 
-4.343996e-002 
-4.877274e-002 
-5.291117e-002 
-5.698068e-002 
-6.017114e-002 
-6.444534e-002 
-6.783010e-002 
-6.973629e-002 
-7.294177e-002 
-7.667083e-002 
-7.884089e-002 
-7.887267e-002 
-7.869476e-002 
-7.961341e-002 
-8.171095e-002 
-8.151053e-002 
-8.108332e-002 
-7.980070e-002 
-7.593666e-002 
-7.208830e-002 
-7.110452e-002 
-7.315692e-002 
-7.468700e-002 
-7.499446e-002 
-7.621635e-002 
-7.957691e-002 
-8.321105e-002 
-8.792666e-002 
-9.405087e-002 
-1.016089e-001 
-1.108308e-001 
-1.241726e-001 
-1.476701e-001 
-1.803318e-001 
-2.182639e-001 
-2.627893e-001 
-3.113808e-001 
-3.605178e-001 
-4.096090e-001 
-4.564900e-001 
-5.000193e-001 
-5.422527e-001 
-5.806616e-001 
-6.158127e-001 
-6.467413e-001 
-6.676196e-001 
-6.782913e-001 
-6.796509e-001 
-6.717590e-001 
-6.561972e-001 
-6.381411e-001 
-6.122974e-001 
-5.739340e-001 
-5.236803e-001 
-4.659725e-001 
-4.063657e-001 
-3.489010e-001 
-2.952571e-001 
-2.447239e-001 
-1.980175e-001 
-1.506138e-001 
-1.044923e-001 
-6.295962e-002 
-2.702288e-002 
5.130843e-003 
3.451102e-002 
6.098366e-002 
8.434233e-002 
1.018224e-001 
1.163648e-001 
1.294454e-001 
1.413240e-001 
1.501873e-001 
1.581041e-001 
1.645343e-001 
1.677030e-001 
1.701256e-001 
1.725146e-001 
1.752623e-001 
1.765788e-001 
1.753527e-001 
1.733619e-001 
1.737807e-001 
1.744519e-001 
1.752191e-001 
1.779762e-001 
1.800133e-001 
1.806449e-001 
1.811514e-001 
1.821595e-001 
1.847361e-001 
1.860339e-001 
1.846729e-001 
1.829995e-001 
1.827824e-001 
1.834166e-001 
1.847943e-001 
1.853066e-001 
1.849679e-001 
1.848524e-001 
1.835290e-001 
1.829602e-001 
1.835668e-001 
1.847785e-001 
1.844394e-001 
1.830120e-001 
1.829796e-001 
1.844748e-001 
1.862607e-001 
1.866757e-001 
1.860669e-001 
1.864621e-001 
1.876889e-001 
1.894578e-001 
1.941968e-001 
1.984452e-001 
1.989661e-001 
1.989133e-001 
1.997088e-001 
2.026209e-001 
2.063656e-001 
2.087824e-001 
2.115755e-001 
2.142283e-001 
2.150909e-001 
2.151583e-001 
2.177992e-001 
2.215980e-001 
2.231141e-001 
2.226488e-001 
2.236801e-001 
2.257973e-001 
2.274607e-001 
2.276966e-001 
2.262894e-001 
2.265365e-001 
2.267956e-001 
2.255906e-001 
2.257130e-001 
2.257148e-001 
2.229545e-001 
2.193476e-001 
2.167190e-001 
2.142374e-001 
2.118275e-001 
2.077507e-001 
2.011357e-001 
1.936470e-001 
1.860392e-001 
1.790429e-001 
1.743527e-001 
1.693730e-001 
1.604913e-001 
1.509703e-001 
1.413786e-001 
1.316846e-001 
1.236083e-001 
1.168058e-001 
1.103202e-001 
1.043979e-001 
9.767499e-002 
9.088557e-002 
8.644331e-002 
8.118965e-002 
7.460654e-002 
6.946264e-002 
6.635158e-002 
6.417200e-002 
6.300166e-002 
6.023214e-002 
5.679332e-002 
5.454756e-002 
5.198026e-002 
5.174699e-002 
5.408621e-002 
5.557239e-002 
5.458969e-002 
5.326063e-002 
5.070659e-002 
4.974359e-002 
5.102385e-002 
5.174653e-002 
5.240725e-002 
5.301275e-002 
5.256688e-002 
5.261193e-002 
5.380039e-002 
5.314421e-002 
5.124577e-002 
4.866879e-002 
4.605318e-002 
4.439698e-002 
4.306616e-002 
4.101861e-002 
3.806454e-002 
3.459876e-002 
3.005574e-002 
2.557823e-002 
2.380435e-002 
2.221775e-002 
1.802586e-002 
1.352252e-002 
9.278196e-003 
5.424075e-003 
3.616854e-003 
9.789198e-004 
-2.510863e-003 
-4.395565e-003 
-7.070744e-003 
-9.055241e-003 
-8.561436e-003 
-9.169452e-003 
-1.077054e-002 
-1.241614e-002 
-1.531445e-002 
-1.618506e-002 
-1.407292e-002 
-1.275063e-002 
-1.201760e-002 
-1.200674e-002 
-1.302870e-002 
-1.261503e-002 
-1.149156e-002 
-1.064148e-002 
-1.008229e-002 
-9.751178e-003 
-9.651000e-003 
-8.803643e-003 
-7.563365e-003 
-6.436471e-003 
-6.581097e-003 
-7.737618e-003 
-8.999877e-003 
-1.019617e-002 
-8.276566e-003 
-5.158923e-003 
-2.273827e-003 
1.417393e-003 
7.075443e-003 
1.442426e-002 
2.407223e-002 
3.356693e-002 
4.294085e-002 
5.283362e-002 
6.290522e-002 
7.299493e-002 
8.283135e-002 
9.097749e-002 
9.538146e-002 
9.865408e-002 
1.023857e-001 
1.067357e-001 
1.114364e-001 
1.142295e-001 
1.101459e-001 
1.005775e-001 
8.918607e-002 
7.977969e-002 
7.446034e-002 
6.966989e-002 
6.165366e-002 
5.104654e-002 
3.816228e-002 
2.419137e-002 
1.429654e-002 
9.646557e-003 
6.520868e-003 
3.046368e-003 
-3.130809e-003 
-1.168159e-002 
-1.927350e-002 
-2.576577e-002 
-3.180821e-002 
-3.480069e-002 
-3.570778e-002 
-3.739478e-002 
-3.842581e-002 
-4.173239e-002 
-4.651644e-002 
-4.972620e-002 
-5.212017e-002 
-5.347104e-002 
-5.158962e-002 
-4.872314e-002 
-4.774815e-002 
-4.811799e-002 
-4.969451e-002 
-5.030130e-002 
-4.973717e-002 
-4.999991e-002 
-5.257724e-002 
-5.453346e-002 
-5.677605e-002 
-6.062609e-002 
-6.412724e-002 
-6.695953e-002 
-7.166094e-002 
-7.744533e-002 
-8.421760e-002 
-9.270185e-002 
-1.038600e-001 
-1.233309e-001 
-1.534378e-001 
-1.914688e-001 
-2.354891e-001 
-2.826698e-001 
-3.254858e-001 
-3.630848e-001 
-3.980867e-001 
-4.344320e-001 
-4.728176e-001 
-5.088531e-001 
-5.383821e-001 
-5.614102e-001 
-5.761919e-001 
-5.791486e-001 
-5.730486e-001 
-5.634742e-001 
-5.510370e-001 
-5.309081e-001 
-5.000680e-001 
-4.586574e-001 
-4.097881e-001 
-3.552946e-001 
-2.971352e-001 
-2.427081e-001 
-1.951260e-001 
-1.520424e-001 
-1.128024e-001 
-7.632295e-002 
-4.184762e-002 
-1.136562e-002 
1.518882e-002 
3.920514e-002 
6.097934e-002 
8.003120e-002 
9.381563e-002 
1.035039e-001 
1.118517e-001 
1.190709e-001 
1.254625e-001 
1.308138e-001 
1.373563e-001 
1.436186e-001 
1.441307e-001 
1.419814e-001 
1.412376e-001 
1.413916e-001 
1.432594e-001 
1.455422e-001 
1.467462e-001 
1.491836e-001 
1.490199e-001 
1.473875e-001 
1.489985e-001 
1.505868e-001 
1.498971e-001 
1.502261e-001 
1.521096e-001 
1.536847e-001 
1.554790e-001 
1.561897e-001 
1.568192e-001 
1.583258e-001 
1.590569e-001 
1.601528e-001 
1.645682e-001 
1.681533e-001 
1.693752e-001 
1.718172e-001 
1.735107e-001 
1.754823e-001 
1.799323e-001 
1.834814e-001 
1.857939e-001 
1.884385e-001 
1.903663e-001 
1.934109e-001 
1.971883e-001 
1.991016e-001 
2.015554e-001 
2.039278e-001 
2.054009e-001 
2.080777e-001 
2.114770e-001 
2.141795e-001 
2.155803e-001 
2.146675e-001 
2.144982e-001 
2.157230e-001 
2.170413e-001 
2.192779e-001 
2.201515e-001 
2.197978e-001 
2.197391e-001 
2.188270e-001 
2.187168e-001 
2.200946e-001 
2.184721e-001 
2.171146e-001 
2.171247e-001 
2.155684e-001 
2.144409e-001 
2.128738e-001 
2.093072e-001 
2.062596e-001 
2.029647e-001 
1.988942e-001 
1.978316e-001 
1.945958e-001 
1.875852e-001 
1.811909e-001 
1.752993e-001 
1.699193e-001 
1.660422e-001 
1.623133e-001 
1.570438e-001 
1.514012e-001 
1.439607e-001 
1.380034e-001 
1.347113e-001 
1.307037e-001 
1.248748e-001 
1.198724e-001 
1.161540e-001 
1.127660e-001 
1.094786e-001 
1.060221e-001 
1.026653e-001 
9.782719e-002 
9.311756e-002 
9.009771e-002 
8.972846e-002 
8.845658e-002 
8.403809e-002 
7.967386e-002 
7.827798e-002 
7.744465e-002 
7.661348e-002 
7.703929e-002 
7.633420e-002 
7.440450e-002 
7.198524e-002 
7.058786e-002 
7.239412e-002 
7.369759e-002 
7.113264e-002 
6.909713e-002 
6.772815e-002 
6.634323e-002 
6.728752e-002 
6.720679e-002 
6.567370e-002 
6.349306e-002 
5.950024e-002 
5.600992e-002 
5.456059e-002 
5.267457e-002 
5.047554e-002 
4.761872e-002 
4.351424e-002 
4.156894e-002 
4.014469e-002 
3.680461e-002 
3.237191e-002 
2.950556e-002 
2.795105e-002 
2.655878e-002 
2.561805e-002 
2.541914e-002 
2.341354e-002 
1.839757e-002 
1.360040e-002 
1.259898e-002 
1.477354e-002 
1.514276e-002 
1.276775e-002 
1.107334e-002 
9.576971e-003 
7.767291e-003 
6.628455e-003 
6.846684e-003 
7.492500e-003 
6.472444e-003 
4.049658e-003 
2.493699e-003 
2.969610e-003 
3.095959e-003 
1.537387e-003 
-1.848505e-003 
-3.169636e-003 
-2.826008e-003 
-2.798511e-003 
-2.460030e-003 
-3.006233e-003 
-4.621526e-003 
-5.613032e-003 
-6.354643e-003 
-4.262720e-003 
2.025626e-003 
7.650062e-003 
1.352707e-002 
2.014991e-002 
2.500208e-002 
3.055079e-002 
3.770960e-002 
4.387991e-002 
5.076993e-002 
5.765189e-002 
6.272927e-002 
6.747473e-002 
6.916369e-002 
6.827882e-002 
6.934401e-002 
7.110716e-002 
7.070973e-002 
6.889030e-002 
6.371961e-002 
5.556600e-002 
4.698044e-002 
3.810165e-002 
3.188515e-002 
2.769171e-002 
2.115415e-002 
1.095337e-002 
2.216943e-004 
-8.361010e-003 
-1.377965e-002 
-1.819834e-002 
-2.394670e-002 
-3.121100e-002 
-3.927245e-002 
-4.779051e-002 
-5.528243e-002 
-5.886487e-002 
-6.139578e-002 
-6.595085e-002 
-7.250164e-002 
-7.852008e-002 
-8.226075e-002 
-8.355897e-002 
-8.530945e-002 
-8.663732e-002 
-8.828907e-002 
-9.067715e-002 
-9.240062e-002 
-9.231593e-002 
-9.008582e-002 
-8.886137e-002 
-8.799976e-002 
-8.776156e-002 
-8.896829e-002 
-9.174384e-002 
-9.478029e-002 
-9.887152e-002 
-1.002444e-001 
-1.004342e-001 
-1.017980e-001 
-1.032240e-001 
-1.098642e-001 
-1.243711e-001 
-1.447215e-001 
-1.711910e-001 
-2.029623e-001 
-2.371556e-001 
-2.758880e-001 
-3.147731e-001 
-3.495747e-001 
-3.831006e-001 
-4.162912e-001 
-4.468477e-001 
-4.747880e-001 
-5.001020e-001 
-5.199232e-001 
-5.310860e-001 
-5.309541e-001 
-5.233556e-001 
-5.151383e-001 
-5.052911e-001 
-4.860538e-001 
-4.557645e-001 
-4.162372e-001 
-3.669461e-001 
-3.122998e-001 
-2.586258e-001 
-2.106818e-001 
-1.698909e-001 
-1.315605e-001 
-9.231313e-002 
-5.567965e-002 
-2.499187e-002 
1.885106e-003 
2.597029e-002 
4.669176e-002 
6.382050e-002 
7.862304e-002 
9.157397e-002 
1.021697e-001 
1.102571e-001 
1.141563e-001 
1.174407e-001 
1.200171e-001 
1.204213e-001 
1.216423e-001 
1.236123e-001 
1.238757e-001 
1.241062e-001 
1.236852e-001 
1.211735e-001 
1.203853e-001 
1.211220e-001 
1.238705e-001 
1.266296e-001 
1.268797e-001 
1.247617e-001 
1.217891e-001 
1.188347e-001 
1.178071e-001 
1.189615e-001 
1.200090e-001 
1.194743e-001 
1.170114e-001 
1.145290e-001 
1.120056e-001 
1.105602e-001 
1.104870e-001 
1.100954e-001 
1.087797e-001 
1.081827e-001 
1.088347e-001 
1.095996e-001 
1.093186e-001 
1.085828e-001 
1.086849e-001 
1.094207e-001 
1.111875e-001 
1.143731e-001 
1.183626e-001 
1.203058e-001 
1.205025e-001 
1.212597e-001 
1.228388e-001 
1.253886e-001 
1.283387e-001 
1.307829e-001 
1.330098e-001 
1.344065e-001 
1.352383e-001 
1.361836e-001 
1.351569e-001 
1.333864e-001 
1.336464e-001 
1.348836e-001 
1.365327e-001 
1.365037e-001 
1.339255e-001 
1.297962e-001 
1.235476e-001 
1.183824e-001 
1.170544e-001 
1.171216e-001 
1.146188e-001 
1.080619e-001 
9.906550e-002 
9.268339e-002 
8.701882e-002 
8.253729e-002 
7.964730e-002 
7.480238e-002 
6.858523e-002 
6.065258e-002 
5.294807e-002 
4.886846e-002 
4.573250e-002 
4.054548e-002 
3.691487e-002 
3.305653e-002 
2.990901e-002 
2.801921e-002 
2.522141e-002 
2.212024e-002 
1.882076e-002 
1.585010e-002 
1.497230e-002 
1.493315e-002 
1.403668e-002 
1.265159e-002 
9.868580e-003 
8.969910e-003 
9.137928e-003 
9.996328e-003 
1.244166e-002 
1.333506e-002 
1.218031e-002 
1.242349e-002 
1.249185e-002 
1.308944e-002 
1.482783e-002 
1.378187e-002 
1.305795e-002 
1.311850e-002 
1.255191e-002 
1.239334e-002 
1.212279e-002 
8.425920e-003 
3.808279e-003 
7.882902e-004 
-8.668233e-004 
-2.299696e-003 
-4.608846e-003 
-7.799867e-003 
-1.280845e-002 
-1.814091e-002 
-2.331370e-002 
-2.568895e-002 
-2.522769e-002 
-2.739213e-002 
-3.164310e-002 
-3.403086e-002 
-3.705248e-002 
-4.096692e-002 
-4.284932e-002 
-4.360400e-002 
-4.342568e-002 
-4.337239e-002 
-4.540251e-002 
-4.682757e-002 
-4.816286e-002 
-5.095307e-002 
-5.328628e-002 
-5.179985e-002 
-4.953751e-002 
-4.825052e-002 
-4.789121e-002 
-4.962073e-002 
-5.105457e-002 
-5.083302e-002 
-5.020434e-002 
-4.859626e-002 
-4.587752e-002 
-4.644793e-002 
-4.786312e-002 
-4.892884e-002 
-4.891717e-002 
-4.653971e-002 
-4.427450e-002 
-4.317123e-002 
-4.027373e-002 
-3.600009e-002 
-3.030213e-002 
-2.150140e-002 
-1.246551e-002 
-3.477346e-003 
5.516450e-003 
1.496253e-002 
2.569311e-002 
3.829726e-002 
4.862552e-002 
5.659352e-002 
6.264502e-002 
6.671199e-002 
6.972407e-002 
7.322602e-002 
7.633944e-002 
7.575595e-002 
7.219053e-002 
6.501572e-002 
5.743218e-002 
5.089146e-002 
4.359381e-002 
3.411444e-002 
2.594831e-002 
1.597971e-002 
4.089242e-003 
-6.950955e-003 
-1.735096e-002 
-2.492411e-002 
-3.067620e-002 
-3.781219e-002 
-4.405904e-002 
-4.842698e-002 
-5.558389e-002 
-6.422528e-002 
-7.212739e-002 
-7.733025e-002 
-8.005038e-002 
-8.353392e-002 
-8.889236e-002 
-9.468635e-002 
-1.016718e-001 
-1.085777e-001 
-1.133349e-001 
-1.150180e-001 
-1.148369e-001 
-1.155997e-001 
-1.172652e-001 
-1.196602e-001 
-1.216688e-001 
-1.222355e-001 
-1.224583e-001 
-1.247501e-001 
-1.273026e-001 
-1.294616e-001 
-1.319121e-001 
-1.346035e-001 
-1.386369e-001 
-1.440169e-001 
-1.506734e-001 
-1.605230e-001 
-1.739446e-001 
-1.903931e-001 
-2.146047e-001 
-2.498638e-001 
-2.957820e-001 
-3.469249e-001 
-3.978369e-001 
-4.461130e-001 
-4.900957e-001 
-5.299287e-001 
-5.698444e-001 
-6.105882e-001 
-6.489835e-001 
-6.792467e-001 
-6.982075e-001 
-7.075155e-001 
-7.060420e-001 
-6.934588e-001 
-6.767825e-001 
-6.577880e-001 
-6.290852e-001 
-5.891431e-001 
-5.396181e-001 
-4.818021e-001 
-4.179662e-001 
-3.518868e-001 
-2.899536e-001 
-2.382451e-001 
-1.906792e-001 
-1.437075e-001 
-1.016917e-001 
-6.329925e-002 
-2.741128e-002 
3.246272e-003 
3.015099e-002 
5.232901e-002 
6.888188e-002 
8.497887e-002 
9.861652e-002 
1.072482e-001 
1.144038e-001 
1.207219e-001 
1.272823e-001 
1.337247e-001 
1.354118e-001 
1.341983e-001 
1.332418e-001 
1.310437e-001 
1.286572e-001 
1.306739e-001 
1.339279e-001 
1.359047e-001 
1.360309e-001 
1.346240e-001 
1.342369e-001 
1.357285e-001 
1.367015e-001 
1.379220e-001 
1.402015e-001 
1.399196e-001 
1.415167e-001 
1.432699e-001 
1.427482e-001 
1.423784e-001 
1.432790e-001 
1.438640e-001 
1.457225e-001 
1.472401e-001 
1.484610e-001 
1.503949e-001 
