62
0.8173
1.2060e+003
0.7753
-1.053920e-003 
-2.797558e-003 
-4.426082e-003 
-6.083878e-003 
-7.723196e-003 
-9.344129e-003 
-1.099437e-002 
-1.252997e-002 
-1.538230e-002 
-1.874521e-002 
-2.066597e-002 
-2.126318e-002 
-2.064041e-002 
-1.967780e-002 
-1.847394e-002 
-1.665072e-002 
-1.578963e-002 
-1.668139e-002 
-1.633908e-002 
-1.544537e-002 
-1.412106e-002 
-1.360043e-002 
-1.400524e-002 
-1.307257e-002 
-1.172412e-002 
-1.231323e-002 
-1.221251e-002 
-1.162023e-002 
-1.314397e-002 
-1.537037e-002 
-1.876748e-002 
-2.184178e-002 
-2.509631e-002 
-2.933472e-002 
-3.304505e-002 
-3.521125e-002 
-3.822621e-002 
-3.947882e-002 
-3.768642e-002 
-3.541863e-002 
-3.349835e-002 
-3.258078e-002 
-3.250271e-002 
-3.416953e-002 
-3.567095e-002 
-3.671793e-002 
-3.550801e-002 
-3.245136e-002 
-2.972013e-002 
-2.702619e-002 
-2.468777e-002 
-2.353770e-002 
-2.249457e-002 
-2.041537e-002 
-2.111723e-002 
-2.056671e-002 
-1.961135e-002 
-2.055853e-002 
-2.201260e-002 
-2.318528e-002 
-2.368836e-002 
-2.204577e-002 
-1.997899e-002 
-1.904164e-002 
-1.698857e-002 
-1.686069e-002 
-1.898775e-002 
-2.204045e-002 
-2.564002e-002 
-2.915985e-002 
-3.130388e-002 
-3.333075e-002 
-3.469008e-002 
-3.637124e-002 
-3.790565e-002 
-3.981886e-002 
-4.305767e-002 
-4.856328e-002 
-5.445059e-002 
-5.997155e-002 
-6.537908e-002 
-7.182934e-002 
-7.805678e-002 
-8.031537e-002 
-8.098796e-002 
-8.069399e-002 
-7.911875e-002 
-7.419473e-002 
-6.796754e-002 
-6.413444e-002 
-6.238294e-002 
-5.939088e-002 
-5.663991e-002 
-5.373995e-002 
-5.012372e-002 
-4.559789e-002 
-3.890427e-002 
-3.298915e-002 
-2.770884e-002 
-2.223663e-002 
-1.801133e-002 
-1.447788e-002 
-1.145796e-002 
-1.195110e-002 
-1.387952e-002 
-1.672962e-002 
-1.953575e-002 
-2.174570e-002 
-2.334904e-002 
-2.101689e-002 
-1.655649e-002 
-1.342573e-002 
-1.059147e-002 
-7.263349e-003 
-5.166783e-003 
-3.652071e-003 
-2.956554e-003 
-1.576784e-003 
6.720975e-004 
1.345296e-003 
1.335926e-003 
4.307923e-004 
-2.772110e-003 
-8.434459e-003 
-1.661328e-002 
-2.759710e-002 
-4.197403e-002 
-5.899079e-002 
-7.949693e-002 
-1.036425e-001 
-1.280481e-001 
-1.472640e-001 
-1.584207e-001 
-1.594464e-001 
-1.483151e-001 
-1.275187e-001 
-1.014102e-001 
-7.666513e-002 
-5.562385e-002 
-3.636693e-002 
-1.710210e-002 
4.417525e-003 
3.037883e-002 
5.934963e-002 
8.547732e-002 
1.053798e-001 
1.190857e-001 
1.276243e-001 
1.327592e-001 
1.366747e-001 
1.388071e-001 
1.346053e-001 
1.203162e-001 
9.532794e-002 
6.608067e-002 
3.743211e-002 
1.164156e-002 
-6.656346e-003 
-1.586421e-002 
-1.945162e-002 
-2.109526e-002 
-2.286415e-002 
-2.490484e-002 
-2.633019e-002 
-2.976807e-002 
-3.465210e-002 
-3.735440e-002 
-3.842284e-002 
-3.903436e-002 
-3.904747e-002 
-3.946151e-002 
-3.965069e-002 
-4.036954e-002 
-4.215024e-002 
-4.380108e-002 
-4.493315e-002 
-4.720918e-002 
-4.995618e-002 
-5.290510e-002 
-5.498377e-002 
-5.568241e-002 
-5.587667e-002 
-5.467419e-002 
-5.374691e-002 
-5.345224e-002 
-5.436578e-002 
-5.751719e-002 
-6.077245e-002 
-6.319881e-002 
-6.710720e-002 
-7.024319e-002 
-7.175686e-002 
-7.394870e-002 
-7.548140e-002 
-7.728025e-002 
-7.859535e-002 
-7.839858e-002 
-8.018898e-002 
-8.403477e-002 
-8.700876e-002 
-9.048100e-002 
-9.512949e-002 
-9.873245e-002 
-1.008708e-001 
-1.012944e-001 
-1.011554e-001 
-1.014995e-001 
-1.005317e-001 
-9.794285e-002 
-9.645667e-002 
-9.649289e-002 
-9.730464e-002 
-9.824211e-002 
-9.867394e-002 
-9.922970e-002 
-9.940652e-002 
-9.801338e-002 
-9.574092e-002 
-9.433069e-002 
-9.508208e-002 
-9.617819e-002 
-9.581097e-002 
-9.564169e-002 
-9.696996e-002 
-1.003245e-001 
-1.043373e-001 
-1.079230e-001 
-1.116597e-001 
-1.150578e-001 
-1.153692e-001 
-1.142825e-001 
-1.140803e-001 
-1.155084e-001 
-1.189331e-001 
-1.219598e-001 
-1.238511e-001 
-1.260176e-001 
-1.287063e-001 
-1.300628e-001 
-1.313032e-001 
-1.312400e-001 
-1.307051e-001 
-1.297286e-001 
-1.256514e-001 
-1.209655e-001 
-1.185748e-001 
-1.172030e-001 
-1.155757e-001 
-1.137393e-001 
-1.103768e-001 
-1.070742e-001 
-1.021485e-001 
-9.371287e-002 
-8.576744e-002 
-7.851541e-002 
-7.118094e-002 
-6.351232e-002 
-5.572932e-002 
-4.850025e-002 
-4.363231e-002 
-4.012901e-002 
-3.662313e-002 
-3.509483e-002 
-3.352579e-002 
-2.987706e-002 
-2.460493e-002 
-1.956510e-002 
-1.563710e-002 
-1.481872e-002 
-1.533051e-002 
-1.509760e-002 
-1.602919e-002 
-1.702840e-002 
-1.848969e-002 
-1.957789e-002 
-2.030718e-002 
-2.081502e-002 
-2.140726e-002 
-1.927683e-002 
-1.481556e-002 
-1.258901e-002 
-1.213045e-002 
-1.189095e-002 
-1.160770e-002 
-1.352812e-002 
-1.605429e-002 
-1.848155e-002 
-1.906625e-002 
-1.996708e-002 
-2.158585e-002 
-2.181238e-002 
-2.170013e-002 
-2.325786e-002 
-2.603689e-002 
-2.961867e-002 
-3.411043e-002 
-3.843903e-002 
-4.262738e-002 
-4.582267e-002 
-4.860578e-002 
-5.106839e-002 
-5.242182e-002 
-5.192316e-002 
-5.133985e-002 
-5.041288e-002 
-4.823542e-002 
-4.660736e-002 
-4.692051e-002 
-4.848741e-002 
-4.974801e-002 
-4.868286e-002 
-4.585476e-002 
-4.388364e-002 
-4.040188e-002 
-3.548471e-002 
-3.241282e-002 
-2.949130e-002 
-2.600749e-002 
-2.200877e-002 
-1.927564e-002 
-1.864120e-002 
-1.883149e-002 
-1.781982e-002 
-1.705417e-002 
-1.586281e-002 
-1.223487e-002 
-8.102922e-003 
-6.352981e-003 
-6.404308e-003 
-5.658720e-003 
-5.753569e-003 
-7.378417e-003 
-1.087659e-002 
-1.482046e-002 
-1.865129e-002 
-2.399320e-002 
-2.953802e-002 
-3.174485e-002 
-3.402971e-002 
-3.721567e-002 
-4.153703e-002 
-4.663184e-002 
-5.208516e-002 
-5.821621e-002 
-6.499001e-002 
-6.952636e-002 
-7.180760e-002 
-7.379395e-002 
-7.234598e-002 
-6.887487e-002 
-6.405269e-002 
-5.953782e-002 
-5.511599e-002 
-4.997602e-002 
-4.396489e-002 
-3.970567e-002 
-3.654978e-002 
-3.157342e-002 
-2.715286e-002 
-2.359734e-002 
-2.040449e-002 
-1.570935e-002 
-9.715444e-003 
-5.097491e-003 
-2.188312e-003 
2.701105e-004 
1.600531e-003 
2.069419e-004 
-2.727410e-003 
-5.737713e-003 
-6.973164e-003 
-7.222837e-003 
-5.298493e-003 
-6.062150e-004 
4.148736e-003 
8.077220e-003 
1.099469e-002 
1.154041e-002 
1.069797e-002 
7.159197e-003 
4.988122e-004 
-8.178445e-003 
-1.888344e-002 
-3.160927e-002 
-4.560414e-002 
-6.134061e-002 
-7.896697e-002 
-9.751558e-002 
-1.180440e-001 
-1.377907e-001 
-1.545052e-001 
-1.646734e-001 
-1.673152e-001 
-1.609067e-001 
-1.444970e-001 
-1.187495e-001 
-8.749475e-002 
-5.626939e-002 
-2.606894e-002 
3.914219e-003 
3.360462e-002 
6.317770e-002 
9.380944e-002 
1.226568e-001 
1.467628e-001 
1.622783e-001 
1.689651e-001 
1.723230e-001 
1.738149e-001 
1.730321e-001 
1.706569e-001 
1.614665e-001 
1.417769e-001 
1.142091e-001 
8.247764e-002 
5.168779e-002 
2.673778e-002 
9.611077e-003 
1.727475e-004 
-4.021732e-003 
-7.716935e-003 
-1.161646e-002 
-1.319583e-002 
-1.405683e-002 
-1.606455e-002 
-1.677086e-002 
-1.703190e-002 
-1.867287e-002 
-2.083203e-002 
-2.473380e-002 
-2.764599e-002 
-2.714702e-002 
-2.758026e-002 
-2.667029e-002 
-2.389190e-002 
-2.249508e-002 
-2.127587e-002 
-1.957792e-002 
-2.011764e-002 
-2.089012e-002 
-2.217036e-002 
-2.455861e-002 
-2.521457e-002 
-2.601433e-002 
-2.649518e-002 
-2.457772e-002 
-2.306430e-002 
-2.501886e-002 
-2.708045e-002 
-2.864704e-002 
-3.106181e-002 
-3.409204e-002 
-3.797888e-002 
-4.231936e-002 
-4.648318e-002 
-5.162368e-002 
-5.718960e-002 
-5.928181e-002 
-5.856001e-002 
-5.921504e-002 
-6.030096e-002 
-6.244315e-002 
-6.683273e-002 
-7.081682e-002 
-7.470184e-002 
-7.830025e-002 
-7.818994e-002 
-7.854503e-002 
-7.994996e-002 
-7.914348e-002 
-7.829888e-002 
-7.693327e-002 
-7.410127e-002 
-7.266199e-002 
-7.262327e-002 
-7.340928e-002 
-7.684772e-002 
-7.904697e-002 
-8.065862e-002 
-8.254755e-002 
-8.335855e-002 
-8.347861e-002 
-8.362855e-002 
-8.373889e-002 
-8.289196e-002 
-8.278703e-002 
-8.408691e-002 
-8.881361e-002 
-9.412939e-002 
-9.867575e-002 
-1.018642e-001 
-1.034560e-001 
-1.040038e-001 
-1.041832e-001 
-1.052870e-001 
-1.068642e-001 
-1.088118e-001 
-1.088878e-001 
-1.092318e-001 
-1.092087e-001 
-1.096354e-001 
-1.118976e-001 
-1.136666e-001 
-1.134633e-001 
-1.108863e-001 
-1.061596e-001 
-9.896688e-002 
-9.117170e-002 
-8.418746e-002 
-7.859919e-002 
-7.394280e-002 
-6.998541e-002 
-6.499877e-002 
-6.012675e-002 
-5.602487e-002 
-5.072140e-002 
-4.618585e-002 
-4.198205e-002 
-3.594476e-002 
-3.156409e-002 
-2.795440e-002 
-2.281882e-002 
-2.110088e-002 
-2.038685e-002 
-2.067658e-002 
-2.241844e-002 
-2.220086e-002 
-2.103779e-002 
-2.100836e-002 
-1.887888e-002 
-1.522668e-002 
-1.264087e-002 
-1.018400e-002 
-1.011582e-002 
-9.148085e-003 
-7.368928e-003 
-7.070038e-003 
-8.588853e-003 
-9.597779e-003 
-9.252583e-003 
-9.259786e-003 
-8.575532e-003 
-7.250660e-003 
-3.859244e-003 
-1.335609e-003 
-1.725439e-003 
-4.645790e-003 
-6.563110e-003 
-8.083511e-003 
-1.057631e-002 
-1.329754e-002 
-1.631594e-002 
-1.795362e-002 
-1.947258e-002 
-2.210220e-002 
-2.430261e-002 
-2.386144e-002 
-2.395431e-002 
-2.622112e-002 
-2.916298e-002 
-3.165013e-002 
-3.405727e-002 
-3.663232e-002 
-3.917190e-002 
-3.973599e-002 
-3.834574e-002 
-3.736334e-002 
-3.602490e-002 
-3.375276e-002 
-3.215242e-002 
-3.148493e-002 
-3.178855e-002 
-3.254053e-002 
-3.328945e-002 
-3.325612e-002 
-3.263487e-002 
-3.170337e-002 
-2.927228e-002 
-2.502976e-002 
-2.095279e-002 
-1.873805e-002 
-1.640137e-002 
-1.376555e-002 
-1.223702e-002 
-1.257379e-002 
-1.206554e-002 
-1.103339e-002 
-1.000695e-002 
-9.881054e-003 
-1.042297e-002 
-8.300132e-003 
-6.574691e-003 
-7.547953e-003 
-9.196747e-003 
-1.093660e-002 
-1.477618e-002 
-1.970005e-002 
-2.666904e-002 
-3.317534e-002 
-3.698069e-002 
-4.217498e-002 
-4.767822e-002 
-5.092946e-002 
-5.338234e-002 
-5.668456e-002 
-5.954617e-002 
-6.094889e-002 
-5.995816e-002 
-5.955528e-002 
-5.968334e-002 
-5.686113e-002 
-5.327423e-002 
-4.987439e-002 
-4.462462e-002 
-3.622649e-002 
-2.721423e-002 
-2.004784e-002 
-1.498101e-002 
-9.380823e-003 
-4.964343e-003 
-3.361067e-003 
-1.251394e-003 
1.439751e-003 
4.553550e-003 
7.034123e-003 
8.019302e-003 
9.044841e-003 
1.067109e-002 
1.118856e-002 
1.111870e-002 
1.023672e-002 
9.889826e-003 
1.185514e-002 
1.348848e-002 
1.502618e-002 
1.857658e-002 
2.358156e-002 
2.875018e-002 
3.373112e-002 
3.807857e-002 
4.319022e-002 
4.536824e-002 
4.225646e-002 
3.587256e-002 
2.585459e-002 
1.249554e-002 
-2.586335e-003 
-1.953061e-002 
-3.843011e-002 
-5.795367e-002 
-7.978735e-002 
-1.002344e-001 
-1.170003e-001 
-1.275299e-001 
-1.285938e-001 
-1.187358e-001 
-1.005897e-001 
-7.770928e-002 
-5.282991e-002 
-2.945060e-002 
-5.881351e-003 
1.896571e-002 
4.717941e-002 
7.839409e-002 
1.108505e-001 
1.387500e-001 
1.585223e-001 
1.703667e-001 
1.767322e-001 
1.807406e-001 
1.829538e-001 
1.824877e-001 
1.759890e-001 
1.616626e-001 
1.385399e-001 
1.105229e-001 
8.223095e-002 
5.703436e-002 
3.628859e-002 
2.183897e-002 
1.245865e-002 
5.805436e-003 
1.419900e-003 
-1.343908e-003 
-2.365567e-003 
-3.584263e-003 
-4.292776e-003 
-3.920938e-003 
-3.412356e-003 
-3.260431e-003 
-4.006373e-003 
-5.291429e-003 
-6.435146e-003 
-8.536487e-003 
-1.028463e-002 
-1.001680e-002 
-1.064008e-002 
-1.065241e-002 
-8.307979e-003 
-5.801751e-003 
-3.636832e-003 
-2.933112e-003 
-3.034755e-003 
-3.190654e-003 
-5.892357e-003 
-1.047452e-002 
-1.234648e-002 
-1.243453e-002 
-1.253564e-002 
-1.298204e-002 
-1.201569e-002 
-1.036538e-002 
-1.172962e-002 
-1.529591e-002 
-1.753155e-002 
-1.872549e-002 
-2.149704e-002 
-2.592447e-002 
-3.077176e-002 
-3.484668e-002 
-3.984157e-002 
-4.426396e-002 
-4.483047e-002 
-4.338567e-002 
-4.425941e-002 
-4.734241e-002 
-5.134594e-002 
-5.651261e-002 
-6.225837e-002 
-6.768134e-002 
-7.073311e-002 
-7.201286e-002 
-7.400382e-002 
-7.602981e-002 
-7.674941e-002 
-7.621774e-002 
-7.549061e-002 
-7.558279e-002 
-7.686836e-002 
-7.881604e-002 
-8.222440e-002 
-8.636914e-002 
-9.054827e-002 
-9.415558e-002 
-9.596216e-002 
-9.678150e-002 
-9.752208e-002 
-9.826170e-002 
-9.936266e-002 
-1.014296e-001 
-1.044739e-001 
-1.087692e-001 
-1.127468e-001 
-1.160015e-001 
-1.185625e-001 
-1.206378e-001 
-1.215510e-001 
-1.204535e-001 
-1.171970e-001 
-1.132285e-001 
-1.088859e-001 
-1.038057e-001 
-9.909945e-002 
-9.485468e-002 
-9.148868e-002 
-8.800092e-002 
-8.295034e-002 
-7.725065e-002 
-7.156091e-002 
-6.454445e-002 
-5.709060e-002 
-4.975148e-002 
-4.273968e-002 
-3.732200e-002 
-3.284606e-002 
-2.902826e-002 
-2.751030e-002 
-2.539240e-002 
-2.270075e-002 
-2.014560e-002 
-1.767425e-002 
-1.509925e-002 
-1.153801e-002 
-7.920624e-003 
-5.375136e-003 
-3.553696e-003 
-3.553293e-004 
1.344303e-003 
9.246635e-004 
-1.359511e-003 
-2.192963e-003 
-2.370926e-003 
-3.249096e-003 
-2.695993e-003 
1.246195e-004 
3.835069e-003 
3.690706e-003 
7.460184e-004 
-2.197213e-003 
-3.962586e-003 
-6.848110e-003 
-1.039901e-002 
-1.259629e-002 
-1.400588e-002 
-1.686926e-002 
-2.119010e-002 
-2.342475e-002 
-2.244922e-002 
-2.180346e-002 
-2.400088e-002 
-2.767594e-002 
-3.044324e-002 
-3.321601e-002 
-3.721746e-002 
-4.047991e-002 
-4.093506e-002 
-4.042724e-002 
-4.185374e-002 
-4.223255e-002 
-3.998493e-002 
-3.547932e-002 
-3.348506e-002 
-3.496477e-002 
-3.443179e-002 
-3.359574e-002 
-3.602642e-002 
-3.716299e-002 
-3.482122e-002 
-3.068526e-002 
-2.635064e-002 
-2.431909e-002 
-1.941555e-002 
-1.230680e-002 
-9.569704e-003 
-7.928888e-003 
-4.658570e-003 
-3.532933e-003 
-3.509882e-003 
-4.272282e-003 
-3.672866e-003 
-2.536297e-003 
-3.324613e-003 
-3.454773e-003 
-2.199544e-003 
-2.727499e-003 
-5.858350e-003 
-9.105667e-003 
-1.337366e-002 
-1.871222e-002 
-2.713033e-002 
-3.431508e-002 
-4.013148e-002 
-4.644544e-002 
-5.171366e-002 
-5.457564e-002 
-5.513758e-002 
-5.478299e-002 
-5.394189e-002 
-5.330964e-002 
-5.034454e-002 
-4.799730e-002 
-4.662614e-002 
-4.365401e-002 
-4.026078e-002 
-3.707613e-002 
-3.230407e-002 
-2.563866e-002 
-1.816343e-002 
-1.074369e-002 
-6.285678e-003 
-2.411158e-003 
1.283791e-003 
1.618469e-003 
6.511248e-004 
1.533854e-003 
3.543093e-003 
4.110415e-003 
2.958192e-003 
3.191830e-003 
6.335621e-003 
8.157958e-003 
9.242256e-003 
1.214502e-002 
1.658275e-002 
1.992657e-002 
2.035452e-002 
2.118960e-002 
2.285942e-002 
2.250163e-002 
2.002982e-002 
1.796309e-002 
1.445192e-002 
7.515225e-003 
-2.963150e-003 
-1.606893e-002 
-3.174550e-002 
-5.185779e-002 
-7.419042e-002 
-9.669458e-002 
-1.175066e-001 
-1.360806e-001 
-1.481341e-001 
-1.504626e-001 
-1.418163e-001 
-1.231059e-001 
-9.685545e-002 
-6.689103e-002 
-3.706939e-002 
-8.324492e-003 
1.802067e-002 
4.440917e-002 
7.313261e-002 
1.050565e-001 
1.365861e-001 
1.629668e-001 
1.810020e-001 
1.927485e-001 
1.993964e-001 
2.003663e-001 
1.977557e-001 
1.921481e-001 
1.797242e-001 
1.574378e-001 
1.272707e-001 
9.381942e-002 
6.402099e-002 
4.039535e-002 
2.250679e-002 
1.236817e-002 
6.769923e-003 
1.581061e-003 
-3.949886e-003 
-1.000445e-002 
-1.564211e-002 
-1.973382e-002 
-2.428678e-002 
-2.806325e-002 
-2.885326e-002 
-2.986734e-002 
-3.052265e-002 
-3.128080e-002 
-3.250001e-002 
-3.331178e-002 
-3.510103e-002 
-3.900722e-002 
-4.158595e-002 
-4.354266e-002 
-4.632325e-002 
-4.697916e-002 
-4.621898e-002 
-4.524744e-002 
-4.369681e-002 
-4.256262e-002 
-4.241015e-002 
-4.208553e-002 
-4.336613e-002 
-4.488850e-002 
-4.581947e-002 
-4.788179e-002 
-5.126807e-002 
-5.290125e-002 
-5.232577e-002 
-5.110395e-002 
-4.977760e-002 
-4.813575e-002 
-4.673268e-002 
-4.883148e-002 
-5.271984e-002 
-5.775145e-002 
-6.111477e-002 
-6.392550e-002 
-6.681884e-002 
-6.853677e-002 
-6.971339e-002 
-7.273440e-002 
-7.607397e-002 
-7.786522e-002 
-7.973484e-002 
-8.102939e-002 
-8.313556e-002 
-8.541943e-002 
-9.019154e-002 
-9.581036e-002 
-9.945350e-002 
-1.000522e-001 
-9.875896e-002 
-9.589026e-002 
-9.286462e-002 
-9.116523e-002 
-9.150976e-002 
-9.340149e-002 
-9.345772e-002 
-9.333692e-002 
-9.400933e-002 
-9.520507e-002 
-9.700087e-002 
-9.918793e-002 
-1.008459e-001 
-1.015840e-001 
-1.017037e-001 
-1.018426e-001 
-1.036734e-001 
-1.067923e-001 
-1.108816e-001 
-1.138941e-001 
-1.162322e-001 
-1.185998e-001 
-1.196735e-001 
-1.206725e-001 
-1.201867e-001 
-1.175664e-001 
-1.147081e-001 
-1.111163e-001 
-1.063298e-001 
-1.038939e-001 
-1.013316e-001 
-9.870183e-002 
-9.660393e-002 
-9.107568e-002 
-8.507721e-002 
-7.977606e-002 
-7.215813e-002 
-6.544038e-002 
-6.018201e-002 
-5.451606e-002 
-5.128263e-002 
-4.728073e-002 
-4.334478e-002 
-4.251713e-002 
-4.085222e-002 
-3.850876e-002 
-3.786869e-002 
-3.626428e-002 
-3.457194e-002 
-3.370736e-002 
-3.102590e-002 
-3.008224e-002 
-3.040046e-002 
-3.060477e-002 
-3.221050e-002 
-3.518640e-002 
-3.683775e-002 
-3.714633e-002 
-3.656658e-002 
-3.296011e-002 
-2.888439e-002 
-2.472929e-002 
-2.097108e-002 
-1.850762e-002 
-1.676845e-002 
-1.453224e-002 
-1.300382e-002 
-1.269401e-002 
-1.185289e-002 
-1.101811e-002 
-9.860376e-003 
-9.096560e-003 
-7.121651e-003 
-5.334571e-003 
-5.409145e-003 
-6.565491e-003 
-9.698749e-003 
-1.171225e-002 
-1.287738e-002 
-1.691603e-002 
-2.089485e-002 
-2.281341e-002 
-2.615376e-002 
-2.749541e-002 
-2.673664e-002 
-2.507737e-002 
-2.065438e-002 
-1.845938e-002 
-1.828330e-002 
-1.642624e-002 
-1.701907e-002 
-1.885722e-002 
-1.837261e-002 
-1.764858e-002 
-1.538303e-002 
-1.147679e-002 
-7.821498e-003 
-2.334460e-003 
2.349133e-003 
4.683322e-003 
8.227187e-003 
1.182465e-002 
1.410608e-002 
1.560617e-002 
1.654580e-002 
1.712197e-002 
1.693851e-002 
1.613666e-002 
1.691727e-002 
1.888610e-002 
1.969242e-002 
1.769146e-002 
1.458196e-002 
1.106745e-002 
5.513262e-003 
-1.369616e-003 
-7.862170e-003 
-1.375548e-002 
-1.872650e-002 
-2.455970e-002 
-2.956902e-002 
-3.272866e-002 
-3.675270e-002 
-4.146838e-002 
-4.567810e-002 
-4.923739e-002 
-5.132467e-002 
-5.252964e-002 
-5.304350e-002 
-4.920796e-002 
-4.399733e-002 
-3.855715e-002 
-3.119698e-002 
-2.348089e-002 
-1.546763e-002 
-7.138321e-003 
-7.477164e-004 
5.981060e-003 
1.364068e-002 
1.727512e-002 
2.005827e-002 
2.426915e-002 
2.706456e-002 
3.175937e-002 
3.694032e-002 
3.980599e-002 
4.290158e-002 
4.265086e-002 
3.857955e-002 
3.579059e-002 
3.207254e-002 
2.770330e-002 
2.683984e-002 
2.543766e-002 
2.522968e-002 
2.811884e-002 
3.211396e-002 
3.687802e-002 
4.042386e-002 
4.246877e-002 
4.357274e-002 
4.170550e-002 
3.522236e-002 
2.780011e-002 
1.853732e-002 
7.522238e-003 
-5.814924e-003 
-1.900655e-002 
-2.966004e-002 
-3.787588e-002 
-4.311867e-002 
-4.190762e-002 
-3.202461e-002 
-1.240968e-002 
1.896155e-002 
5.866240e-002 
1.024539e-001 
1.442716e-001 
1.805090e-001 
2.105849e-001 
2.390470e-001 
2.675317e-001 
2.976488e-001 
3.263525e-001 
3.470051e-001 
3.552224e-001 
3.505423e-001 
3.361555e-001 
3.178412e-001 
2.985846e-001 
2.750476e-001 
2.461796e-001 
2.092861e-001 
1.632114e-001 
1.129679e-001 
6.622104e-002 
2.799766e-002 
1.864158e-003 
-1.534411e-002 
-2.689198e-002 
-3.311623e-002 
-3.809648e-002 
-4.250525e-002 
-4.435846e-002 
-4.502310e-002 
-4.630342e-002 
-4.721545e-002 
-4.858306e-002 
-4.999895e-002 
-5.129100e-002 
-5.364347e-002 
-5.576448e-002 
-5.764261e-002 
-5.991555e-002 
-6.261163e-002 
-6.392650e-002 
-6.405720e-002 
-6.285851e-002 
-6.124391e-002 
-6.146343e-002 
-6.209038e-002 
-6.190402e-002 
-6.249469e-002 
-6.527584e-002 
-6.693385e-002 
-6.718636e-002 
-6.660574e-002 
-6.670867e-002 
-6.750655e-002 
-6.603535e-002 
-6.467325e-002 
-6.654300e-002 
-6.935159e-002 
-7.034109e-002 
-7.252070e-002 
-7.685366e-002 
-8.287264e-002 
-8.858246e-002 
-9.309855e-002 
-9.752408e-002 
-1.009074e-001 
-1.019331e-001 
-1.021048e-001 
-1.043707e-001 
-1.076314e-001 
-1.105304e-001 
-1.131515e-001 
-1.151040e-001 
-1.167719e-001 
-1.181046e-001 
-1.184125e-001 
-1.182520e-001 
-1.171652e-001 
-1.151424e-001 
-1.126917e-001 
-1.106123e-001 
-1.098517e-001 
-1.113797e-001 
-1.131355e-001 
-1.165495e-001 
-1.204233e-001 
-1.228397e-001 
-1.254046e-001 
-1.269721e-001 
-1.280981e-001 
-1.295438e-001 
-1.309251e-001 
-1.330947e-001 
-1.372929e-001 
-1.400199e-001 
-1.434928e-001 
-1.479307e-001 
-1.509056e-001 
-1.535450e-001 
-1.544201e-001 
-1.538580e-001 
-1.515883e-001 
-1.468249e-001 
-1.417691e-001 
-1.373645e-001 
-1.311079e-001 
-1.260896e-001 
-1.217291e-001 
-1.159304e-001 
-1.103510e-001 
-1.027010e-001 
-9.365771e-002 
-8.496269e-002 
-7.314715e-002 
-6.029209e-002 
-5.018744e-002 
-3.980792e-002 
-3.095581e-002 
-2.419146e-002 
-1.828287e-002 
-1.471385e-002 
-1.255654e-002 
-8.247872e-003 
-5.125087e-003 
-3.171681e-003 
8.035793e-004 
4.582305e-003 
7.438595e-003 
9.990030e-003 
1.048896e-002 
9.585890e-003 
8.943846e-003 
6.523166e-003 
4.387658e-003 
3.024522e-003 
1.152293e-003 
1.447030e-003 
2.917949e-003 
2.943210e-003 
2.967347e-003 
3.938844e-003 
4.452118e-003 
3.977239e-003 
2.165532e-003 
3.992928e-004 
-5.927785e-004 
-3.375500e-003 
-5.859620e-003 
-6.839400e-003 
-5.935178e-003 
-5.068993e-003 
-4.682002e-003 
-4.099241e-003 
-4.296849e-003 
-6.135465e-003 
-8.796458e-003 
-1.028774e-002 
-1.176867e-002 
-1.293880e-002 
-1.457745e-002 
-1.476182e-002 
-1.382811e-002 
-1.351129e-002 
-1.217276e-002 
-9.799577e-003 
-8.296414e-003 
-8.603411e-003 
-9.552364e-003 
-9.689789e-003 
-7.039794e-003 
-3.478860e-003 
6.766894e-004 
6.876249e-003 
1.281758e-002 
1.749110e-002 
2.104544e-002 
2.442580e-002 
2.860082e-002 
3.242809e-002 
3.413169e-002 
3.391649e-002 
3.298511e-002 
3.053141e-002 
2.686997e-002 
2.284685e-002 
1.979087e-002 
1.658004e-002 
1.199839e-002 
5.915853e-003 
-2.047890e-003 
-9.940594e-003 
-1.765488e-002 
-2.670002e-002 
-3.462453e-002 
-3.865988e-002 
-4.131711e-002 
-4.187252e-002 
-3.999258e-002 
-3.726095e-002 
-3.237604e-002 
-2.802239e-002 
-2.604223e-002 
-2.212518e-002 
-1.659730e-002 
-1.294828e-002 
-7.971318e-003 
-2.709017e-003 
2.242533e-003 
8.585734e-003 
1.370794e-002 
1.818145e-002 
2.345468e-002 
2.792853e-002 
3.080704e-002 
3.225395e-002 
3.137174e-002 
3.058824e-002 
2.863974e-002 
2.638163e-002 
2.545137e-002 
2.535917e-002 
2.734165e-002 
2.980195e-002 
3.153868e-002 
3.335365e-002 
3.423312e-002 
3.328445e-002 
3.228995e-002 
2.851673e-002 
2.328861e-002 
1.747815e-002 
9.666468e-003 
-1.289960e-004 
-1.097783e-002 
-2.165291e-002 
-3.341368e-002 
-4.807569e-002 
-6.583451e-002 
-8.301372e-002 
-9.875910e-002 
-1.115849e-001 
-1.192477e-001 
-1.182660e-001 
-1.050912e-001 
-7.948458e-002 
-4.189947e-002 
5.324838e-003 
5.564988e-002 
1.014026e-001 
1.414289e-001 
1.747047e-001 
2.049751e-001 
2.369802e-001 
2.683235e-001 
2.969911e-001 
3.175675e-001 
3.248955e-001 
3.229349e-001 
3.155909e-001 
3.043639e-001 
2.922726e-001 
2.742718e-001 
2.465970e-001 
2.102807e-001 
1.644692e-001 
1.173749e-001 
7.851780e-002 
4.971379e-002 
3.247989e-002 
2.376607e-002 
1.977537e-002 
1.925519e-002 
1.932834e-002 
1.747424e-002 
1.633425e-002 
1.453807e-002 
1.186358e-002 
9.029054e-003 
5.655978e-003 
2.079020e-003 
-8.503276e-004 
-1.854156e-003 
-2.242990e-003 
-2.910977e-003 
-4.617769e-003 
-6.480615e-003 
-1.080178e-002 
-1.593535e-002 
-2.081383e-002 
-2.369834e-002 
-2.548334e-002 
-2.679288e-002 
-2.742570e-002 
-2.660822e-002 
-2.663817e-002 
-2.804274e-002 
-2.764292e-002 
-2.775024e-002 
-2.855418e-002 
-3.047874e-002 
-3.213064e-002 
-3.461208e-002 
-3.718974e-002 
-3.933277e-002 
-3.934175e-002 
-3.858873e-002 
-3.825324e-002 
-3.775514e-002 
-3.811385e-002 
-4.010592e-002 
-4.359123e-002 
-4.743272e-002 
-5.270952e-002 
-5.843341e-002 
-6.308388e-002 
-6.628143e-002 
-6.897312e-002 
-7.233723e-002 
-7.427774e-002 
-7.515762e-002 
-7.857704e-002 
-8.352436e-002 
-8.733556e-002 
-9.084552e-002 
-9.569059e-002 
-9.987344e-002 
-1.032166e-001 
-1.052168e-001 
-1.073405e-001 
-1.090825e-001 
-1.087323e-001 
-1.065706e-001 
-1.060087e-001 
-1.061582e-001 
-1.057889e-001 
-1.070134e-001 
-1.091091e-001 
-1.103502e-001 
-1.114714e-001 
-1.117060e-001 
-1.103477e-001 
-1.096064e-001 
-1.071185e-001 
-1.047829e-001 
-1.031473e-001 
-1.012035e-001 
-9.971272e-002 
-9.964951e-002 
-9.853965e-002 
-9.628166e-002 
-9.283911e-002 
-8.784588e-002 
-8.164995e-002 
-7.400948e-002 
-6.574297e-002 
-5.670204e-002 
-4.706546e-002 
-3.584534e-002 
-2.513425e-002 
-1.622458e-002 
-7.718374e-003 
9.991203e-004 
8.669686e-003 
1.730594e-002 
2.744499e-002 
3.859361e-002 
4.933495e-002 
5.715581e-002 
6.376998e-002 
7.057856e-002 
7.350936e-002 
7.341747e-002 
7.526166e-002 
7.710036e-002 
7.826882e-002 
7.790431e-002 
7.738088e-002 
7.900509e-002 
8.024748e-002 
7.823681e-002 
7.834249e-002 
7.942514e-002 
7.782352e-002 
7.553515e-002 
7.080331e-002 
6.622770e-002 
6.330634e-002 
6.053709e-002 
5.976607e-002 
6.163901e-002 
6.337710e-002 
6.529712e-002 
6.592086e-002 
6.500477e-002 
6.463451e-002 
6.432730e-002 
6.356666e-002 
6.169875e-002 
6.007445e-002 
6.050739e-002 
6.103398e-002 
6.301325e-002 
6.668482e-002 
6.924302e-002 
7.174269e-002 
7.177879e-002 
6.956583e-002 
6.836284e-002 
6.697494e-002 
6.504690e-002 
6.436071e-002 
6.310435e-002 
6.175436e-002 
6.324469e-002 
6.334134e-002 
6.305500e-002 
6.449649e-002 
6.622573e-002 
6.601145e-002 
6.494294e-002 
6.350047e-002 
6.319604e-002 
6.527961e-002 
6.495391e-002 
6.799532e-002 
7.497231e-002 
8.114842e-002 
8.588791e-002 
9.113284e-002 
9.447802e-002 
9.726139e-002 
9.893748e-002 
9.743855e-002 
9.748667e-002 
9.697944e-002 
9.606626e-002 
9.557361e-002 
9.516227e-002 
9.383873e-002 
9.274056e-002 
8.967421e-002 
8.308160e-002 
7.588530e-002 
6.863395e-002 
6.062420e-002 
5.195040e-002 
4.349444e-002 
3.556470e-002 
3.019191e-002 
2.699657e-002 
2.428817e-002 
2.523206e-002 
2.754860e-002 
2.880741e-002 
3.058821e-002 
3.080076e-002 
3.095084e-002 
3.335489e-002 
3.662453e-002 
4.040729e-002 
4.753104e-002 
5.478765e-002 
6.280867e-002 
7.050376e-002 
7.592924e-002 
8.089224e-002 
8.482239e-002 
8.766546e-002 
8.828175e-002 
8.833834e-002 
8.763301e-002 
8.557968e-002 
8.347588e-002 
8.329914e-002 
8.402295e-002 
8.552977e-002 
8.767518e-002 
8.846269e-002 
8.825055e-002 
8.667205e-002 
8.456218e-002 
8.419927e-002 
8.479318e-002 
8.404548e-002 
8.326600e-002 
8.291091e-002 
8.033531e-002 
7.511668e-002 
6.965950e-002 
6.390387e-002 
5.509138e-002 
4.235807e-002 
2.654498e-002 
1.102143e-002 
-3.244795e-003 
-1.355331e-002 
-1.620120e-002 
-8.164636e-003 
1.010970e-002 
3.406324e-002 
6.148699e-002 
8.864594e-002 
1.120595e-001 
1.325555e-001 
1.521013e-001 
1.711801e-001 
1.926384e-001 
2.144097e-001 
2.325557e-001 
2.449805e-001 
2.501573e-001 
2.511175e-001 
2.504577e-001 
2.474627e-001 
2.404261e-001 
2.270739e-001 
2.061930e-001 
1.778689e-001 
1.448888e-001 
1.132450e-001 
8.832468e-002 
7.205912e-002 
6.226566e-002 
5.542355e-002 
5.115093e-002 
5.010250e-002 
4.922286e-002 
4.828553e-002 
4.723627e-002 
4.553470e-002 
4.444852e-002 
4.288339e-002 
4.093790e-002 
4.129126e-002 
4.371124e-002 
4.576101e-002 
4.732982e-002 
4.629711e-002 
4.458577e-002 
4.272713e-002 
3.921644e-002 
3.599407e-002 
3.410468e-002 
3.297276e-002 
3.247218e-002 
3.148937e-002 
3.185068e-002 
3.332938e-002 
3.208193e-002 
3.119379e-002 
3.094620e-002 
2.913741e-002 
2.746534e-002 
2.561365e-002 
2.357800e-002 
2.374993e-002 
2.188056e-002 
2.100856e-002 
2.385953e-002 
2.499350e-002 
2.418699e-002 
2.363478e-002 
2.153466e-002 
1.851547e-002 
1.465032e-002 
9.694823e-003 
7.973033e-003 
6.375462e-003 
2.749918e-003 
5.139245e-004 
-8.108397e-004 
-2.317559e-003 
-3.944474e-003 
-6.422159e-003 
-8.788801e-003 
-1.117359e-002 
-1.654814e-002 
-2.176395e-002 
-2.503538e-002 
-2.813953e-002 
-2.912482e-002 
-2.872004e-002 
-2.775595e-002 
-2.621243e-002 
-2.597084e-002 
-2.721311e-002 
-2.719664e-002 
-2.774779e-002 
-2.894726e-002 
-2.908836e-002 
-2.947588e-002 
-3.107608e-002 
-3.236833e-002 
-3.287273e-002 
-3.247156e-002 
-3.117553e-002 
-3.048569e-002 
-3.131950e-002 
-3.375771e-002 
-3.710099e-002 
-4.192791e-002 
-4.505562e-002 
-4.809578e-002 
-5.073705e-002 
-5.100905e-002 
-5.074223e-002 
-5.063560e-002 
-4.871460e-002 
-4.582663e-002 
-4.285650e-002 
-3.902377e-002 
-3.702960e-002 
-3.366849e-002 
-2.937466e-002 
-2.407063e-002 
-1.717302e-002 
-9.111542e-003 
-5.069318e-004 
9.106575e-003 
1.842733e-002 
2.690237e-002 
3.486153e-002 
4.185939e-002 
4.879358e-002 
5.264503e-002 
5.532599e-002 
5.805495e-002 
6.045579e-002 
6.305451e-002 
6.616956e-002 
6.932091e-002 
7.326508e-002 
7.482643e-002 
7.282796e-002 
7.083899e-002 
6.793671e-002 
6.433304e-002 
6.155636e-002 
5.909736e-002 
5.699234e-002 
5.573561e-002 
5.416127e-002 
5.365101e-002 
5.439373e-002 
5.537274e-002 
5.546146e-002 
5.530250e-002 
5.339128e-002 
5.043435e-002 
4.889844e-002 
4.790691e-002 
4.749940e-002 
4.944155e-002 
5.123803e-002 
5.195596e-002 
5.496645e-002 
5.610344e-002 
5.792347e-002 
6.032198e-002 
5.993618e-002 
5.930598e-002 
5.830586e-002 
5.615797e-002 
5.781409e-002 
6.014607e-002 
6.158134e-002 
6.639424e-002 
7.080945e-002 
7.353984e-002 
7.541413e-002 
7.738445e-002 
8.110456e-002 
8.282542e-002 
8.096346e-002 
8.177650e-002 
8.411884e-002 
8.554398e-002 
8.520728e-002 
8.672558e-002 
8.994278e-002 
8.962244e-002 
8.494326e-002 
8.068213e-002 
7.598316e-002 
6.897816e-002 
5.935676e-002 
4.908656e-002 
4.223519e-002 
3.415209e-002 
2.603206e-002 
2.022439e-002 
1.605988e-002 
1.235898e-002 
9.974141e-003 
7.960130e-003 
7.700180e-003 
7.391355e-003 
5.952702e-003 
6.727727e-003 
8.282318e-003 
1.113303e-002 
1.529447e-002 
2.136727e-002 
2.807076e-002 
3.425809e-002 
3.798336e-002 
4.166496e-002 
4.493195e-002 
4.451118e-002 
4.350693e-002 
4.282186e-002 
4.281688e-002 
4.289142e-002 
4.300789e-002 
4.308806e-002 
4.456743e-002 
4.443352e-002 
4.398961e-002 
4.501430e-002 
4.672823e-002 
4.807594e-002 
4.929800e-002 
5.037201e-002 
5.240234e-002 
5.564073e-002 
5.876482e-002 
6.173913e-002 
6.309387e-002 
6.261556e-002 
5.818767e-002 
5.065524e-002 
4.077752e-002 
3.141837e-002 
1.940153e-002 
4.329558e-003 
-1.201314e-002 
-2.866409e-002 
-4.448172e-002 
-5.797203e-002 
-6.756307e-002 
-7.116944e-002 
-6.718123e-002 
-5.734402e-002 
-3.931122e-002 
-1.426863e-002 
1.383364e-002 
4.286572e-002 
7.070954e-002 
9.710562e-002 
1.242761e-001 
1.531879e-001 
1.816787e-001 
2.067269e-001 
2.260447e-001 
2.362864e-001 
2.391885e-001 
2.370994e-001 
2.319304e-001 
2.252376e-001 
2.151159e-001 
1.986977e-001 
1.763120e-001 
1.484923e-001 
1.169380e-001 
8.885443e-002 
6.466677e-002 
4.452298e-002 
2.976316e-002 
1.914382e-002 
1.116481e-002 
4.808439e-003 
-1.564481e-003 
-6.929477e-003 
-9.113383e-003 
-1.217824e-002 
-1.419406e-002 
-1.386668e-002 
-1.441954e-002 
-1.653692e-002 
-1.963159e-002 
-2.376011e-002 
-2.528675e-002 
-2.557767e-002 
-2.718250e-002 
-2.511597e-002 
-2.194276e-002 
-1.892905e-002 
-1.509137e-002 
-1.160753e-002 
-8.655078e-003 
-5.815493e-003 
-6.563772e-003 
-7.629806e-003 
-8.441333e-003 
-1.024910e-002 
-9.788429e-003 
-9.173752e-003 
-8.375813e-003 
-7.277675e-003 
-7.229566e-003 
-8.418904e-003 
-1.007302e-002 
-1.343343e-002 
-1.560676e-002 
-1.897326e-002 
-2.462558e-002 
-2.898230e-002 
-3.280153e-002 
-3.634007e-002 
-3.830490e-002 
-3.916719e-002 
-3.851629e-002 
-3.812371e-002 
-4.067863e-002 
-4.253314e-002 
-4.384466e-002 
-4.623566e-002 
-4.780065e-002 
-4.870244e-002 
-4.866342e-002 
-4.812594e-002 
-4.842236e-002 
-4.598105e-002 
-4.081803e-002 
-3.809374e-002 
-3.725185e-002 
-3.745322e-002 
-3.920087e-002 
-4.107548e-002 
-4.388218e-002 
-4.506800e-002 
-4.361269e-002 
-4.410151e-002 
-4.681781e-002 
-4.807105e-002 
-4.882905e-002 
-5.015892e-002 
-5.057266e-002 
-5.130095e-002 
-5.318868e-002 
-5.635561e-002 
-6.138964e-002 
-6.578000e-002 
-6.690726e-002 
-6.790903e-002 
-6.760579e-002 
-6.404028e-002 
-6.250741e-002 
-6.194445e-002 
-6.042615e-002 
-6.130312e-002 
-6.074569e-002 
-5.913767e-002 
-5.901944e-002 
-5.576648e-002 
-5.054551e-002 
-4.759607e-002 
-4.351051e-002 
-3.767166e-002 
-3.145368e-002 
-2.370553e-002 
-1.821015e-002 
-1.284234e-002 
-6.766557e-003 
-3.296714e-003 
-2.637039e-003 
-1.347262e-004 
4.020411e-003 
8.439012e-003 
1.287378e-002 
1.760731e-002 
2.296925e-002 
2.578642e-002 
2.788657e-002 
2.932330e-002 
3.005828e-002 
2.978270e-002 
2.923772e-002 
2.878799e-002 
2.950106e-002 
3.040558e-002 
3.171814e-002 
3.590124e-002 
3.927635e-002 
4.106316e-002 
4.183041e-002 
4.196311e-002 
4.182800e-002 
4.087866e-002 
3.861412e-002 
3.761282e-002 
3.753224e-002 
3.574971e-002 
3.377944e-002 
3.342825e-002 
3.394201e-002 
3.331993e-002 
3.120385e-002 
2.883601e-002 
2.659667e-002 
2.264399e-002 
1.740054e-002 
1.378112e-002 
1.244224e-002 
1.103694e-002 
1.047472e-002 
1.101955e-002 
1.232421e-002 
1.324892e-002 
1.302417e-002 
1.204942e-002 
1.285561e-002 
1.367093e-002 
1.180562e-002 
1.125802e-002 
1.262422e-002 
1.485456e-002 
1.735815e-002 
2.041375e-002 
2.401866e-002 
2.899777e-002 
3.198440e-002 
3.327196e-002 
3.689807e-002 
4.040830e-002 
4.295593e-002 
4.610235e-002 
4.903662e-002 
5.233374e-002 
5.757197e-002 
6.206386e-002 
6.559454e-002 
6.825863e-002 
6.850791e-002 
6.697994e-002 
6.410419e-002 
6.028676e-002 
5.651465e-002 
5.202181e-002 
4.608678e-002 
3.949271e-002 
3.387879e-002 
2.843722e-002 
2.281224e-002 
1.657045e-002 
9.691341e-003 
2.086126e-003 
-5.379965e-003 
-1.157790e-002 
-1.754854e-002 
-2.000748e-002 
-2.012829e-002 
-1.875738e-002 
-1.600973e-002 
-1.109985e-002 
-5.243155e-003 
4.390860e-005 
4.252816e-003 
8.144420e-003 
1.319607e-002 
1.688819e-002 
2.002345e-002 
2.234643e-002 
2.571220e-002 
2.830484e-002 
3.031144e-002 
3.368851e-002 
3.759443e-002 
4.007838e-002 
3.989410e-002 
3.793388e-002 
3.457105e-002 
3.261280e-002 
2.972321e-002 
2.859504e-002 
3.057660e-002 
3.387973e-002 
3.752569e-002 
4.218210e-002 
4.772685e-002 
5.238897e-002 
5.506847e-002 
5.491467e-002 
5.419242e-002 
5.144181e-002 
4.575128e-002 
3.820053e-002 
3.042304e-002 
2.124634e-002 
1.021637e-002 
-1.747284e-003 
-1.409750e-002 
-2.638796e-002 
-4.003737e-002 
-5.184411e-002 
-5.915252e-002 
-6.062000e-002 
-5.296937e-002 
-3.451565e-002 
-7.064116e-003 
2.624921e-002 
6.035981e-002 
9.270709e-002 
1.239916e-001 
1.514623e-001 
1.781319e-001 
2.041567e-001 
2.271464e-001 
2.450311e-001 
2.545744e-001 
2.567400e-001 
2.558500e-001 
2.514251e-001 
2.450979e-001 
2.361266e-001 
2.206350e-001 
1.992756e-001 
1.698012e-001 
1.344991e-001 
1.018490e-001 
7.298712e-002 
4.895271e-002 
3.279169e-002 
2.155182e-002 
1.609094e-002 
1.329199e-002 
1.099785e-002 
1.019552e-002 
9.146891e-003 
5.440508e-003 
1.633056e-003 
-2.495758e-003 
-6.630311e-003 
-1.091681e-002 
-1.557071e-002 
-1.808417e-002 
-2.084308e-002 
-2.245467e-002 
-2.188105e-002 
-2.089429e-002 
-1.937047e-002 
-1.781940e-002 
-1.849260e-002 
-1.981774e-002 
-2.148838e-002 
-2.307545e-002 
-2.327274e-002 
-2.398276e-002 
-2.385981e-002 
-2.166340e-002 
-2.039169e-002 
-2.047163e-002 
-2.042947e-002 
-2.054413e-002 
-2.148964e-002 
-2.454204e-002 
-2.704173e-002 
-2.899664e-002 
-3.291984e-002 
-3.752676e-002 
-4.107035e-002 
-4.281183e-002 
-4.420829e-002 
-4.542700e-002 
-4.563179e-002 
-4.605146e-002 
-4.972649e-002 
-5.417337e-002 
-5.807652e-002 
-6.134698e-002 
-6.318055e-002 
-6.504095e-002 
-6.548717e-002 
-6.488457e-002 
-6.435262e-002 
-6.329370e-002 
-6.129114e-002 
-6.067307e-002 
-6.049239e-002 
-6.089023e-002 
-6.322339e-002 
-6.499854e-002 
-6.671016e-002 
-6.737920e-002 
-6.762719e-002 
-6.800537e-002 
-6.790883e-002 
-6.783512e-002 
-6.879440e-002 
-7.012679e-002 
-7.288034e-002 
-7.674507e-002 
-8.014244e-002 
-8.527873e-002 
-8.977573e-002 
-9.294815e-002 
-9.644022e-002 
-9.836590e-002 
-9.784878e-002 
-9.751565e-002 
-9.662363e-002 
-9.632136e-002 
-9.743058e-002 
-9.670507e-002 
-9.591651e-002 
-9.520899e-002 
-9.128392e-002 
-8.506600e-002 
-8.013978e-002 
-7.418900e-002 
-6.672300e-002 
-5.775202e-002 
-4.824202e-002 
-3.989702e-002 
-3.225738e-002 
-2.554966e-002 
-2.107787e-002 
-1.831877e-002 
-1.387520e-002 
-8.361788e-003 
-3.016937e-003 
1.613609e-003 
7.426090e-003 
1.242517e-002 
1.537247e-002 
1.784548e-002 
1.871690e-002 
1.965404e-002 
2.065891e-002 
1.948919e-002 
1.872082e-002 
1.953021e-002 
2.027560e-002 
2.232978e-002 
2.509444e-002 
2.735126e-002 
3.075969e-002 
3.290924e-002 
3.289885e-002 
3.205840e-002 
3.119546e-002 
3.105241e-002 
3.017954e-002 
2.855428e-002 
2.794846e-002 
2.911515e-002 
3.164230e-002 
3.324713e-002 
3.347122e-002 
3.470326e-002 
3.456925e-002 
3.148194e-002 
2.752148e-002 
2.334512e-002 
2.078949e-002 
1.889438e-002 
1.568629e-002 
1.447504e-002 
1.497987e-002 
1.454816e-002 
1.414071e-002 
1.369135e-002 
1.284394e-002 
1.274900e-002 
1.233747e-002 
1.149594e-002 
1.126923e-002 
1.210007e-002 
1.410360e-002 
1.832850e-002 
2.375526e-002 
2.946681e-002 
3.630965e-002 
4.202276e-002 
4.502846e-002 
4.782382e-002 
5.057677e-002 
5.170887e-002 
5.224524e-002 
5.272716e-002 
5.293195e-002 
5.279302e-002 
5.212647e-002 
5.062843e-002 
4.838681e-002 
4.431255e-002 
3.724336e-002 
2.894258e-002 
2.028859e-002 
9.398418e-003 
-1.193213e-003 
-1.044096e-002 
-1.957365e-002 
-2.679269e-002 
-3.134032e-002 
-3.482152e-002 
-3.579764e-002 
-3.528987e-002 
-3.430769e-002 
-3.283844e-002 
-3.133505e-002 
-2.962860e-002 
-2.709402e-002 
-2.231257e-002 
-1.555337e-002 
-6.928323e-003 
3.218338e-003 
1.326319e-002 
2.175852e-002 
2.977477e-002 
3.524136e-002 
3.953024e-002 
4.402047e-002 
4.695962e-002 
4.854851e-002 
4.996287e-002 
5.051725e-002 
5.078082e-002 
5.148831e-002 
5.254509e-002 
5.403224e-002 
5.617055e-002 
5.808890e-002 
5.884190e-002 
5.930430e-002 
5.938748e-002 
5.873159e-002 
5.767105e-002 
5.595636e-002 
5.310246e-002 
5.017904e-002 
4.466062e-002 
3.763916e-002 
2.902403e-002 
1.728599e-002 
1.981559e-003 
-1.507309e-002 
-3.218151e-002 
-4.760764e-002 
-5.860586e-002 
-6.250036e-002 
-5.575883e-002 
-3.979305e-002 
-1.550775e-002 
1.294629e-002 
4.212635e-002 
6.889527e-002 
9.220191e-002 
1.139544e-001 
1.363391e-001 
1.612176e-001 
1.867304e-001 
2.098682e-001 
2.262451e-001 
2.358130e-001 
2.396342e-001 
2.401014e-001 
2.383031e-001 
2.337907e-001 
2.244858e-001 
2.058716e-001 
1.786562e-001 
1.459574e-001 
1.142627e-001 
8.784121e-002 
6.874175e-002 
5.780144e-002 
5.399986e-002 
5.259500e-002 
5.181891e-002 
5.186510e-002 
5.216079e-002 
5.162791e-002 
4.960813e-002 
4.784108e-002 
4.750387e-002 
4.756251e-002 
4.717428e-002 
4.866943e-002 
5.017960e-002 
5.054491e-002 
4.909892e-002 
4.688539e-002 
4.489790e-002 
4.302114e-002 
3.974549e-002 
3.681444e-002 
3.485540e-002 
3.168168e-002 
2.869060e-002 
2.739682e-002 
2.764298e-002 
2.963389e-002 
3.017994e-002 
2.924380e-002 
2.917364e-002 
2.840014e-002 
2.576323e-002 
2.305436e-002 
2.298622e-002 
2.464211e-002 
2.570883e-002 
2.570876e-002 
2.793458e-002 
2.938613e-002 
2.959352e-002 
2.772640e-002 
2.550777e-002 
2.496651e-002 
2.173854e-002 
1.679573e-002 
1.334731e-002 
1.028187e-002 
7.096148e-003 
5.121664e-003 
2.498101e-003 
5.268573e-004 
-1.941064e-003 
-7.033703e-003 
-1.094367e-002 
-1.537943e-002 
-2.042408e-002 
-2.407407e-002 
-2.838907e-002 
-3.147091e-002 
-3.316942e-002 
-3.529145e-002 
-3.589090e-002 
-3.495903e-002 
-3.560613e-002 
-3.602167e-002 
-3.732171e-002 
-3.884861e-002 
-4.043776e-002 
-4.318440e-002 
-4.448514e-002 
-4.401194e-002 
-4.394405e-002 
-4.426518e-002 
-4.387896e-002 
-4.341024e-002 
-4.408087e-002 
-4.733274e-002 
-5.020665e-002 
-5.256260e-002 
-5.564322e-002 
-5.944606e-002 
-6.143561e-002 
-6.089870e-002 
-5.947346e-002 
-5.818502e-002 
-5.563036e-002 
-5.269704e-002 
-4.948992e-002 
-4.541648e-002 
-4.152172e-002 
-3.612214e-002 
-3.029210e-002 
-2.473940e-002 
-1.848872e-002 
-1.015682e-002 
-9.068357e-004 
9.647374e-003 
1.998323e-002 
2.914850e-002 
3.685597e-002 
4.348830e-002 
4.769520e-002 
5.004819e-002 
5.218164e-002 
5.252827e-002 
5.372433e-002 
5.565725e-002 
5.769268e-002 
6.051764e-002 
6.355225e-002 
6.452796e-002 
6.427220e-002 
6.201329e-002 
5.922312e-002 
5.792012e-002 
5.522783e-002 
5.313593e-002 
5.156721e-002 
4.870553e-002 
4.630375e-002 
4.520689e-002 
4.510540e-002 
4.672127e-002 
4.799315e-002 
4.741188e-002 
4.596126e-002 
4.141823e-002 
3.638655e-002 
3.267933e-002 
3.028192e-002 
2.917186e-002 
2.891677e-002 
2.950197e-002 
3.065176e-002 
3.057012e-002 
2.947413e-002 
2.989369e-002 
2.956497e-002 
2.896423e-002 
2.709417e-002 
2.497282e-002 
2.526002e-002 
2.666061e-002 
2.679902e-002 
2.977934e-002 
3.439793e-002 
3.758414e-002 
3.984270e-002 
4.043461e-002 
4.138381e-002 
4.219315e-002 
4.088518e-002 
3.919043e-002 
3.958375e-002 
3.881386e-002 
3.719431e-002 
3.600938e-002 
3.475757e-002 
3.269740e-002 
2.879381e-002 
2.365872e-002 
1.679753e-002 
9.796785e-003 
1.783362e-003 
-6.465155e-003 
-1.201677e-002 
-1.544601e-002 
-1.738704e-002 
-1.753925e-002 
-1.577565e-002 
-1.385712e-002 
-1.051222e-002 
-9.967740e-003 
-9.124336e-003 
-6.427991e-003 
-5.812559e-003 
-4.632125e-003 
-1.245722e-003 
2.469085e-003 
5.939134e-003 
1.038310e-002 
1.339687e-002 
1.809029e-002 
2.050258e-002 
2.051892e-002 
2.206386e-002 
2.165872e-002 
1.826654e-002 
1.552518e-002 
1.457554e-002 
1.405872e-002 
1.551745e-002 
1.805149e-002 
2.308662e-002 
2.800914e-002 
3.074381e-002 
3.229921e-002 
3.334929e-002 
3.266149e-002 
2.870093e-002 
2.426970e-002 
1.969518e-002 
1.331745e-002 
5.021438e-003 
-3.427858e-003 
-1.325591e-002 
-2.467187e-002 
-3.747579e-002 
-5.131111e-002 
-6.414862e-002 
-7.808578e-002 
-9.088153e-002 
-9.728713e-002 
-9.525117e-002 
-8.280349e-002 
-5.654114e-002 
-1.697300e-002 
3.189920e-002 
8.194843e-002 
1.250901e-001 
1.633729e-001 
1.973322e-001 
2.276826e-001 
2.567984e-001 
2.846194e-001 
3.095214e-001 
3.262508e-001 
3.307769e-001 
3.266988e-001 
3.185503e-001 
3.068978e-001 
2.912324e-001 
2.692411e-001 
2.392979e-001 
2.012044e-001 
1.541003e-001 
1.061468e-001 
6.428441e-002 
3.134205e-002 
8.957155e-003 
-3.805386e-003 
-9.750100e-003 
-1.336449e-002 
-1.662924e-002 
-2.095243e-002 
-2.468637e-002 
-2.923351e-002 
-3.437173e-002 
-3.787937e-002 
-3.869975e-002 
-4.043513e-002 
-4.252687e-002 
-4.147524e-002 
-4.014856e-002 
-3.896078e-002 
-3.932737e-002 
-4.042470e-002 
-4.028068e-002 
-4.182711e-002 
-4.507822e-002 
-4.559882e-002 
-4.512240e-002 
-4.645484e-002 
-4.704456e-002 
-4.711303e-002 
-4.610360e-002 
-4.560709e-002 
-4.752160e-002 
-4.963172e-002 
-5.225853e-002 
-5.699020e-002 
-6.199438e-002 
-6.533648e-002 
-6.799129e-002 
-7.056016e-002 
-7.267499e-002 
-7.468134e-002 
-7.623143e-002 
-7.826020e-002 
-7.996645e-002 
-8.129071e-002 
-8.272725e-002 
-8.502967e-002 
-8.786517e-002 
-9.064894e-002 
-9.344008e-002 
-9.542760e-002 
-9.620188e-002 
-9.495324e-002 
-9.384750e-002 
-9.280400e-002 
-9.288427e-002 
-9.465760e-002 
-9.831668e-002 
-1.027160e-001 
-1.060762e-001 
-1.082214e-001 
-1.104340e-001 
-1.124993e-001 
-1.138018e-001 
-1.151844e-001 
-1.167916e-001 
-1.182704e-001 
-1.185979e-001 
-1.183366e-001 
-1.193840e-001 
-1.219666e-001 
-1.237576e-001 
-1.251744e-001 
-1.268278e-001 
-1.282684e-001 
-1.290262e-001 
-1.285082e-001 
-1.271599e-001 
-1.264604e-001 
-1.254074e-001 
-1.239756e-001 
-1.244291e-001 
-1.262319e-001 
-1.279726e-001 
-1.286436e-001 
-1.275285e-001 
-1.253268e-001 
-1.208493e-001 
-1.153234e-001 
-1.102830e-001 
-1.047569e-001 
-9.802482e-002 
-9.012093e-002 
-8.217097e-002 
-7.531907e-002 
-6.861100e-002 
-6.140665e-002 
-5.543368e-002 
-4.742250e-002 
-3.777386e-002 
-2.792913e-002 
-1.831777e-002 
-1.038209e-002 
-4.084294e-003 
1.802811e-003 
7.020580e-003 
1.062373e-002 
1.364213e-002 
1.573746e-002 
1.764307e-002 
1.971695e-002 
2.174764e-002 
2.476593e-002 
2.924729e-002 
3.241941e-002 
3.337517e-002 
3.354230e-002 
3.334691e-002 
3.209988e-002 
2.985185e-002 
2.787496e-002 
2.773967e-002 
2.783419e-002 
2.682729e-002 
2.661236e-002 
2.776164e-002 
2.969485e-002 
3.049311e-002 
3.004618e-002 
2.981545e-002 
2.889196e-002 
2.517259e-002 
2.102907e-002 
1.885021e-002 
1.760892e-002 
1.770447e-002 
1.788901e-002 
1.809553e-002 
1.871079e-002 
1.825788e-002 
1.691512e-002 
1.600636e-002 
1.476523e-002 
1.234138e-002 
1.033169e-002 
7.531202e-003 
6.027910e-003 
6.901312e-003 
8.899623e-003 
1.178580e-002 
1.548133e-002 
1.818552e-002 
1.981420e-002 
2.141358e-002 
2.269688e-002 
2.571367e-002 
2.945299e-002 
3.324926e-002 
3.828471e-002 
4.343394e-002 
4.669043e-002 
5.181055e-002 
5.724730e-002 
6.179897e-002 
6.658828e-002 
6.891873e-002 
6.823648e-002 
6.580582e-002 
6.106567e-002 
5.631281e-002 
5.339903e-002 
4.924685e-002 
4.641343e-002 
4.290216e-002 
3.574865e-002 
2.765784e-002 
1.965506e-002 
1.142726e-002 
5.796904e-003 
1.093805e-003 
-3.204532e-003 
-5.308609e-003 
-8.983164e-003 
-1.104244e-002 
-9.522088e-003 
-7.897221e-003 
-4.782622e-003 
3.822384e-004 
3.592646e-003 
6.076279e-003 
8.103454e-003 
8.308722e-003 
1.113685e-002 
1.506830e-002 
1.815042e-002 
2.160281e-002 
2.545115e-002 
2.759936e-002 
2.884420e-002 
2.805041e-002 
2.663275e-002 
2.680722e-002 
2.533966e-002 
2.278503e-002 
2.119156e-002 
2.162745e-002 
2.214425e-002 
2.339038e-002 
2.501617e-002 
2.885947e-002 
3.261193e-002 
3.408054e-002 
3.532560e-002 
3.503107e-002 
3.250240e-002 
2.787136e-002 
2.137794e-002 
1.344466e-002 
5.506117e-003 
-3.866401e-003 
-1.466642e-002 
-2.638830e-002 
-4.009107e-002 
-5.405122e-002 
-6.713373e-002 
-7.794210e-002 
-8.516271e-002 
-8.690448e-002 
-7.914677e-002 
-5.943727e-002 
-2.726387e-002 
1.456158e-002 
6.154558e-002 
1.087880e-001 
1.513209e-001 
1.869728e-001 
2.189344e-001 
2.513596e-001 
2.823952e-001 
3.087688e-001 
3.266063e-001 
3.351387e-001 
3.342628e-001 
3.243329e-001 
3.117625e-001 
2.981878e-001 
2.817326e-001 
2.573016e-001 
2.214966e-001 
1.775667e-001 
1.323659e-001 
8.769622e-002 
5.024217e-002 
2.535346e-002 
9.951628e-003 
2.678777e-003 
-2.272223e-003 
-5.900512e-003 
-6.025274e-003 
-6.180484e-003 
-8.356664e-003 
-9.776178e-003 
-1.250226e-002 
-1.694399e-002 
-2.238286e-002 
-2.834700e-002 
-3.180367e-002 
-3.373478e-002 
-3.505862e-002 
-3.548797e-002 
-3.641537e-002 
-3.838765e-002 
-4.037168e-002 
-4.205880e-002 
-4.479519e-002 
-4.799635e-002 
-5.056130e-002 
-5.207533e-002 
-5.312104e-002 
-5.351184e-002 
-5.234313e-002 
-4.951588e-002 
-4.743923e-002 
-4.664193e-002 
-4.514987e-002 
-4.528352e-002 
-4.616947e-002 
-4.819523e-002 
-5.100563e-002 
-5.260327e-002 
-5.378499e-002 
-5.493522e-002 
-5.452408e-002 
-5.447061e-002 
-5.583751e-002 
-5.739723e-002 
-6.032057e-002 
-6.346729e-002 
-6.740173e-002 
-7.219564e-002 
-7.670942e-002 
-8.104852e-002 
-8.577261e-002 
-8.922439e-002 
-9.138500e-002 
-9.319646e-002 
-9.499840e-002 
-9.742251e-002 
-9.889066e-002 
-1.003728e-001 
-1.036376e-001 
-1.071223e-001 
-1.093754e-001 
-1.115445e-001 
-1.129132e-001 
-1.124953e-001 
-1.112373e-001 
-1.092391e-001 
-1.081953e-001 
-1.075458e-001 
-1.077035e-001 
-1.092398e-001 
-1.112619e-001 
-1.132249e-001 
-1.144716e-001 
-1.165620e-001 
-1.181967e-001 
-1.176017e-001 
-1.166850e-001 
-1.176350e-001 
-1.158359e-001 
-1.124691e-001 
-1.098575e-001 
-1.077213e-001 
-1.068452e-001 
-1.045282e-001 
-1.015015e-001 
-9.853423e-002 
-9.218176e-002 
-8.155591e-002 
-7.082499e-002 
-5.999890e-002 
-5.053581e-002 
-4.057266e-002 
-3.061638e-002 
-2.161073e-002 
-1.225155e-002 
-4.315629e-003 
2.359366e-003 
9.936646e-003 
1.771424e-002 
2.495690e-002 
3.427480e-002 
4.344852e-002 
5.089028e-002 
5.555533e-002 
5.850284e-002 
6.220888e-002 
6.574701e-002 
6.561413e-002 
6.364606e-002 
6.234564e-002 
6.110409e-002 
5.922300e-002 
5.937003e-002 
6.280106e-002 
6.542322e-002 
6.447914e-002 
6.067440e-002 
5.684909e-002 
5.305566e-002 
4.929462e-002 
4.592436e-002 
4.453015e-002 
4.266974e-002 
3.926916e-002 
3.640982e-002 
3.672728e-002 
3.769381e-002 
3.768744e-002 
3.766868e-002 
3.679814e-002 
3.453290e-002 
3.105480e-002 
2.869599e-002 
2.790712e-002 
2.907008e-002 
2.918867e-002 
2.940307e-002 
3.131362e-002 
3.416348e-002 
3.639326e-002 
3.861843e-002 
3.977042e-002 
3.964933e-002 
3.822899e-002 
3.543450e-002 
3.495423e-002 
3.629208e-002 
3.807351e-002 
4.046838e-002 
4.401502e-002 
4.787385e-002 
5.183448e-002 
5.503705e-002 
5.858735e-002 
6.161092e-002 
6.164282e-002 
6.178787e-002 
6.336941e-002 
6.487261e-002 
6.724994e-002 
7.017070e-002 
7.181511e-002 
7.267299e-002 
7.225556e-002 
7.143234e-002 
7.017787e-002 
6.519521e-002 
5.848789e-002 
5.243056e-002 
4.442876e-002 
3.563549e-002 
2.902549e-002 
2.516445e-002 
2.245210e-002 
1.796463e-002 
1.308104e-002 
1.216336e-002 
1.092030e-002 
7.766996e-003 
5.829608e-003 
5.744350e-003 
6.853833e-003 
7.065848e-003 
6.802189e-003 
9.133714e-003 
1.528121e-002 
2.017009e-002 
2.381159e-002 
2.864679e-002 
3.298984e-002 
3.473447e-002 
3.455766e-002 
3.358387e-002 
3.467914e-002 
3.881268e-002 
4.083907e-002 
4.303283e-002 
4.738853e-002 
4.905593e-002 
5.040930e-002 
5.265845e-002 
5.454903e-002 
5.752576e-002 
5.991419e-002 
5.945272e-002 
6.038738e-002 
6.223148e-002 
6.404277e-002 
6.831741e-002 
7.118131e-002 
7.132670e-002 
6.882633e-002 
6.330000e-002 
5.441343e-002 
4.385443e-002 
3.174319e-002 
1.797410e-002 
3.384874e-003 
-1.168422e-002 
-2.540744e-002 
-3.461233e-002 
-3.632475e-002 
-3.052916e-002 
-1.526340e-002 
1.078249e-002 
4.484514e-002 
8.136849e-002 
1.141194e-001 
1.418930e-001 
1.674258e-001 
1.918380e-001 
2.175940e-001 
2.470036e-001 
2.772256e-001 
3.006828e-001 
3.112622e-001 
3.108987e-001 
3.054948e-001 
2.971758e-001 
2.858534e-001 
2.716356e-001 
2.514716e-001 
2.232323e-001 
1.866779e-001 
1.465152e-001 
1.104678e-001 
8.242034e-002 
6.251976e-002 
4.937514e-002 
4.177305e-002 
3.750573e-002 
3.390234e-002 
2.968191e-002 
2.603664e-002 
2.291284e-002 
2.156616e-002 
2.217389e-002 
2.309349e-002 
2.483912e-002 
2.638176e-002 
2.572486e-002 
2.395180e-002 
2.191828e-002 
2.065367e-002 
2.019175e-002 
1.898655e-002 
1.818114e-002 
1.835957e-002 
1.902423e-002 
1.964771e-002 
1.952738e-002 
1.930051e-002 
1.791374e-002 
1.359270e-002 
9.497500e-003 
5.858441e-003 
1.785907e-003 
-1.492798e-003 
-4.374860e-003 
-7.123310e-003 
-9.233928e-003 
-1.129848e-002 
-1.295870e-002 
-1.360353e-002 
-1.497491e-002 
-1.664632e-002 
-1.908888e-002 
-2.211672e-002 
-2.592215e-002 
-2.934077e-002 
-3.058499e-002 
-3.108962e-002 
-3.048564e-002 
-2.924015e-002 
-2.798292e-002 
-2.716775e-002 
-2.726582e-002 
-2.965967e-002 
-3.225411e-002 
-3.551025e-002 
-4.005260e-002 
-4.288670e-002 
-4.417995e-002 
-4.512643e-002 
-4.605322e-002 
-4.763522e-002 
-4.963191e-002 
-5.143262e-002 
-5.543232e-002 
-5.904932e-002 
-6.073063e-002 
-6.445775e-002 
-6.949217e-002 
-7.307489e-002 
-7.656188e-002 
-7.888471e-002 
-8.020305e-002 
-7.935161e-002 
-7.546388e-002 
-7.307534e-002 
-7.351785e-002 
-7.335270e-002 
-7.383836e-002 
-7.664682e-002 
-7.903720e-002 
-7.897254e-002 
-7.564770e-002 
-7.315515e-002 
-7.122862e-002 
-6.770186e-002 
-6.421407e-002 
-6.116372e-002 
-5.829327e-002 
-5.524998e-002 
-5.050829e-002 
-4.812703e-002 
-4.769861e-002 
-4.485029e-002 
-4.137946e-002 
-3.603236e-002 
-2.781404e-002 
-1.925128e-002 
-1.018440e-002 
-8.070460e-004 
6.284171e-003 
1.330761e-002 
1.931165e-002 
2.487664e-002 
3.202278e-002 
3.857104e-002 
4.575021e-002 
5.322285e-002 
6.120382e-002 
6.939222e-002 
7.697792e-002 
8.441782e-002 
9.121274e-002 
9.540780e-002 
9.857620e-002 
1.011241e-001 
1.011925e-001 
1.024368e-001 
1.035370e-001 
1.048804e-001 
1.061442e-001 
1.066326e-001 
1.068696e-001 
1.069687e-001 
1.054488e-001 
1.017318e-001 
9.861422e-002 
9.424359e-002 
8.852210e-002 
8.356787e-002 
8.016654e-002 
7.700855e-002 
7.555902e-002 
7.359708e-002 
7.132007e-002 
7.083634e-002 
6.933208e-002 
6.694193e-002 
6.538597e-002 
6.229670e-002 
5.887773e-002 
5.671691e-002 
5.375073e-002 
5.282078e-002 
5.409877e-002 
5.513262e-002 
5.530912e-002 
5.552076e-002 
5.533163e-002 
5.507383e-002 
5.441182e-002 
5.252500e-002 
5.103500e-002 
5.101483e-002 
5.051946e-002 
5.059474e-002 
5.398037e-002 
5.795770e-002 
6.166338e-002 
6.609371e-002 
7.028070e-002 
7.446196e-002 
7.793260e-002 
7.945436e-002 
8.190920e-002 
8.460026e-002 
8.502927e-002 
8.517146e-002 
8.779134e-002 
9.069163e-002 
9.156281e-002 
9.158909e-002 
9.162685e-002 
9.001211e-002 
8.447233e-002 
7.616787e-002 
6.857167e-002 
6.278442e-002 
5.511050e-002 
4.761485e-002 
4.344291e-002 
3.922918e-002 
3.321339e-002 
2.752587e-002 
2.420141e-002 
2.305796e-002 
2.222028e-002 
2.088683e-002 
2.012150e-002 
1.987810e-002 
1.866813e-002 
1.893330e-002 
2.228666e-002 
2.748914e-002 
3.223863e-002 
3.781734e-002 
4.205783e-002 
4.444873e-002 
4.635726e-002 
4.589022e-002 
4.595154e-002 
4.728452e-002 
4.860132e-002 
5.028425e-002 
5.334958e-002 
5.533870e-002 
5.821477e-002 
5.990799e-002 
6.196630e-002 
6.641497e-002 
7.097188e-002 
7.469891e-002 
7.790572e-002 
8.009624e-002 
8.190907e-002 
8.263250e-002 
8.203350e-002 
8.345620e-002 
8.194829e-002 
7.740713e-002 
7.127316e-002 
6.226198e-002 
5.063042e-002 
3.795892e-002 
2.246204e-002 
7.783945e-003 
-4.739713e-003 
-1.548110e-002 
-1.890175e-002 
-1.340495e-002 
9.640221e-004 
2.379077e-002 
5.143835e-002 
7.932156e-002 
1.064838e-001 
1.307804e-001 
1.519408e-001 
1.738008e-001 
1.981298e-001 
2.224215e-001 
2.428266e-001 
2.577354e-001 
2.662345e-001 
2.685534e-001 
2.657161e-001 
2.590558e-001 
2.509966e-001 
2.390643e-001 
2.187125e-001 
1.913948e-001 
1.609561e-001 
1.294873e-001 
1.007024e-001 
7.802006e-002 
6.257799e-002 
5.295288e-002 
4.628922e-002 
4.001373e-002 
3.540339e-002 
3.105340e-002 
2.529195e-002 
2.079482e-002 
1.816232e-002 
1.643804e-002 
1.522029e-002 
1.426558e-002 
1.384488e-002 
1.393984e-002 
1.215358e-002 
1.090229e-002 
9.614614e-003 
7.206791e-003 
5.427714e-003 
3.189204e-003 
1.711662e-003 
1.822505e-003 
2.348804e-003 
4.425290e-003 
6.347103e-003 
5.481403e-003 
4.881028e-003 
3.834079e-003 
4.940610e-004 
-2.232150e-003 
-4.369867e-003 
-6.097793e-003 
-7.897379e-003 
-1.141295e-002 
-1.311404e-002 
-1.268049e-002 
-1.324931e-002 
-1.428242e-002 
-1.424248e-002 
-1.494004e-002 
-1.685392e-002 
-1.989628e-002 
-2.191421e-002 
-2.222753e-002 
-2.328053e-002 
-2.380428e-002 
-2.256476e-002 
-2.016660e-002 
-1.817724e-002 
-1.681842e-002 
-1.615468e-002 
-1.623949e-002 
-1.822084e-002 
-2.096065e-002 
-2.254019e-002 
-2.336350e-002 
-2.315576e-002 
-2.244073e-002 
-2.189187e-002 
-2.095328e-002 
-2.012961e-002 
-1.993370e-002 
-2.102022e-002 
-2.198758e-002 
-2.250877e-002 
-2.455962e-002 
-2.898186e-002 
-3.301994e-002 
-3.555100e-002 
-3.786362e-002 
-3.976837e-002 
-4.056997e-002 
-3.952064e-002 
-3.989211e-002 
-4.252198e-002 
-4.546732e-002 
-4.684163e-002 
-4.815052e-002 
-4.985984e-002 
-5.033453e-002 
-4.903862e-002 
-4.634939e-002 
-4.262437e-002 
-3.662412e-002 
-2.902464e-002 
-2.137757e-002 
-1.434764e-002 
-8.743532e-003 
-3.782957e-003 
1.754562e-003 
6.430727e-003 
1.131339e-002 
1.763328e-002 
2.254766e-002 
2.625606e-002 
3.117815e-002 
3.592156e-002 
4.011697e-002 
4.333598e-002 
4.445481e-002 
4.637359e-002 
4.697873e-002 
4.448254e-002 
4.396850e-002 
4.615948e-002 
4.804604e-002 
4.973668e-002 
5.288192e-002 
5.677342e-002 
5.969683e-002 
6.000832e-002 
6.068459e-002 
6.214805e-002 
6.251317e-002 
6.184180e-002 
6.124556e-002 
6.244023e-002 
6.297037e-002 
6.247971e-002 
6.321514e-002 
6.479328e-002 
6.537410e-002 
6.630434e-002 
6.529536e-002 
6.293936e-002 
6.036810e-002 
5.595489e-002 
5.269207e-002 
5.084058e-002 
5.009281e-002 
5.123287e-002 
5.171486e-002 
5.111749e-002 
5.042714e-002 
4.730707e-002 
4.450460e-002 
4.266158e-002 
4.061131e-002 
3.930866e-002 
3.756264e-002 
3.569308e-002 
3.557007e-002 
3.531551e-002 
3.673609e-002 
4.196962e-002 
4.730571e-002 
5.247736e-002 
5.603412e-002 
5.896443e-002 
6.179080e-002 
6.452409e-002 
6.875968e-002 
7.472092e-002 
8.097893e-002 
8.697643e-002 
9.193292e-002 
9.489750e-002 
9.593448e-002 
9.444787e-002 
9.270566e-002 
8.858832e-002 
8.197460e-002 
7.468203e-002 
6.627745e-002 
5.705330e-002 
4.633855e-002 
3.644906e-002 
2.958152e-002 
2.269287e-002 
1.462459e-002 
7.036157e-003 
5.259670e-005 
-6.321980e-003 
-1.112104e-002 
-1.384609e-002 
-1.268164e-002 
-9.793548e-003 
-7.387024e-003 
-2.389241e-003 
4.817119e-003 
1.280211e-002 
2.072354e-002 
2.896780e-002 
3.595483e-002 
4.091067e-002 
4.321090e-002 
4.522971e-002 
4.926621e-002 
5.301030e-002 
5.572465e-002 
5.821575e-002 
6.133834e-002 
6.311409e-002 
6.294076e-002 
6.233469e-002 
6.233528e-002 
6.242216e-002 
6.199723e-002 
6.067288e-002 
6.063665e-002 
6.339681e-002 
6.603997e-002 
6.903840e-002 
7.446079e-002 
7.956380e-002 
8.394578e-002 
8.478505e-002 
8.169085e-002 
7.901642e-002 
7.505894e-002 
6.772025e-002 
6.003153e-002 
5.275905e-002 
4.406947e-002 
3.407576e-002 
2.126303e-002 
9.606443e-003 
-1.242821e-004 
-8.305057e-003 
-1.135216e-002 
-5.769714e-003 
8.815045e-003 
2.960798e-002 
5.298802e-002 
7.650502e-002 
9.932285e-002 
1.193020e-001 
1.413828e-001 
1.652395e-001 
1.891373e-001 
2.113348e-001 
2.266710e-001 
2.330802e-001 
2.335623e-001 
2.297638e-001 
2.263869e-001 
2.249706e-001 
2.192982e-001 
2.092028e-001 
1.930794e-001 
1.694856e-001 
1.415384e-001 
1.143653e-001 
9.125087e-002 
7.505092e-002 
6.325073e-002 
5.474345e-002 
5.007642e-002 
4.784758e-002 
4.626974e-002 
4.570034e-002 
4.722580e-002 
4.979681e-002 
5.214174e-002 
5.263644e-002 
5.130947e-002 
4.843392e-002 
4.494277e-002 
4.105526e-002 
3.900610e-002 
3.855551e-002 
3.789280e-002 
3.778414e-002 
3.830604e-002 
3.889591e-002 
3.960826e-002 
4.065176e-002 
4.043788e-002 
3.932407e-002 
3.662042e-002 
3.306689e-002 
3.122231e-002 
3.128056e-002 
3.129378e-002 
3.215916e-002 
3.394814e-002 
3.514832e-002 
3.582809e-002 
3.574770e-002 
3.447470e-002 
3.328048e-002 
3.145952e-002 
2.731584e-002 
2.376285e-002 
2.142892e-002 
1.969340e-002 
1.844211e-002 
1.846142e-002 
1.839794e-002 
1.891259e-002 
1.770451e-002 
1.378202e-002 
9.621340e-003 
5.075128e-003 
8.456002e-006 
-3.501661e-003 
-5.542108e-003 
-7.129310e-003 
-6.770222e-003 
-6.911284e-003 
-7.820019e-003 
-8.032091e-003 
-8.926345e-003 
-9.915478e-003 
-1.112805e-002 
-1.428667e-002 
-1.645155e-002 
-1.751886e-002 
-1.944688e-002 
-2.087852e-002 
-1.993543e-002 
-1.770937e-002 
-1.539568e-002 
-1.399057e-002 
-1.325279e-002 
-1.309531e-002 
-1.541796e-002 
-1.984396e-002 
-2.448828e-002 
-2.738135e-002 
-3.007073e-002 
-3.255439e-002 
-3.361740e-002 
-3.384872e-002 
-3.391863e-002 
-3.467706e-002 
-3.639370e-002 
-3.787593e-002 
-3.911373e-002 
-4.164569e-002 
-4.330699e-002 
-4.322357e-002 
-4.137982e-002 
-3.792474e-002 
-3.399577e-002 
-2.943816e-002 
-2.285984e-002 
-1.637971e-002 
-1.049342e-002 
-3.671379e-003 
2.150369e-003 
7.459069e-003 
1.128940e-002 
1.362647e-002 
1.701655e-002 
2.206154e-002 
2.594943e-002 
3.049535e-002 
3.559010e-002 
3.860432e-002 
4.068766e-002 
4.047205e-002 
3.942560e-002 
3.717187e-002 
3.386750e-002 
3.046320e-002 
2.886136e-002 
2.700049e-002 
2.571512e-002 
2.683073e-002 
2.746536e-002 
2.690888e-002 
2.556047e-002 
2.531331e-002 
2.440550e-002 
2.338417e-002 
2.203348e-002 
2.211329e-002 
2.219549e-002 
2.119594e-002 
2.165789e-002 
2.453908e-002 
2.764451e-002 
2.993327e-002 
3.283772e-002 
3.338734e-002 
3.202729e-002 
2.925164e-002 
2.558484e-002 
2.390035e-002 
2.327517e-002 
2.229944e-002 
2.288350e-002 
2.350220e-002 
2.272639e-002 
2.281350e-002 
2.180866e-002 
2.089064e-002 
2.034170e-002 
1.818987e-002 
1.579328e-002 
1.324105e-002 
1.105818e-002 
1.108269e-002 
1.328259e-002 
1.742251e-002 
2.351281e-002 
2.877150e-002 
3.401657e-002 
3.749322e-002 
3.990102e-002 
4.285184e-002 
4.556581e-002 
4.817324e-002 
5.102220e-002 
5.231103e-002 
5.332124e-002 
5.554132e-002 
5.661219e-002 
5.724913e-002 
5.557785e-002 
5.089662e-002 
4.450812e-002 
3.613221e-002 
2.553973e-002 
1.648111e-002 
8.294865e-003 
-1.350350e-003 
-1.026534e-002 
-1.819511e-002 
-2.489955e-002 
-2.989336e-002 
-3.461337e-002 
-3.824469e-002 
-3.997691e-002 
-4.094111e-002 
-4.175321e-002 
-4.032639e-002 
-3.751065e-002 
-3.357486e-002 
-2.728200e-002 
-1.911991e-002 
-1.103962e-002 
-1.961877e-003 
6.380900e-003 
1.124176e-002 
1.501782e-002 
1.747989e-002 
2.091823e-002 
2.540476e-002 
2.826088e-002 
3.016661e-002 
3.397103e-002 
3.631699e-002 
3.696752e-002 
3.707675e-002 
3.772454e-002 
3.909487e-002 
3.840662e-002 
3.732541e-002 
3.818602e-002 
4.027040e-002 
4.100346e-002 
4.033755e-002 
3.933242e-002 
3.918279e-002 
3.731296e-002 
3.285093e-002 
2.637695e-002 
1.807514e-002 
7.685863e-003 
-5.649524e-003 
-2.128382e-002 
-3.761481e-002 
-5.357621e-002 
-6.848464e-002 
-7.961643e-002 
-8.356264e-002 
-7.737191e-002 
-6.271502e-002 
-4.168963e-002 
-1.595310e-002 
9.724075e-003 
3.204762e-002 
5.325985e-002 
7.428902e-002 
9.716755e-002 
1.214105e-001 
1.434306e-001 
1.628284e-001 
1.760863e-001 
1.803031e-001 
1.797113e-001 
1.779711e-001 
1.729895e-001 
1.653593e-001 
1.506496e-001 
1.290109e-001 
1.014160e-001 
6.903129e-002 
3.779436e-002 
1.303447e-002 
-5.323324e-003 
-1.813147e-002 
-2.562341e-002 
-3.132641e-002 
-3.372719e-002 
-3.677860e-002 
-3.823266e-002 
-3.762130e-002 
-3.701030e-002 
-3.672246e-002 
-3.555889e-002 
-3.361222e-002 
-3.162331e-002 
-2.964684e-002 
-2.876654e-002 
-2.705527e-002 
-2.682399e-002 
-2.745371e-002 
-3.005006e-002 
-3.346050e-002 
-3.696816e-002 
-3.930098e-002 
-3.928168e-002 
-3.895565e-002 
-3.905882e-002 
-3.874403e-002 
-3.877928e-002 
-4.195771e-002 
-4.579909e-002 
-4.866002e-002 
-4.924395e-002 
-4.971200e-002 
-5.124847e-002 
-5.198670e-002 
-5.111629e-002 
-4.970320e-002 
-4.865154e-002 
-4.685033e-002 
-4.352077e-002 
-4.124391e-002 
-4.196283e-002 
-4.325371e-002 
-4.568318e-002 
-4.766309e-002 
-4.789186e-002 
-4.851245e-002 
-4.885787e-002 
-4.833133e-002 
-4.923846e-002 
-5.062339e-002 
-5.193566e-002 
-5.494855e-002 
-5.755116e-002 
-6.030430e-002 
-6.479131e-002 
-6.921059e-002 
-7.242260e-002 
-7.570692e-002 
-7.777616e-002 
-7.815636e-002 
-7.813121e-002 
-7.794724e-002 
-7.822244e-002 
-7.871702e-002 
-7.954413e-002 
-8.102406e-002 
-8.349106e-002 
-8.426034e-002 
-8.279480e-002 
-8.136232e-002 
-8.030309e-002 
-7.808193e-002 
-7.548389e-002 
-7.394028e-002 
-7.346674e-002 
-7.326404e-002 
-7.250501e-002 
-7.260118e-002 
-7.544706e-002 
-7.832668e-002 
-7.983210e-002 
-8.146087e-002 
-8.241147e-002 
-8.198565e-002 
-8.088600e-002 
-7.959703e-002 
-7.882922e-002 
-7.835402e-002 
-7.728280e-002 
-7.770013e-002 
-7.828026e-002 
-7.729753e-002 
-7.496795e-002 
-7.143516e-002 
-6.670182e-002 
-6.108457e-002 
-5.503431e-002 
-4.939181e-002 
-4.442625e-002 
-3.861738e-002 
-3.317462e-002 
-2.855034e-002 
-2.490270e-002 
-2.230328e-002 
-1.865306e-002 
-1.360114e-002 
-8.773981e-003 
-3.219837e-003 
3.133669e-003 
7.652265e-003 
1.088961e-002 
1.262380e-002 
1.310521e-002 
1.403764e-002 
1.364102e-002 
1.200708e-002 
1.119293e-002 
9.617515e-003 
7.838654e-003 
7.076668e-003 
6.731210e-003 
5.724835e-003 
4.860550e-003 
2.811659e-003 
7.166571e-005 
-4.039466e-003 
-9.232984e-003 
-1.326308e-002 
-1.553631e-002 
-1.598596e-002 
-1.582673e-002 
-1.382964e-002 
-1.135521e-002 
-9.579580e-003 
-1.030136e-002 
-9.764265e-003 
-8.086466e-003 
-6.671919e-003 
-6.532575e-003 
-7.302954e-003 
-6.516614e-003 
-5.312709e-003 
-4.876021e-003 
-3.859272e-003 
-2.437659e-004 
2.100495e-003 
2.445604e-003 
1.413575e-003 
7.354850e-004 
-5.094892e-004 
-2.730084e-003 
-4.295635e-003 
-3.994656e-003 
-2.386603e-003 
-8.400066e-004 
2.223346e-003 
6.721107e-003 
1.062760e-002 
1.317032e-002 
1.640851e-002 
1.941205e-002 
2.130851e-002 
2.136815e-002 
2.055228e-002 
1.983511e-002 
1.756621e-002 
1.485698e-002 
1.390773e-002 
1.381395e-002 
1.217785e-002 
8.366689e-003 
2.836726e-003 
-3.125288e-003 
-1.108223e-002 
-2.073814e-002 
-2.884253e-002 
-3.397712e-002 
-3.806220e-002 
-4.191413e-002 
-4.343838e-002 
-4.148692e-002 
-3.807001e-002 
-3.622160e-002 
-3.401321e-002 
-2.984589e-002 
-2.620060e-002 
-2.417798e-002 
-2.190996e-002 
-1.763437e-002 
-1.271563e-002 
-9.321224e-003 
-5.796862e-003 
-1.016905e-003 
3.719551e-003 
8.704095e-003 
1.271170e-002 
1.611048e-002 
1.747806e-002 
1.523107e-002 
1.314040e-002 
1.165101e-002 
1.014736e-002 
1.229628e-002 
1.673934e-002 
2.137100e-002 
2.737547e-002 
3.112557e-002 
3.435703e-002 
3.752210e-002 
3.733534e-002 
3.650996e-002 
3.562551e-002 
3.165851e-002 
2.554251e-002 
1.756856e-002 
8.061368e-003 
-1.720535e-003 
-1.297607e-002 
-2.590017e-002 
-4.044543e-002 
-5.811707e-002 
-7.795187e-002 
-9.752665e-002 
-1.129347e-001 
-1.225229e-001 
-1.234934e-001 
-1.145342e-001 
-9.522446e-002 
-6.661178e-002 
-3.256810e-002 
3.042625e-003 
3.739883e-002 
6.825917e-002 
9.630825e-002 
1.243230e-001 
1.511250e-001 
1.779148e-001 
2.004904e-001 
2.166843e-001 
2.259487e-001 
2.288415e-001 
2.263895e-001 
2.230315e-001 
2.160497e-001 
2.016645e-001 
1.783865e-001 
1.464013e-001 
1.116273e-001 
7.685060e-002 
4.743437e-002 
2.661202e-002 
1.524539e-002 
8.249162e-003 
3.151956e-003 
-2.816591e-004 
-1.738605e-003 
-3.537692e-003 
-6.543994e-003 
-8.356461e-003 
-9.930838e-003 
-1.133665e-002 
-1.311976e-002 
-1.340878e-002 
-1.083465e-002 
-7.806264e-003 
-6.107881e-003 
-4.151955e-003 
-1.845110e-003 
-2.213840e-003 
-4.798332e-003 
-7.523018e-003 
-8.712436e-003 
-9.816454e-003 
-1.198443e-002 
-1.361368e-002 
-1.361305e-002 
-1.371984e-002 
-1.618082e-002 
-1.835468e-002 
-1.991303e-002 
-2.239816e-002 
-2.781504e-002 
-3.484046e-002 
-4.095124e-002 
-4.506215e-002 
-4.868167e-002 
-5.106520e-002 
-5.166049e-002 
-5.194154e-002 
-5.294847e-002 
-5.565300e-002 
-5.795798e-002 
-5.873268e-002 
-5.959373e-002 
-6.227581e-002 
-6.485481e-002 
-6.684295e-002 
-6.769692e-002 
-6.781614e-002 
-6.658504e-002 
-6.330533e-002 
-5.931149e-002 
-5.735120e-002 
-5.773506e-002 
-5.789856e-002 
-5.747211e-002 
-5.776066e-002 
-5.907400e-002 
-5.922402e-002 
-5.767483e-002 
-5.663403e-002 
-5.702483e-002 
-5.573307e-002 
-5.300897e-002 
-5.155385e-002 
-5.267588e-002 
-5.562517e-002 
-5.778665e-002 
-6.094524e-002 
-6.626935e-002 
-6.895152e-002 
-6.928431e-002 
-7.015325e-002 
-7.034299e-002 
-7.156833e-002 
-7.295418e-002 
-7.333405e-002 
-7.556483e-002 
-7.685963e-002 
-7.665513e-002 
-7.873071e-002 
-7.995176e-002 
-8.005490e-002 
-7.993961e-002 
-7.739074e-002 
-7.285850e-002 
-6.733535e-002 
-6.036281e-002 
-5.554384e-002 
-5.219126e-002 
-4.889020e-002 
-4.632835e-002 
-4.351391e-002 
-4.096243e-002 
-3.703637e-002 
-3.159478e-002 
-2.595596e-002 
-2.137605e-002 
-1.574538e-002 
-1.168177e-002 
-7.920215e-003 
-5.348694e-003 
-4.675317e-003 
-3.509995e-003 
-3.200625e-003 
-3.600282e-003 
-3.942929e-003 
-2.798078e-003 
-6.826408e-004 
4.621072e-003 
9.003702e-003 
1.324492e-002 
1.680947e-002 
1.807519e-002 
1.922731e-002 
1.930973e-002 
1.931812e-002 
1.997440e-002 
2.070016e-002 
2.015142e-002 
2.094857e-002 
2.157969e-002 
2.394870e-002 
2.676935e-002 
2.645112e-002 
2.447018e-002 
2.147796e-002 
1.743356e-002 
1.287362e-002 
9.612547e-003 
8.400893e-003 
7.740485e-003 
5.992057e-003 
4.805687e-003 
4.687544e-003 
5.415478e-003 
6.803712e-003 
7.867200e-003 
8.639435e-003 
7.859829e-003 
5.227313e-003 
3.305266e-003 
2.367393e-003 
2.396155e-003 
4.519835e-003 
7.716537e-003 
1.099935e-002 
1.375468e-002 
1.555413e-002 
1.753736e-002 
1.890997e-002 
1.998680e-002 
2.165823e-002 
2.352042e-002 
2.506670e-002 
2.711608e-002 
2.844933e-002 
3.046684e-002 
3.316822e-002 
3.483041e-002 
3.617366e-002 
3.603065e-002 
3.283927e-002 
2.817288e-002 
2.297511e-002 
1.598926e-002 
1.024557e-002 
5.512451e-003 
6.071328e-004 
-4.286077e-003 
-8.749734e-003 
-1.423242e-002 
-1.916121e-002 
-2.492550e-002 
-3.208621e-002 
-3.683665e-002 
-4.128923e-002 
-4.520941e-002 
-4.574531e-002 
-4.380282e-002 
-4.148241e-002 
-3.637450e-002 
-3.100864e-002 
-2.452636e-002 
-1.785864e-002 
-1.301917e-002 
-7.941211e-003 
-3.944248e-003 
-1.364925e-003 
1.512024e-003 
5.176683e-003 
9.411398e-003 
1.434559e-002 
1.760234e-002 
2.145503e-002 
2.472690e-002 
2.638721e-002 
2.761881e-002 
2.668087e-002 
2.476841e-002 
2.263978e-002 
1.996005e-002 
1.818838e-002 
1.852816e-002 
2.135781e-002 
2.674394e-002 
3.200853e-002 
3.563307e-002 
4.005127e-002 
4.329181e-002 
4.394493e-002 
4.125887e-002 
3.669522e-002 
3.171079e-002 
2.376171e-002 
1.264620e-002 
1.994986e-003 
-7.721223e-003 
-2.128651e-002 
-3.736601e-002 
-5.428541e-002 
-7.041623e-002 
-8.470575e-002 
-9.482960e-002 
-9.644273e-002 
-8.592187e-002 
-6.650677e-002 
-4.189768e-002 
-1.388555e-002 
1.514652e-002 
4.251972e-002 
6.827086e-002 
9.521649e-002 
1.245414e-001 
1.539002e-001 
1.780176e-001 
1.945237e-001 
2.038516e-001 
2.082558e-001 
2.084540e-001 
2.086922e-001 
2.089630e-001 
2.047500e-001 
1.912163e-001 
1.686901e-001 
1.390477e-001 
1.062702e-001 
7.669811e-002 
5.313013e-002 
3.660587e-002 
2.572898e-002 
1.818667e-002 
1.326212e-002 
1.047700e-002 
8.075890e-003 
7.234214e-003 
6.930163e-003 
4.906434e-003 
1.976865e-003 
-2.548132e-003 
-7.877885e-003 
-1.241231e-002 
-1.637419e-002 
-1.895606e-002 
-1.931056e-002 
-1.895994e-002 
-1.789955e-002 
-1.689943e-002 
-1.712735e-002 
-1.670640e-002 
-1.723095e-002 
-1.954066e-002 
-2.177657e-002 
-2.221382e-002 
-2.216091e-002 
-2.193918e-002 
-2.133931e-002 
-2.019496e-002 
-1.749593e-002 
-1.593743e-002 
-1.556876e-002 
-1.478957e-002 
-1.463383e-002 
-1.714794e-002 
-2.127188e-002 
-2.593400e-002 
-2.964303e-002 
-3.211486e-002 
-3.420397e-002 
-3.508167e-002 
-3.594018e-002 
-3.688791e-002 
-3.926726e-002 
-4.308718e-002 
-4.756801e-002 
-5.213461e-002 
-5.655468e-002 
-6.037964e-002 
-6.397420e-002 
-6.723348e-002 
-6.830724e-002 
-6.904411e-002 
-6.897953e-002 
-6.831733e-002 
-6.790617e-002 
-6.814878e-002 
-6.867672e-002 
-7.052236e-002 
-7.310481e-002 
-7.422986e-002 
-7.528694e-002 
-7.593674e-002 
-7.655830e-002 
-7.573810e-002 
-7.397672e-002 
-7.263881e-002 
-7.302270e-002 
-7.370352e-002 
-7.586991e-002 
-8.013400e-002 
-8.453762e-002 
-8.925748e-002 
-9.290576e-002 
-9.604701e-002 
-9.894418e-002 
-1.008936e-001 
-1.027028e-001 
-1.049494e-001 
-1.054954e-001 
-1.061238e-001 
-1.081342e-001 
-1.095781e-001 
-1.100757e-001 
-1.110417e-001 
-1.107013e-001 
-1.091846e-001 
-1.061907e-001 
-1.006696e-001 
-9.462520e-002 
-8.795192e-002 
-8.076403e-002 
-7.560465e-002 
-7.084867e-002 
-6.513548e-002 
-6.120561e-002 
-5.657734e-002 
-5.050757e-002 
-4.481683e-002 
-3.948531e-002 
-3.550180e-002 
-3.042788e-002 
-2.346073e-002 
-1.901325e-002 
-1.640043e-002 
-1.271055e-002 
-9.854175e-003 
-9.876825e-003 
-1.088759e-002 
-1.123171e-002 
-8.982131e-003 
-7.712881e-003 
-8.479853e-003 
-6.803139e-003 
-3.576605e-003 
-2.677575e-003 
-3.457504e-003 
-3.887049e-003 
-4.680332e-003 
-5.764162e-003 
-9.534344e-003 
-1.211750e-002 
-1.139436e-002 
-1.133914e-002 
-1.048568e-002 
-8.634054e-003 
-7.492080e-003 
-6.419957e-003 
-7.170700e-003 
-1.031475e-002 
-1.186871e-002 
-1.422218e-002 
-1.626414e-002 
-1.745005e-002 
-1.979392e-002 
-2.176782e-002 
-2.272242e-002 
-2.363111e-002 
-2.456472e-002 
-2.396260e-002 
-2.327979e-002 
-2.424519e-002 
-2.724087e-002 
-3.026172e-002 
-3.392448e-002 
-3.621391e-002 
-3.784291e-002 
-3.847185e-002 
-3.485899e-002 
-3.206580e-002 
-3.110776e-002 
-2.804684e-002 
-2.517907e-002 
-2.385861e-002 
-2.250496e-002 
-2.230575e-002 
-2.073392e-002 
-1.782536e-002 
-1.606626e-002 
-1.214418e-002 
-6.713836e-003 
-1.852187e-003 
1.972435e-003 
4.175690e-003 
5.520547e-003 
5.177234e-003 
3.161123e-003 
-2.393207e-004 
-4.768049e-003 
-1.008511e-002 
-1.532929e-002 
-2.145534e-002 
-2.712118e-002 
-3.215565e-002 
-3.780729e-002 
-4.295466e-002 
-4.884902e-002 
-5.580976e-002 
-6.340932e-002 
-7.073242e-002 
-7.822180e-002 
-8.507667e-002 
-8.937857e-002 
-9.080515e-002 
-8.975292e-002 
-8.545772e-002 
-7.908085e-002 
-7.191418e-002 
-6.490004e-002 
-5.952078e-002 
-5.416402e-002 
-4.842388e-002 
-4.325966e-002 
-3.641563e-002 
-2.684827e-002 
-1.795891e-002 
-1.113974e-002 
-4.325591e-003 
2.723369e-003 
7.629053e-003 
1.201959e-002 
1.658468e-002 
2.054609e-002 
2.196994e-002 
1.925366e-002 
1.591400e-002 
1.419802e-002 
1.239267e-002 
1.143789e-002 
1.399087e-002 
1.643463e-002 
1.947316e-002 
2.217499e-002 
2.397903e-002 
2.572956e-002 
2.552026e-002 
2.497541e-002 
2.329502e-002 
2.020114e-002 
1.675744e-002 
1.466343e-002 
1.094597e-002 
5.102013e-003 
-3.422400e-003 
-1.521846e-002 
-2.852615e-002 
-4.387819e-002 
-5.860418e-002 
-7.185555e-002 
-8.231907e-002 
-8.850966e-002 
-8.712786e-002 
-7.574948e-002 
-5.330415e-002 
-2.106955e-002 
1.510886e-002 
4.949053e-002 
7.923719e-002 
1.050570e-001 
1.270993e-001 
1.487862e-001 
1.723228e-001 
1.955834e-001 
2.145917e-001 
2.265893e-001 
2.309173e-001 
2.292337e-001 
2.229129e-001 
2.134278e-001 
2.019052e-001 
1.847145e-001 
1.588917e-001 
1.263066e-001 
9.116846e-002 
5.648908e-002 
2.795222e-002 
9.002131e-003 
6.066143e-005 
-2.442884e-003 
-3.429672e-003 
-4.361750e-003 
-6.048021e-003 
-9.267507e-003 
-1.359214e-002 
-1.663705e-002 
-1.824199e-002 
-1.953812e-002 
-2.072696e-002 
-2.235988e-002 
-2.348604e-002 
-2.400352e-002 
-2.501502e-002 
-2.628441e-002 
-2.786721e-002 
-3.050109e-002 
-3.470040e-002 
-3.934236e-002 
-4.360086e-002 
-4.556216e-002 
-4.565993e-002 
-4.582660e-002 
-4.665796e-002 
-4.738168e-002 
-4.820791e-002 
-5.054443e-002 
-5.338936e-002 
-5.560052e-002 
-5.736771e-002 
-6.042431e-002 
-6.486498e-002 
-6.889248e-002 
-7.034981e-002 
-7.045417e-002 
-7.112020e-002 
-7.076710e-002 
-7.032448e-002 
-7.123545e-002 
-7.440865e-002 
-7.823821e-002 
-8.214068e-002 
-8.565207e-002 
-8.842960e-002 
-9.165448e-002 
-9.422703e-002 
-9.521121e-002 
-9.512368e-002 
-9.618233e-002 
-9.649748e-002 
-9.749878e-002 
-9.820096e-002 
-9.890552e-002 
-1.021296e-001 
-1.045719e-001 
-1.043799e-001 
-1.039546e-001 
-1.034105e-001 
-1.003703e-001 
-9.698139e-002 
-9.289110e-002 
-9.022934e-002 
-8.907136e-002 
-8.682460e-002 
-8.576205e-002 
-8.650711e-002 
-8.763318e-002 
-8.887805e-002 
-8.982025e-002 
-9.108027e-002 
-9.216567e-002 
-9.230873e-002 
-9.310649e-002 
-9.465133e-002 
-9.642336e-002 
-1.009662e-001 
-1.062930e-001 
-1.105162e-001 
-1.148257e-001 
-1.182846e-001 
-1.210623e-001 
-1.218245e-001 
-1.194433e-001 
-1.178114e-001 
-1.166014e-001 
-1.122065e-001 
-1.082341e-001 
-1.064698e-001 
-1.043082e-001 
-1.006800e-001 
-9.502291e-002 
-8.821313e-002 
-8.158802e-002 
-7.231924e-002 
-6.241525e-002 
-5.455988e-002 
-4.523142e-002 
-3.498736e-002 
-2.660903e-002 
-1.909758e-002 
-1.383985e-002 
-1.130895e-002 
-9.881384e-003 
-8.909583e-003 
-5.865733e-003 
-8.241355e-004 
2.809661e-003 
6.138605e-003 
8.955693e-003 
8.938196e-003 
7.725326e-003 
5.998869e-003 
5.170769e-003 
3.872896e-003 
1.160214e-003 
-1.303342e-003 
-2.247000e-003 
-2.990927e-003 
-3.036172e-003 
-2.449769e-003 
-1.967795e-003 
-5.977064e-004 
-1.750877e-003 
-4.097834e-003 
-7.062133e-003 
-1.128802e-002 
-1.587372e-002 
-2.056832e-002 
-2.435251e-002 
-2.467509e-002 
-2.299864e-002 
-2.207737e-002 
-2.041346e-002 
-2.020436e-002 
-2.037915e-002 
-2.011013e-002 
-2.126294e-002 
-2.208775e-002 
-2.119861e-002 
-2.068653e-002 
-2.016250e-002 
-1.929520e-002 
-1.747917e-002 
-1.223053e-002 
-7.496910e-003 
-5.061171e-003 
-1.542000e-003 
2.327955e-003 
5.154070e-003 
6.756081e-003 
7.360954e-003 
8.887989e-003 
1.050824e-002 
1.148657e-002 
1.383702e-002 
1.698319e-002 
1.953324e-002 
2.162231e-002 
1.965594e-002 
1.453392e-002 
9.320553e-003 
2.529012e-003 
-5.010715e-003 
-1.324147e-002 
-2.105332e-002 
-2.757184e-002 
-3.451927e-002 
-4.357959e-002 
-5.054578e-002 
-5.574503e-002 
-6.188027e-002 
-6.681810e-002 
-7.001483e-002 
-7.092391e-002 
-7.156141e-002 
-7.184260e-002 
-7.055301e-002 
-6.585272e-002 
-5.979373e-002 
-5.189710e-002 
-4.304380e-002 
-3.423647e-002 
-2.645770e-002 
-2.199504e-002 
-1.848082e-002 
-1.405700e-002 
-9.927562e-003 
-6.410642e-003 
-1.176145e-003 
3.211132e-003 
6.700064e-003 
9.717686e-003 
1.125334e-002 
1.309228e-002 
1.504493e-002 
1.482027e-002 
1.461665e-002 
1.505279e-002 
1.294192e-002 
1.123855e-002 
1.137618e-002 
1.185805e-002 
1.452394e-002 
1.846235e-002 
2.105557e-002 
2.295748e-002 
2.243142e-002 
1.733233e-002 
1.048352e-002 
1.504569e-003 
-1.017722e-002 
-2.235965e-002 
-3.456715e-002 
-4.728958e-002 
-6.051936e-002 
-7.422959e-002 
-8.755874e-002 
-9.821506e-002 
-1.054897e-001 
-1.071001e-001 
-9.730607e-002 
-7.470288e-002 
-4.170383e-002 
-1.162644e-003 
4.142013e-002 
7.912335e-002 
1.109768e-001 
1.398978e-001 
1.676663e-001 
1.978263e-001 
2.277490e-001 
2.529054e-001 
2.686174e-001 
2.704857e-001 
2.618744e-001 
2.510678e-001 
2.389111e-001 
2.249401e-001 
2.095937e-001 
1.861232e-001 
1.531203e-001 
1.117768e-001 
6.895768e-002 
3.204581e-002 
3.938149e-003 
-1.516179e-002 
-2.456773e-002 
-2.786843e-002 
-2.843727e-002 
-2.781478e-002 
-2.748010e-002 
-2.572893e-002 
-2.520218e-002 
-2.501268e-002 
-2.459016e-002 
-2.444591e-002 
-2.513366e-002 
-2.646679e-002 
-3.010648e-002 
-3.256004e-002 
-3.268013e-002 
-3.420431e-002 
-3.543778e-002 
-3.458762e-002 
-3.366042e-002 
-3.478693e-002 
-3.658187e-002 
-3.923891e-002 
-4.081175e-002 
-4.366235e-002 
-4.864663e-002 
-5.190814e-002 
-5.412909e-002 
-5.725935e-002 
-5.918587e-002 
-5.845094e-002 
-5.755888e-002 
-5.710216e-002 
-5.739909e-002 
-5.785549e-002 
-5.971100e-002 
-6.253399e-002 
-6.420107e-002 
-6.542391e-002 
-6.554796e-002 
-6.578132e-002 
-6.543286e-002 
-6.391253e-002 
-6.305855e-002 
-6.369323e-002 
-6.368105e-002 
-6.441900e-002 
-6.777003e-002 
-7.165103e-002 
-7.578250e-002 
-7.950902e-002 
-8.377467e-002 
-8.819739e-002 
-9.200832e-002 
-9.320344e-002 
-9.423947e-002 
-9.717112e-002 
-9.872262e-002 
-1.001090e-001 
-1.037568e-001 
-1.086839e-001 
-1.137050e-001 
-1.169948e-001 
-1.185032e-001 
-1.216432e-001 
-1.237805e-001 
-1.217017e-001 
-1.207649e-001 
-1.219135e-001 
-1.230484e-001 
-1.242908e-001 
-1.250851e-001 
-1.279974e-001 
-1.319729e-001 
-1.324211e-001 
-1.309288e-001 
-1.314851e-001 
-1.306829e-001 
-1.274307e-001 
-1.229699e-001 
-1.179698e-001 
-1.134046e-001 
-1.081312e-001 
-1.023787e-001 
-9.795550e-002 
-9.450268e-002 
-8.997969e-002 
-8.380366e-002 
-7.682100e-002 
-6.866752e-002 
-5.932742e-002 
-4.986001e-002 
-4.002109e-002 
-3.152397e-002 
-2.553688e-002 
-2.003533e-002 
-1.447744e-002 
-9.758673e-003 
-5.014767e-003 
5.693998e-005 
6.157802e-003 
1.228532e-002 
1.681646e-002 
2.231637e-002 
2.801950e-002 
3.245701e-002 
3.563557e-002 
3.602428e-002 
3.647912e-002 
3.685153e-002 
3.528309e-002 
3.551405e-002 
3.692047e-002 
3.743412e-002 
3.923693e-002 
3.924623e-002 
3.839748e-002 
3.880145e-002 
3.605493e-002 
3.174223e-002 
2.772572e-002 
2.287661e-002 
1.948971e-002 
1.673870e-002 
1.408448e-002 
1.425526e-002 
1.472568e-002 
1.420606e-002 
1.470152e-002 
1.354112e-002 
1.247462e-002 
1.161090e-002 
9.032243e-003 
6.957007e-003 
5.384367e-003 
3.623031e-003 
2.991051e-003 
3.311856e-003 
3.739935e-003 
7.299191e-003 
9.284191e-003 
9.449291e-003 
9.205287e-003 
7.815919e-003 
4.832649e-003 
1.652426e-003 
6.069074e-004 
1.900431e-003 
4.750431e-003 
7.485382e-003 
1.176626e-002 
1.559775e-002 
1.836405e-002 
2.040705e-002 
2.314177e-002 
2.722317e-002 
3.020511e-002 
3.232166e-002 
3.357886e-002 
3.368323e-002 
3.309342e-002 
3.378930e-002 
3.591856e-002 
3.836969e-002 
4.013799e-002 
3.964044e-002 
3.658553e-002 
3.137208e-002 
2.521487e-002 
1.895383e-002 
1.448694e-002 
1.052837e-002 
7.019571e-003 
4.280733e-003 
1.530900e-003 
-1.264335e-003 
-4.217565e-003 
-8.438821e-003 
-1.123304e-002 
-1.200640e-002 
-1.318262e-002 
-1.290803e-002 
-1.330454e-002 
-1.300670e-002 
-1.105129e-002 
-8.078376e-003 
-2.946263e-003 
4.667720e-003 
1.166697e-002 
1.653477e-002 
1.993714e-002 
2.108154e-002 
2.256377e-002 
2.458272e-002 
2.836145e-002 
3.249196e-002 
3.586801e-002 
3.864448e-002 
4.114662e-002 
4.359270e-002 
4.454596e-002 
4.576767e-002 
4.817878e-002 
4.999410e-002 
4.959719e-002 
4.814896e-002 
4.787081e-002 
4.790357e-002 
4.649019e-002 
4.537016e-002 
4.550660e-002 
4.262066e-002 
3.531369e-002 
2.511563e-002 
1.129080e-002 
-4.105855e-003 
-2.213799e-002 
-4.028237e-002 
-5.683667e-002 
-7.313168e-002 
-8.790194e-002 
-9.540986e-002 
-9.456268e-002 
-8.601366e-002 
-6.541601e-002 
-3.279038e-002 
8.782402e-003 
5.236911e-002 
9.358567e-002 
1.314634e-001 
1.667478e-001 
1.977049e-001 
2.277272e-001 
2.601097e-001 
2.919405e-001 
3.170654e-001 
3.296574e-001 
3.307583e-001 
3.245635e-001 
3.118969e-001 
2.930374e-001 
2.704413e-001 
2.426329e-001 
2.087634e-001 
1.668206e-001 
1.207459e-001 
8.040654e-002 
4.869668e-002 
2.412237e-002 
8.446994e-003 
4.244599e-004 
-3.347238e-003 
-6.172597e-003 
-1.056408e-002 
-1.362687e-002 
-1.499734e-002 
-1.762754e-002 
-1.946713e-002 
-1.764251e-002 
-1.463086e-002 
-1.259247e-002 
-1.282292e-002 
-1.278549e-002 
-1.275747e-002 
-1.474002e-002 
-1.875031e-002 
-2.170823e-002 
-2.181500e-002 
-2.227121e-002 
-2.384963e-002 
-2.398230e-002 
-2.278863e-002 
-2.367508e-002 
-2.589307e-002 
-2.912839e-002 
-3.084474e-002 
-3.192902e-002 
-3.582105e-002 
-3.932508e-002 
-4.219848e-002 
-4.618515e-002 
-4.896031e-002 
-4.916349e-002 
-5.001722e-002 
-4.994060e-002 
-4.991638e-002 
-5.220291e-002 
-5.470723e-002 
-5.826921e-002 
-6.183317e-002 
-6.337742e-002 
-6.580153e-002 
-6.935248e-002 
-6.994950e-002 
-6.977696e-002 
-7.087232e-002 
-7.155506e-002 
-7.346422e-002 
-7.662164e-002 
-8.053519e-002 
-8.635970e-002 
-9.112989e-002 
-9.447684e-002 
-9.818764e-002 
-1.026405e-001 
-1.061787e-001 
-1.094897e-001 
-1.112068e-001 
-1.136827e-001 
-1.160539e-001 
-1.175699e-001 
-1.197465e-001 
-1.229381e-001 
-1.266940e-001 
-1.295608e-001 
-1.302472e-001 
-1.293610e-001 
-1.299177e-001 
-1.281373e-001 
-1.259232e-001 
-1.238189e-001 
-1.223638e-001 
-1.211313e-001 
-1.189231e-001 
-1.157402e-001 
-1.152665e-001 
-1.143865e-001 
-1.105142e-001 
-1.060355e-001 
-9.999428e-002 
-9.242672e-002 
-8.287028e-002 
-7.246745e-002 
-6.487479e-002 
-6.012537e-002 
-5.429901e-002 
-4.856502e-002 
-4.207412e-002 
-3.444953e-002 
-2.542212e-002 
-1.622633e-002 
-8.660065e-003 
-2.643647e-003 
4.316853e-003 
1.210006e-002 
2.073202e-002 
2.815056e-002 
3.431584e-002 
3.885828e-002 
3.977566e-002 
4.040900e-002 
4.265548e-002 
4.603752e-002 
5.169586e-002 
5.807932e-002 
6.250429e-002 
6.585097e-002 
6.582700e-002 
6.502769e-002 
6.506155e-002 
6.296094e-002 
6.030463e-002 
5.938286e-002 
5.775198e-002 
5.614118e-002 
5.431129e-002 
5.395545e-002 
5.479151e-002 
5.367650e-002 
5.172508e-002 
5.054730e-002 
4.811930e-002 
4.439980e-002 
4.040244e-002 
3.701679e-002 
3.446417e-002 
3.140612e-002 
3.019806e-002 
3.102817e-002 
3.229398e-002 
3.316203e-002 
3.398690e-002 
3.354345e-002 
3.306860e-002 
3.201802e-002 
3.206356e-002 
3.306145e-002 
3.379036e-002 
3.670978e-002 
4.137192e-002 
4.658237e-002 
5.290656e-002 
5.993744e-002 
6.598050e-002 
7.139254e-002 
7.431363e-002 
7.648556e-002 
7.981630e-002 
8.146948e-002 
8.310438e-002 
8.496118e-002 
8.695368e-002 
8.822893e-002 
8.757617e-002 
8.611031e-002 
8.484734e-002 
8.118230e-002 
7.462956e-002 
6.741432e-002 
5.813340e-002 
4.889605e-002 
3.914000e-002 
2.984425e-002 
2.315967e-002 
1.812731e-002 
1.489608e-002 
1.386703e-002 
1.207256e-002 
9.768308e-003 
9.316923e-003 
8.714029e-003 
7.736344e-003 
8.857463e-003 
1.210978e-002 
1.708704e-002 
2.209801e-002 
2.727346e-002 
3.447475e-002 
4.206527e-002 
4.770631e-002 
5.205147e-002 
5.560862e-002 
5.651881e-002 
5.485921e-002 
5.312306e-002 
5.217830e-002 
5.073017e-002 
5.005029e-002 
5.069704e-002 
5.145742e-002 
5.188931e-002 
5.136009e-002 
5.100175e-002 
5.146843e-002 
5.013558e-002 
4.725408e-002 
4.643048e-002 
4.743458e-002 
4.775008e-002 
4.777612e-002 
4.728038e-002 
4.647605e-002 
4.457344e-002 
3.954045e-002 
3.144828e-002 
2.359708e-002 
1.375346e-002 
1.155062e-003 
-1.267600e-002 
-2.690723e-002 
-3.964023e-002 
-5.174916e-002 
-6.180578e-002 
-6.837959e-002 
-7.086981e-002 
-6.884489e-002 
-5.993243e-002 
-4.276988e-002 
-1.521533e-002 
2.086877e-002 
6.125894e-002 
1.041276e-001 
1.429446e-001 
1.779949e-001 
2.111719e-001 
2.424112e-001 
2.722122e-001 
2.987076e-001 
3.175448e-001 
3.267199e-001 
3.261985e-001 
3.166675e-001 
3.049961e-001 
2.916863e-001 
2.757521e-001 
2.543671e-001 
2.256335e-001 
1.915198e-001 
1.546152e-001 
1.185861e-001 
8.711294e-002 
6.376132e-002 
4.719947e-002 
3.596172e-002 
2.747054e-002 
2.286317e-002 
2.254336e-002 
2.251603e-002 
2.311303e-002 
2.408011e-002 
2.495647e-002 
2.560675e-002 
2.479288e-002 
2.161036e-002 
1.945557e-002 
1.675351e-002 
1.288715e-002 
1.044675e-002 
8.259106e-003 
8.168334e-003 
9.907443e-003 
9.672519e-003 
9.033583e-003 
9.884874e-003 
9.674452e-003 
8.653960e-003 
6.583358e-003 
4.310043e-003 
3.934976e-003 
2.844877e-003 
1.885915e-003 
3.691647e-003 
5.814486e-003 
7.606660e-003 
8.595859e-003 
9.263354e-003 
9.439381e-003 
8.183805e-003 
5.759794e-003 
3.541967e-003 
-9.938348e-005 
-3.360084e-003 
-5.324480e-003 
-6.385439e-003 
-6.264335e-003 
-6.614459e-003 
-7.041586e-003 
-8.306229e-003 
-1.129243e-002 
-1.515547e-002 
-1.808174e-002 
-2.116714e-002 
-2.431891e-002 
-2.759821e-002 
-2.931059e-002 
-3.006464e-002 
-3.052215e-002 
-2.965093e-002 
-2.910462e-002 
-2.885571e-002 
-2.960345e-002 
-3.275119e-002 
-3.522095e-002 
-3.683836e-002 
-3.936420e-002 
-3.981331e-002 
-3.911838e-002 
-3.967307e-002 
-3.924278e-002 
-3.901146e-002 
-3.915899e-002 
-3.746604e-002 
-3.769148e-002 
-3.915669e-002 
-4.037008e-002 
-4.357476e-002 
-4.820252e-002 
-5.075787e-002 
-5.169939e-002 
-5.075626e-002 
-4.880497e-002 
-4.792663e-002 
-4.730515e-002 
-4.776065e-002 
-4.827726e-002 
-4.916260e-002 
-4.885185e-002 
-4.710191e-002 
-4.542570e-002 
-4.352655e-002 
-3.927231e-002 
-3.395071e-002 
-2.628714e-002 
-1.597072e-002 
-7.539843e-003 
1.571772e-003 
1.048446e-002 
1.661074e-002 
2.341941e-002 
3.090191e-002 
3.724007e-002 
4.557686e-002 
5.282674e-002 
5.817597e-002 
6.505890e-002 
7.104129e-002 
7.659751e-002 
8.284634e-002 
8.571400e-002 
8.658688e-002 
8.688322e-002 
8.480741e-002 
8.263988e-002 
8.147805e-002 
8.108004e-002 
8.230721e-002 
8.342964e-002 
8.309383e-002 
8.356869e-002 
8.409658e-002 
8.424632e-002 
8.360130e-002 
8.196883e-002 
7.985305e-002 
7.739763e-002 
7.579388e-002 
7.544668e-002 
7.659698e-002 
7.882926e-002 
8.029825e-002 
7.996838e-002 
7.963313e-002 
7.958349e-002 
7.825520e-002 
7.619854e-002 
7.260358e-002 
6.916485e-002 
6.571189e-002 
6.228398e-002 
6.139446e-002 
6.222300e-002 
6.207468e-002 
6.022181e-002 
5.822683e-002 
5.543620e-002 
5.208705e-002 
4.812387e-002 
4.612275e-002 
4.494326e-002 
4.188488e-002 
3.900174e-002 
3.922414e-002 
4.142921e-002 
4.337728e-002 
4.636563e-002 
4.993988e-002 
5.301537e-002 
5.389269e-002 
5.399086e-002 
5.615043e-002 
6.018110e-002 
6.320114e-002 
6.795336e-002 
7.490731e-002 
7.975836e-002 
8.363992e-002 
8.576581e-002 
8.692137e-002 
8.729504e-002 
8.494984e-002 
8.045821e-002 
7.645422e-002 
7.044302e-002 
6.324552e-002 
5.724655e-002 
5.085682e-002 
4.622344e-002 
3.999631e-002 
3.279553e-002 
2.619963e-002 
1.921422e-002 
1.184503e-002 
4.700671e-003 
-1.808917e-003 
-5.491195e-003 
-6.041345e-003 
-5.535627e-003 
-1.557724e-003 
3.483631e-003 
8.994342e-003 
1.471191e-002 
1.854713e-002 
2.242886e-002 
2.810639e-002 
3.343873e-002 
3.730949e-002 
4.058534e-002 
4.408266e-002 
4.743387e-002 
4.963909e-002 
5.142212e-002 
5.595104e-002 
6.003907e-002 
6.078840e-002 
6.002645e-002 
5.797585e-002 
5.449365e-002 
4.903085e-002 
4.542311e-002 
4.523908e-002 
4.736216e-002 
4.850580e-002 
5.154043e-002 
5.567839e-002 
5.796598e-002 
5.893890e-002 
5.920979e-002 
6.039040e-002 
5.877902e-002 
5.364787e-002 
4.657150e-002 
3.868298e-002 
2.971530e-002 
2.073415e-002 
1.053956e-002 
-6.361789e-004 
-1.306312e-002 
-2.763945e-002 
-3.818141e-002 
-4.295095e-002 
-3.799180e-002 
-2.176319e-002 
-1.097366e-004 
2.128478e-002 
4.034603e-002 
5.669203e-002 
7.376882e-002 
9.385878e-002 
1.156899e-001 
1.406008e-001 
1.615717e-001 
1.743119e-001 
1.789755e-001 
1.785036e-001 
1.778712e-001 
1.796038e-001 
1.798555e-001 
1.761817e-001 
1.660263e-001 
1.480221e-001 
1.240078e-001 
9.657954e-002 
7.066702e-002 
5.130196e-002 
3.869528e-002 
2.910734e-002 
2.299402e-002 
2.077007e-002 
2.024158e-002 
1.989763e-002 
2.061146e-002 
2.103783e-002 
2.317199e-002 
2.320581e-002 
2.042574e-002 
1.820221e-002 
1.455110e-002 
1.039740e-002 
8.443716e-003 
5.464640e-003 
3.104548e-003 
2.965684e-003 
1.384222e-003 
1.131765e-003 
7.768792e-004 
-1.122866e-003 
-2.120942e-003 
-4.580263e-003 
-8.712124e-003 
-1.002163e-002 
-1.214579e-002 
-1.491299e-002 
-1.685977e-002 
-1.905921e-002 
-1.946930e-002 
-1.889944e-002 
-1.885811e-002 
-1.812746e-002 
-1.853238e-002 
-2.186974e-002 
-2.501416e-002 
-2.855029e-002 
-3.151173e-002 
-3.275427e-002 
-3.459683e-002 
-3.593083e-002 
-3.628698e-002 
-3.752031e-002 
-3.800987e-002 
-3.832017e-002 
-4.062498e-002 
-4.325317e-002 
-4.636030e-002 
-4.993473e-002 
-5.240925e-002 
-5.446201e-002 
-5.553484e-002 
-5.691193e-002 
-5.906323e-002 
-5.946328e-002 
-5.812975e-002 
-5.657132e-002 
-5.633580e-002 
-5.723756e-002 
-5.790558e-002 
-6.058384e-002 
-6.382291e-002 
-6.375048e-002 
-6.117412e-002 
-5.836990e-002 
-5.610728e-002 
-5.358869e-002 
-5.063959e-002 
-4.949158e-002 
-4.996408e-002 
-4.994717e-002 
-5.054148e-002 
-5.231346e-002 
-5.443932e-002 
-5.688294e-002 
-5.850635e-002 
-6.063721e-002 
-6.197762e-002 
-6.233077e-002 
-6.264291e-002 
-6.262326e-002 
-6.238600e-002 
-6.349318e-002 
-6.607057e-002 
-6.750052e-002 
-6.837354e-002 
-6.728349e-002 
-6.493236e-002 
-6.089678e-002 
-5.551474e-002 
-4.973597e-002 
-4.447691e-002 
-3.747188e-002 
-3.032338e-002 
-2.482029e-002 
-1.958222e-002 
-1.531723e-002 
-1.094578e-002 
-6.223322e-003 
-2.053601e-003 
4.057514e-003 
1.132820e-002 
1.716238e-002 
2.322370e-002 
2.787142e-002 
3.122124e-002 
3.378299e-002 
3.452455e-002 
3.435367e-002 
3.524789e-002 
3.431110e-002 
3.375391e-002 
3.408479e-002 
3.426649e-002 
3.584912e-002 
3.715741e-002 
3.762693e-002 
3.750189e-002 
3.549647e-002 
3.072179e-002 
2.726713e-002 
2.407668e-002 
2.222827e-002 
2.154585e-002 
2.088336e-002 
2.128119e-002 
2.176595e-002 
2.099084e-002 
2.147571e-002 
2.302599e-002 
2.282627e-002 
2.196860e-002 
1.987596e-002 
1.775114e-002 
1.606089e-002 
1.436962e-002 
1.354490e-002 
1.480186e-002 
1.543863e-002 
1.593196e-002 
1.629434e-002 
1.518010e-002 
1.341203e-002 
1.075365e-002 
6.937289e-003 
4.123052e-003 
3.324681e-003 
4.238531e-003 
7.529309e-003 
1.116633e-002 
1.588985e-002 
2.139194e-002 
2.492428e-002 
2.690036e-002 
3.102362e-002 
3.504326e-002 
3.713812e-002 
3.792934e-002 
3.820363e-002 
4.002767e-002 
4.126524e-002 
4.206694e-002 
4.405082e-002 
4.649237e-002 
4.558669e-002 
4.078140e-002 
3.428841e-002 
2.733498e-002 
1.964498e-002 
1.162392e-002 
4.549936e-003 
-2.434410e-003 
-7.877100e-003 
-1.267203e-002 
-1.714632e-002 
-2.050967e-002 
-2.373216e-002 
-2.616133e-002 
-2.781880e-002 
-2.996883e-002 
-3.167306e-002 
-3.058910e-002 
-2.945955e-002 
-2.798567e-002 
-2.540868e-002 
-2.034767e-002 
-1.211831e-002 
-5.362303e-003 
1.708432e-004 
6.145151e-003 
1.115358e-002 
1.308963e-002 
1.533969e-002 
1.915102e-002 
2.423721e-002 
2.807817e-002 
2.991564e-002 
3.406207e-002 
3.895834e-002 
4.216250e-002 
4.408630e-002 
4.731620e-002 
4.943837e-002 
5.026225e-002 
4.970725e-002 
5.045258e-002 
5.323458e-002 
5.454092e-002 
5.562014e-002 
5.645007e-002 
5.651834e-002 
5.402568e-002 
4.968941e-002 
4.218740e-002 
3.347936e-002 
2.327715e-002 
1.028595e-002 
-3.807478e-003 
-1.916640e-002 
-3.610533e-002 
-5.238794e-002 
-6.636964e-002 
-7.767510e-002 
-8.358413e-002 
-8.263629e-002 
-7.342735e-002 
-5.538864e-002 
-3.274292e-002 
-9.420099e-003 
1.600950e-002 
3.917753e-002 
5.954558e-002 
8.143414e-002 
1.076601e-001 
1.362379e-001 
1.616566e-001 
1.792683e-001 
1.907218e-001 
1.961767e-001 
1.938951e-001 
1.915459e-001 
1.901929e-001 
1.852651e-001 
1.733212e-001 
1.537889e-001 
1.295560e-001 
1.044559e-001 
8.043855e-002 
6.100135e-002 
4.921105e-002 
4.039896e-002 
3.306016e-002 
2.753481e-002 
2.268841e-002 
1.861601e-002 
1.565475e-002 
1.332346e-002 
1.244817e-002 
1.341984e-002 
1.383593e-002 
1.397992e-002 
1.338299e-002 
1.243243e-002 
1.068653e-002 
7.956041e-003 
5.502146e-003 
5.084960e-003 
4.386168e-003 
3.545983e-003 
4.180024e-003 
5.637527e-003 
6.835674e-003 
6.259949e-003 
5.973089e-003 
5.629707e-003 
3.859065e-003 
-5.522506e-004 
-4.137320e-003 
-6.243566e-003 
-7.807909e-003 
-9.729817e-003 
-1.041648e-002 
-9.883500e-003 
-1.056401e-002 
-1.167124e-002 
-1.351433e-002 
-1.420496e-002 
-1.480830e-002 
-1.683371e-002 
-1.937498e-002 
-2.031745e-002 
-2.119652e-002 
-2.159422e-002 
-2.022540e-002 
-1.847116e-002 
-1.661776e-002 
-1.597352e-002 
-1.654163e-002 
-1.716172e-002 
-1.794085e-002 
-2.067094e-002 
-2.245133e-002 
-2.359583e-002 
-2.535596e-002 
-2.609890e-002 
-2.527519e-002 
-2.441111e-002 
-2.395245e-002 
-2.474301e-002 
-2.672568e-002 
-2.844242e-002 
-3.112475e-002 
-3.370987e-002 
-3.522711e-002 
-3.648993e-002 
-3.792598e-002 
-3.810413e-002 
-3.787446e-002 
-3.704524e-002 
-3.568674e-002 
-3.448008e-002 
-3.381721e-002 
-3.365246e-002 
-3.510300e-002 
-3.779018e-002 
-4.108417e-002 
-4.459027e-002 
-4.559131e-002 
-4.490071e-002 
-4.409835e-002 
-4.260803e-002 
-4.175355e-002 
-4.286727e-002 
-4.421119e-002 
-4.571203e-002 
-4.576746e-002 
-4.478580e-002 
-4.526153e-002 
-4.511148e-002 
-4.442612e-002 
-4.340139e-002 
-3.947646e-002 
-3.387339e-002 
-2.711420e-002 
-1.952536e-002 
-1.470205e-002 
-1.096789e-002 
-7.084271e-003 
-4.626056e-003 
-3.919038e-004 
5.086016e-003 
9.562182e-003 
1.565078e-002 
2.175622e-002 
2.738584e-002 
3.432293e-002 
3.964129e-002 
4.289540e-002 
4.606880e-002 
4.725626e-002 
4.784317e-002 
4.849648e-002 
4.909744e-002 
5.071409e-002 
5.125758e-002 
5.039725e-002 
5.052891e-002 
5.106275e-002 
5.076404e-002 
5.019621e-002 
4.749031e-002 
4.409840e-002 
3.947177e-002 
3.318718e-002 
2.865491e-002 
2.696306e-002 
2.558849e-002 
2.524170e-002 
2.455394e-002 
2.306369e-002 
2.285705e-002 
2.090047e-002 
1.727741e-002 
1.612469e-002 
1.439310e-002 
1.168422e-002 
1.078600e-002 
1.074858e-002 
1.207489e-002 
1.422564e-002 
1.528553e-002 
1.742337e-002 
2.072877e-002 
2.053415e-002 
2.029702e-002 
2.098526e-002 
2.033445e-002 
1.890375e-002 
1.921302e-002 
2.035880e-002 
2.280164e-002 
2.654669e-002 
2.953620e-002 
3.331670e-002 
3.674074e-002 
3.697249e-002 
3.615052e-002 
3.547646e-002 
3.211962e-002 
2.943035e-002 
2.687751e-002 
2.283270e-002 
1.996217e-002 
1.747104e-002 
1.375361e-002 
1.073093e-002 
6.635926e-003 
8.430958e-004 
-5.314736e-003 
-1.410203e-002 
-2.284568e-002 
-2.921629e-002 
-3.340043e-002 
-3.494839e-002 
-3.377894e-002 
-3.145962e-002 
-2.774088e-002 
-2.480561e-002 
-2.081166e-002 
-1.539668e-002 
-1.135007e-002 
-7.337708e-003 
-3.891693e-003 
-1.487546e-003 
1.292011e-003 
4.565351e-003 
9.011203e-003 
1.722081e-002 
2.363550e-002 
2.752421e-002 
3.045656e-002 
3.171790e-002 
3.219716e-002 
3.183039e-002 
3.045004e-002 
3.036103e-002 
3.140634e-002 
3.066457e-002 
3.072197e-002 
3.385135e-002 
3.965561e-002 
4.511653e-002 
4.744816e-002 
4.726034e-002 
4.501112e-002 
3.891804e-002 
2.897183e-002 
1.887375e-002 
9.672399e-003 
-4.264866e-004 
-1.265553e-002 
-2.716447e-002 
-4.267418e-002 
-5.926276e-002 
-7.618420e-002 
-9.065420e-002 
-1.009705e-001 
-1.048085e-001 
-9.880341e-002 
-8.346689e-002 
-6.154357e-002 
-3.680788e-002 
-1.334169e-002 
8.848557e-003 
3.017005e-002 
5.073426e-002 
7.535540e-002 
1.025242e-001 
1.262478e-001 
1.434757e-001 
1.524502e-001 
1.553518e-001 
1.575126e-001 
1.593024e-001 
1.607998e-001 
1.617608e-001 
1.542948e-001 
1.368263e-001 
1.133125e-001 
8.586941e-002 
6.072644e-002 
4.239149e-002 
2.996282e-002 
2.247126e-002 
1.803362e-002 
1.510904e-002 
1.468008e-002 
1.547366e-002 
1.519669e-002 
1.531223e-002 
1.544714e-002 
1.388731e-002 
1.035478e-002 
7.433231e-003 
5.068085e-003 
2.829328e-003 
1.948947e-003 
1.167082e-003 
1.299152e-003 
3.216048e-003 
5.670192e-003 
8.148874e-003 
1.054938e-002 
1.099289e-002 
1.137638e-002 
1.130678e-002 
8.560967e-003 
6.972177e-003 
6.203501e-003 
5.906798e-003 
5.992875e-003 
5.513284e-003 
6.180232e-003 
8.232822e-003 
7.819338e-003 
4.845728e-003 
1.520701e-003 
-2.998673e-003 
-7.748517e-003 
-1.315132e-002 
-1.753474e-002 
-1.945714e-002 
-2.084290e-002 
-2.239070e-002 
-2.310134e-002 
-2.375262e-002 
-2.472678e-002 
-2.504459e-002 
-2.533488e-002 
-2.629868e-002 
-2.908863e-002 
-3.146678e-002 
-3.241812e-002 
-3.436835e-002 
-3.571177e-002 
-3.380289e-002 
-3.018689e-002 
-2.770568e-002 
-2.730990e-002 
-2.831938e-002 
-2.864936e-002 
-3.128870e-002 
-3.613705e-002 
-3.931736e-002 
-4.177229e-002 
-4.492617e-002 
-4.657351e-002 
-4.780110e-002 
-4.851351e-002 
-4.815404e-002 
-4.966174e-002 
-5.181728e-002 
-5.430263e-002 
-5.785186e-002 
-6.185702e-002 
-6.438908e-002 
-6.775272e-002 
-7.000633e-002 
-7.092422e-002 
-7.209285e-002 
-7.179433e-002 
-7.011037e-002 
-6.846490e-002 
-6.657485e-002 
-6.378477e-002 
-6.355347e-002 
-6.298234e-002 
-6.172483e-002 
-5.997072e-002 
-5.684109e-002 
-5.173574e-002 
-4.569068e-002 
-3.909714e-002 
-3.266445e-002 
-2.770072e-002 
-2.199883e-002 
-1.696834e-002 
-1.410409e-002 
-1.189168e-002 
-8.970623e-003 
-6.682179e-003 
-3.937047e-003 
-6.120754e-004 
2.568042e-003 
6.420190e-003 
9.973924e-003 
1.197009e-002 
1.400166e-002 
1.615085e-002 
1.725524e-002 
1.748717e-002 
1.640980e-002 
1.536551e-002 
1.655467e-002 
1.813534e-002 
2.029862e-002 
2.366052e-002 
2.628626e-002 
2.788720e-002 
2.786916e-002 
2.619380e-002 
2.496732e-002 
2.265650e-002 
1.825329e-002 
1.409056e-002 
9.918756e-003 
7.110758e-003 
5.373758e-003 
3.581852e-003 
1.682895e-003 
-6.563919e-004 
-4.869469e-003 
-8.711206e-003 
-1.338800e-002 
-1.842026e-002 
-2.192003e-002 
-2.591587e-002 
-2.924429e-002 
-3.178131e-002 
-3.241443e-002 
-3.087171e-002 
-2.829470e-002 
-2.732720e-002 
-2.625759e-002 
-2.472137e-002 
-2.376484e-002 
-2.350293e-002 
-2.287623e-002 
-2.077512e-002 
-1.895743e-002 
-1.594828e-002 
-1.275931e-002 
-8.060500e-003 
-4.178530e-004 
6.437054e-003 
1.071544e-002 
1.476067e-002 
1.726213e-002 
1.743178e-002 
1.840063e-002 
1.893616e-002 
2.092302e-002 
2.371302e-002 
2.494288e-002 
2.577533e-002 
2.663208e-002 
2.465389e-002 
2.163296e-002 
1.955941e-002 
1.544361e-002 
9.228086e-003 
2.745537e-003 
-3.491433e-003 
-9.824699e-003 
-1.606395e-002 
-2.149471e-002 
-2.345995e-002 
-2.573647e-002 
-2.930355e-002 
-3.297793e-002 
-3.655039e-002 
-4.000415e-002 
-4.238862e-002 
-4.285513e-002 
-4.020165e-002 
-3.623461e-002 
-3.200112e-002 
-2.608974e-002 
-2.053989e-002 
-1.414083e-002 
-6.894614e-003 
8.298841e-004 
8.123640e-003 
1.307833e-002 
1.617179e-002 
1.939473e-002 
2.183007e-002 
2.491369e-002 
2.866393e-002 
3.289662e-002 
3.727848e-002 
3.908096e-002 
3.908017e-002 
3.922851e-002 
3.800673e-002 
3.556443e-002 
3.337683e-002 
3.091503e-002 
3.007841e-002 
3.053181e-002 
3.243402e-002 
3.636057e-002 
4.057583e-002 
4.371405e-002 
4.588061e-002 
4.612662e-002 
4.322227e-002 
3.872960e-002 
3.229501e-002 
2.433253e-002 
1.436035e-002 
3.165554e-003 
-8.052169e-003 
-2.111949e-002 
-3.647514e-002 
-5.428832e-002 
-7.216860e-002 
-8.759838e-002 
-1.001299e-001 
-1.088881e-001 
-1.093413e-001 
-1.005397e-001 
-8.398724e-002 
-6.036950e-002 
-3.348631e-002 
-4.044063e-003 
2.524603e-002 
5.028803e-002 
7.464188e-002 
1.005568e-001 
1.263828e-001 
1.492409e-001 
1.656535e-001 
1.749837e-001 
1.801869e-001 
1.820431e-001 
1.825669e-001 
1.834065e-001 
1.805001e-001 
1.704866e-001 
1.516686e-001 
1.261179e-001 
9.876698e-002 
7.454761e-002 
5.531462e-002 
4.240428e-002 
3.420578e-002 
2.916417e-002 
2.775446e-002 
2.875340e-002 
2.945347e-002 
3.029453e-002 
3.060500e-002 
2.987552e-002 
2.822325e-002 
2.434822e-002 
2.163655e-002 
2.009440e-002 
1.749293e-002 
1.521849e-002 
1.522898e-002 
1.650415e-002 
2.003211e-002 
2.105484e-002 
2.106179e-002 
2.360506e-002 
2.394937e-002 
2.301033e-002 
2.281263e-002 
2.167158e-002 
2.096662e-002 
1.998343e-002 
1.694970e-002 
1.822141e-002 
2.143275e-002 
2.284044e-002 
2.345527e-002 
2.231076e-002 
1.896454e-002 
1.583366e-002 
1.119963e-002 
6.083283e-003 
3.925037e-003 
1.812544e-003 
-4.319804e-004 
-2.719047e-003 
-4.280764e-003 
-5.513724e-003 
-5.919921e-003 
-8.055159e-003 
-1.094097e-002 
-1.443419e-002 
-1.945913e-002 
-2.369595e-002 
-2.749797e-002 
-3.041724e-002 
-3.272844e-002 
-3.291403e-002 
-3.319789e-002 
-3.429249e-002 
-3.553505e-002 
-3.653049e-002 
-3.796504e-002 
-4.157841e-002 
-4.566812e-002 
-4.931909e-002 
-5.284825e-002 
-5.695164e-002 
-5.946040e-002 
-6.034669e-002 
-6.026176e-002 
-6.121801e-002 
-6.288040e-002 
-6.403582e-002 
-6.702806e-002 
-7.076818e-002 
-7.402347e-002 
-7.778752e-002 
-8.220232e-002 
-8.525974e-002 
-8.706017e-002 
-8.651480e-002 
-8.563309e-002 
-8.390293e-002 
-8.075908e-002 
-7.888760e-002 
-7.896798e-002 
-7.849189e-002 
-7.622901e-002 
-7.266218e-002 
-6.910700e-002 
-6.397413e-002 
-5.666812e-002 
-4.954124e-002 
-4.193513e-002 
-3.345443e-002 
-2.409609e-002 
-1.458972e-002 
-6.519120e-003 
7.490768e-006 
5.859024e-003 
9.584792e-003 
1.242016e-002 
1.507836e-002 
1.795239e-002 
2.054692e-002 
2.533481e-002 
2.972165e-002 
3.229673e-002 
3.383585e-002 
3.395325e-002 
3.280718e-002 
3.099770e-002 
2.835997e-002 
2.640865e-002 
2.710997e-002 
2.699198e-002 
2.795093e-002 
3.036295e-002 
3.244176e-002 
3.460723e-002 
3.622646e-002 
3.647705e-002 
3.687307e-002 
3.729289e-002 
3.661187e-002 
3.542492e-002 
3.345802e-002 
3.176145e-002 
3.157526e-002 
3.115763e-002 
3.157406e-002 
3.187300e-002 
3.124606e-002 
2.846095e-002 
2.431201e-002 
1.975653e-002 
1.647182e-002 
1.409729e-002 
1.106082e-002 
8.989203e-003 
7.698222e-003 
7.771850e-003 
8.135136e-003 
8.709622e-003 
9.681087e-003 
1.072650e-002 
9.300196e-003 
6.182174e-003 
4.464629e-003 
3.866995e-003 
4.590054e-003 
6.608500e-003 
9.877253e-003 
1.470557e-002 
1.929279e-002 
2.246201e-002 
2.621614e-002 
3.083922e-002 
3.366647e-002 
3.599709e-002 
3.759501e-002 
3.897362e-002 
4.116813e-002 
4.215296e-002 
4.325247e-002 
4.644554e-002 
4.748283e-002 
4.574248e-002 
4.442873e-002 
4.083382e-002 
3.562431e-002 
2.985252e-002 
2.262401e-002 
1.573014e-002 
8.010642e-003 
-7.155462e-004 
-6.221096e-003 
-9.961262e-003 
-1.547565e-002 
-1.938276e-002 
-2.158898e-002 
-2.443625e-002 
-2.626509e-002 
-2.676958e-002 
-2.527353e-002 
-2.159470e-002 
-1.807176e-002 
-1.510569e-002 
-1.007440e-002 
-3.429169e-003 
3.355059e-003 
1.030187e-002 
1.561780e-002 
1.977841e-002 
2.313094e-002 
2.296845e-002 
2.167032e-002 
2.240127e-002 
2.354692e-002 
2.370080e-002 
2.343552e-002 
2.256562e-002 
2.105010e-002 
1.825448e-002 
1.585946e-002 
1.468650e-002 
1.346748e-002 
1.231316e-002 
1.196227e-002 
1.246331e-002 
1.281695e-002 
1.434917e-002 
1.837603e-002 
2.235707e-002 
2.307421e-002 
2.202298e-002 
1.939626e-002 
1.406730e-002 
6.172330e-003 
-3.341025e-003 
-1.484228e-002 
-2.953849e-002 
-4.721025e-002 
-6.583335e-002 
-8.212528e-002 
-9.576518e-002 
-1.063305e-001 
-1.122600e-001 
-1.121019e-001 
-1.043928e-001 
-8.779541e-002 
-6.490212e-002 
-3.773901e-002 
-8.476895e-003 
1.725766e-002 
3.992424e-002 
6.403020e-002 
9.187150e-002 
1.215825e-001 
1.479778e-001 
1.681964e-001 
1.825603e-001 
1.891681e-001 
1.880661e-001 
1.862979e-001 
1.854618e-001 
1.806165e-001 
1.682170e-001 
1.492467e-001 
1.263775e-001 
1.011909e-001 
7.629310e-002 
5.609294e-002 
4.414100e-002 
3.585695e-002 
2.865931e-002 
2.442594e-002 
2.309329e-002 
2.049089e-002 
1.698524e-002 
1.558436e-002 
1.642489e-002 
1.728875e-002 
1.584640e-002 
1.344103e-002 
1.173362e-002 
8.075306e-003 
2.171887e-003 
-1.412589e-003 
-2.833755e-003 
-4.180534e-003 
-5.292998e-003 
-6.522343e-003 
-7.353522e-003 
-6.149822e-003 
-5.323462e-003 
-4.044874e-003 
-2.738116e-003 
-2.185224e-003 
-3.037639e-003 
-4.913573e-003 
-8.278282e-003 
-1.023390e-002 
-9.519487e-003 
-7.918373e-003 
-6.081225e-003 
-5.413762e-003 
-4.914473e-003 
-6.001771e-003 
-8.848371e-003 
-1.190553e-002 
-1.305887e-002 
-1.466055e-002 
-1.650451e-002 
-1.911570e-002 
-2.196142e-002 
-2.357116e-002 
-2.476623e-002 
-2.520095e-002 
-2.424961e-002 
-2.419160e-002 
-2.623069e-002 
-2.827201e-002 
-3.128511e-002 
-3.465836e-002 
-3.649629e-002 
-3.648523e-002 
-3.649732e-002 
-3.723259e-002 
-3.682059e-002 
-3.610292e-002 
-3.603772e-002 
-3.587434e-002 
-3.568050e-002 
-3.587876e-002 
-3.646041e-002 
-3.914080e-002 
-4.108280e-002 
-4.150502e-002 
-4.364074e-002 
-4.404588e-002 
-4.338734e-002 
-4.393140e-002 
-4.483918e-002 
-4.639274e-002 
-4.960781e-002 
-5.233408e-002 
-5.758099e-002 
-6.300919e-002 
-6.647365e-002 
-6.998278e-002 
-7.166992e-002 
-7.266279e-002 
-7.303075e-002 
-7.158236e-002 
-7.068365e-002 
-7.099651e-002 
-6.884243e-002 
-6.739457e-002 
-6.550219e-002 
-6.403837e-002 
-6.229389e-002 
-5.810985e-002 
-5.355795e-002 
-4.924149e-002 
-4.110490e-002 
-3.252307e-002 
-2.599976e-002 
-1.875599e-002 
-1.296541e-002 
-7.543720e-003 
-3.688695e-003 
-1.310551e-003 
1.804231e-003 
6.012367e-003 
8.249936e-003 
1.127193e-002 
1.675896e-002 
2.091661e-002 
2.293517e-002 
2.438798e-002 
2.522599e-002 
2.355023e-002 
2.143288e-002 
1.947604e-002 
1.727761e-002 
1.581117e-002 
1.413192e-002 
1.381163e-002 
1.526901e-002 
1.571561e-002 
1.545743e-002 
1.717301e-002 
1.749991e-002 
1.546134e-002 
1.333131e-002 
1.176625e-002 
1.014303e-002 
8.625385e-003 
8.423754e-003 
1.023999e-002 
1.292804e-002 
1.466200e-002 
1.458286e-002 
1.324735e-002 
1.216411e-002 
1.041955e-002 
8.453184e-003 
6.832714e-003 
4.783238e-003 
2.101716e-003 
-8.325624e-005 
-2.188775e-003 
-2.427457e-003 
-5.569658e-004 
6.287617e-004 
1.765904e-004 
-1.564442e-003 
-5.177917e-003 
-9.071079e-003 
-1.196787e-002 
-1.361676e-002 
-1.397870e-002 
-1.324965e-002 
-1.160246e-002 
-8.157462e-003 
-4.115827e-003 
-1.231158e-003 
2.165870e-003 
5.600627e-003 
8.483197e-003 
9.688313e-003 
1.064576e-002 
1.287672e-002 
1.566171e-002 
1.686196e-002 
1.824343e-002 
2.019825e-002 
2.242045e-002 
2.366580e-002 
2.222463e-002 
1.973810e-002 
1.669816e-002 
1.189636e-002 
4.958229e-003 
-3.323270e-003 
-1.113753e-002 
-1.669969e-002 
-2.272358e-002 
-2.903066e-002 
-3.333757e-002 
-3.720425e-002 
-4.176771e-002 
-4.752381e-002 
-5.117901e-002 
-5.098820e-002 
-4.995755e-002 
-4.862736e-002 
-4.589121e-002 
-4.248549e-002 
-3.833680e-002 
-3.239085e-002 
-2.470900e-002 
-1.461777e-002 
-6.307030e-003 
-1.981381e-004 
4.954723e-003 
8.121171e-003 
1.058590e-002 
1.416315e-002 
1.817567e-002 
2.185302e-002 
2.435194e-002 
2.546624e-002 
2.678180e-002 
2.724206e-002 
2.567961e-002 
2.411835e-002 
2.336229e-002 
2.230239e-002 
2.093217e-002 
2.021679e-002 
2.216523e-002 
2.496817e-002 
2.727455e-002 
2.891793e-002 
3.155060e-002 
3.301469e-002 
2.975804e-002 
2.225998e-002 
1.347322e-002 
3.183806e-003 
-1.098184e-002 
-2.772982e-002 
-4.609870e-002 
-6.418148e-002 
-8.317174e-002 
-1.010686e-001 
-1.133734e-001 
-1.185533e-001 
-1.175516e-001 
-1.090291e-001 
-9.315531e-002 
-7.090924e-002 
-4.688471e-002 
-2.463917e-002 
-1.892531e-003 
2.112391e-002 
4.428802e-002 
7.120937e-002 
9.990480e-002 
1.264051e-001 
1.479063e-001 
1.586336e-001 
1.633614e-001 
1.658069e-001 
1.643154e-001 
1.609777e-001 
1.554241e-001 
1.418586e-001 
1.218153e-001 
9.578008e-002 
6.770253e-002 
4.611339e-002 
2.971041e-002 
1.654325e-002 
8.428366e-003 
3.789765e-003 
-3.424506e-004 
-3.306823e-003 
-5.646997e-003 
-6.025595e-003 
-5.746440e-003 
-6.853119e-003 
-7.685986e-003 
-6.053541e-003 
-4.837537e-003 
-6.784771e-003 
-8.558179e-003 
-9.845513e-003 
-1.316337e-002 
-1.671595e-002 
-1.827277e-002 
-1.795173e-002 
-1.596602e-002 
-1.562254e-002 
-1.576767e-002 
-1.389871e-002 
-1.356323e-002 
-1.532150e-002 
-1.562340e-002 
-1.723007e-002 
-2.023953e-002 
-2.281634e-002 
-2.585777e-002 
-2.583361e-002 
-2.395756e-002 
-2.341164e-002 
-2.192974e-002 
-2.054034e-002 
-2.229894e-002 
-2.430784e-002 
-2.665857e-002 
-2.935436e-002 
-3.093891e-002 
-3.373958e-002 
-3.773681e-002 
-4.089865e-002 
-4.400553e-002 
-4.606665e-002 
-4.694390e-002 
-4.789207e-002 
-4.901371e-002 
-5.138580e-002 
-5.577002e-002 
-6.149221e-002 
-6.643632e-002 
-6.952878e-002 
-7.177251e-002 
-7.451379e-002 
-7.472871e-002 
-7.378798e-002 
-7.335495e-002 
-7.296818e-002 
-7.313142e-002 
-7.252546e-002 
-7.202383e-002 
-7.364580e-002 
-7.431119e-002 
-7.340417e-002 
-7.386124e-002 
-7.312441e-002 
-7.157838e-002 
-7.057835e-002 
-6.866610e-002 
-6.805814e-002 
-6.815775e-002 
-6.858933e-002 
-7.186089e-002 
-7.547446e-002 
-7.868561e-002 
-8.271263e-002 
-8.605802e-002 
-8.865691e-002 
-9.134565e-002 
-9.228812e-002 
-9.275341e-002 
-9.282730e-002 
-9.262117e-002 
-9.274963e-002 
-9.226324e-002 
-9.234881e-002 
-9.231041e-002 
-8.984861e-002 
-8.467901e-002 
-7.973442e-002 
-7.311844e-002 
-6.477968e-002 
-5.606656e-002 
-4.746672e-002 
-4.057817e-002 
-3.361488e-002 
-2.600017e-002 
-1.983167e-002 
-1.541914e-002 
-8.953716e-003 
-3.353685e-003 
1.181238e-003 
6.351092e-003 
1.142358e-002 
1.646152e-002 
2.050016e-002 
2.208719e-002 
2.254293e-002 
2.294209e-002 
2.060658e-002 
1.703607e-002 
1.472400e-002 
1.227223e-002 
9.642440e-003 
7.572432e-003 
7.298460e-003 
7.948202e-003 
7.066965e-003 
3.469435e-003 
-2.098070e-004 
-4.464219e-003 
-9.566985e-003 
-1.429681e-002 
-1.783859e-002 
-1.879458e-002 
-2.036041e-002 
-2.222055e-002 
-2.268287e-002 
-2.161564e-002 
-2.141449e-002 
-2.115021e-002 
-2.263932e-002 
-2.310852e-002 
-2.387587e-002 
-2.663170e-002 
-2.921246e-002 
-3.046645e-002 
-3.062270e-002 
-2.983781e-002 
-2.832977e-002 
-2.542962e-002 
-2.171813e-002 
-2.035448e-002 
-2.059305e-002 
-2.215383e-002 
-2.282111e-002 
-2.300851e-002 
-2.372698e-002 
-2.382834e-002 
-2.215723e-002 
-2.029248e-002 
-1.741172e-002 
-1.450246e-002 
-1.028003e-002 
-5.153813e-003 
-2.773979e-003 
-1.295920e-003 
1.019813e-004 
1.391197e-003 
2.243992e-003 
3.670278e-003 
6.108385e-003 
1.058313e-002 
1.384189e-002 
1.532993e-002 
1.648341e-002 
1.556972e-002 
1.438085e-002 
1.178346e-002 
7.982196e-003 
3.338245e-003 
-2.415852e-003 
-1.025190e-002 
-1.765730e-002 
-2.420807e-002 
-2.922508e-002 
-3.280634e-002 
-3.769582e-002 
-4.339807e-002 
-4.854876e-002 
-5.326706e-002 
-5.643484e-002 
-5.733785e-002 
-5.742438e-002 
-5.502245e-002 
-5.082065e-002 
-4.749882e-002 
-4.226905e-002 
-3.379028e-002 
-2.496876e-002 
-1.591763e-002 
-9.496295e-003 
-4.244973e-003 
2.238596e-003 
6.507752e-003 
9.015313e-003 
1.357632e-002 
1.796091e-002 
2.108736e-002 
2.388292e-002 
2.512122e-002 
2.715042e-002 
2.747602e-002 
2.497480e-002 
2.247730e-002 
2.015155e-002 
1.798142e-002 
1.732737e-002 
1.762777e-002 
1.855160e-002 
2.063310e-002 
2.212540e-002 
2.424849e-002 
2.605537e-002 
2.688310e-002 
2.631707e-002 
2.323999e-002 
1.561661e-002 
5.185512e-003 
-5.554530e-003 
-1.783160e-002 
-3.037346e-002 
-4.338688e-002 
-5.831867e-002 
-7.463471e-002 
-9.196263e-002 
-1.095631e-001 
-1.226243e-001 
-1.313556e-001 
-1.344879e-001 
-1.273122e-001 
-1.115304e-001 
-8.792554e-002 
-5.801947e-002 
-2.650788e-002 
4.701217e-003 
3.486001e-002 
6.225039e-002 
9.096687e-002 
1.202561e-001 
1.469755e-001 
1.690264e-001 
1.826485e-001 
1.889888e-001 
1.918897e-001 
1.916093e-001 
1.889366e-001 
1.857728e-001 
1.772562e-001 
1.603574e-001 
1.345024e-001 
1.038519e-001 
7.508502e-002 
5.159857e-002 
3.269120e-002 
2.061458e-002 
1.542991e-002 
1.166543e-002 
8.937727e-003 
8.460021e-003 
8.624055e-003 
9.577693e-003 
9.748508e-003 
7.933132e-003 
6.060648e-003 
2.590345e-003 
-2.002856e-003 
-4.997929e-003 
-7.894535e-003 
-1.078753e-002 
-1.212497e-002 
-1.333347e-002 
-1.508082e-002 
-1.597898e-002 
-1.687484e-002 
-1.852807e-002 
-2.105648e-002 
-2.484866e-002 
-2.821898e-002 
-3.158591e-002 
-3.472838e-002 
-3.610536e-002 
-3.572848e-002 
-3.546978e-002 
-3.451568e-002 
-3.380913e-002 
-3.356612e-002 
-3.325759e-002 
-3.450402e-002 
-3.558078e-002 
-3.685195e-002 
-3.897438e-002 
-4.009372e-002 
-3.998313e-002 
-4.105124e-002 
-4.011416e-002 
-3.795644e-002 
-3.718950e-002 
-3.651103e-002 
-3.785431e-002 
-4.113093e-002 
-4.472362e-002 
-4.801671e-002 
-5.188586e-002 
-5.473396e-002 
-5.706787e-002 
-5.915026e-002 
-6.108907e-002 
-6.351969e-002 
-6.691381e-002 
-6.865560e-002 
-6.997113e-002 
-7.359693e-002 
-7.730117e-002 
-7.923925e-002 
-8.172315e-002 
-8.489050e-002 
-8.573587e-002 
-8.498654e-002 
-8.261767e-002 
-7.952358e-002 
-7.672163e-002 
-7.331278e-002 
-7.130158e-002 
-7.244407e-002 
-7.314385e-002 
-7.377284e-002 
-7.592458e-002 
-7.692605e-002 
-7.584716e-002 
-7.549041e-002 
-7.501391e-002 
-7.495370e-002 
-7.455041e-002 
-7.526389e-002 
-7.719321e-002 
-7.948893e-002 
-8.119408e-002 
-8.328098e-002 
-8.521286e-002 
-8.465931e-002 
-8.310738e-002 
-8.161549e-002 
-7.959095e-002 
-7.477559e-002 
-6.982146e-002 
-6.390897e-002 
-5.789321e-002 
-5.192075e-002 
-4.630658e-002 
-4.229765e-002 
-3.899025e-002 
-3.425939e-002 
-2.785597e-002 
-2.015050e-002 
-1.154960e-002 
-3.980782e-003 
2.798124e-003 
8.165979e-003 
1.156201e-002 
1.413253e-002 
1.627772e-002 
