79
2.0573
472.7848
2.8071
-5.221781e-003 
-1.386085e-002 
-2.381786e-002 
-3.578506e-002 
-4.723697e-002 
-5.942841e-002 
-7.327145e-002 
-8.613000e-002 
-1.007419e-001 
-1.202134e-001 
-1.360266e-001 
-1.506206e-001 
-1.639308e-001 
-1.739765e-001 
-1.808780e-001 
-1.813864e-001 
-1.656519e-001 
-1.465463e-001 
-1.972739e-001 
-3.525615e-001 
-5.317390e-001 
-6.487491e-001 
-6.851773e-001 
-6.729588e-001 
-6.405811e-001 
-5.934582e-001 
-5.999320e-001 
-7.196704e-001 
-8.281593e-001 
-7.872200e-001 
-6.412004e-001 
-4.948783e-001 
-4.060734e-001 
-3.564735e-001 
-3.256437e-001 
-3.099173e-001 
-2.486718e-001 
-7.312755e-002 
1.683401e-001 
3.765111e-001 
5.129232e-001 
5.961441e-001 
6.610011e-001 
7.188050e-001 
7.751403e-001 
8.275575e-001 
8.732800e-001 
9.108506e-001 
9.357841e-001 
9.463119e-001 
9.423096e-001 
9.245358e-001 
8.944128e-001 
8.535485e-001 
8.033633e-001 
7.450134e-001 
6.741639e-001 
5.926765e-001 
5.078259e-001 
4.205883e-001 
3.325129e-001 
2.454866e-001 
1.642442e-001 
8.967061e-002 
1.814655e-002 
-4.667935e-002 
-9.648954e-002 
-1.328411e-001 
-1.595871e-001 
-1.757106e-001 
-1.830963e-001 
-1.832500e-001 
-1.798222e-001 
-1.738293e-001 
-1.643411e-001 
-1.532772e-001 
-1.439341e-001 
-1.370841e-001 
-1.324228e-001 
-1.300827e-001 
-1.259286e-001 
-1.207805e-001 
-1.195570e-001 
-1.220078e-001 
-1.253710e-001 
-1.325451e-001 
-1.431963e-001 
-1.543673e-001 
-1.621485e-001 
-1.662713e-001 
-1.735552e-001 
-1.847595e-001 
-1.950634e-001 
-2.048687e-001 
-2.112662e-001 
-2.096373e-001 
-1.994693e-001 
-1.707520e-001 
-1.815271e-001 
-3.001365e-001 
-4.767338e-001 
-6.236145e-001 
-6.914339e-001 
-6.906266e-001 
-6.662123e-001 
-6.245194e-001 
-5.972989e-001 
-6.795885e-001 
-8.066067e-001 
-8.237463e-001 
-7.145007e-001 
-5.582679e-001 
-4.447776e-001 
-3.862000e-001 
-3.466404e-001 
-3.251153e-001 
-2.900083e-001 
-1.540408e-001 
7.333206e-002 
3.042749e-001 
4.728870e-001 
5.723703e-001 
6.431858e-001 
7.048458e-001 
7.612659e-001 
8.158139e-001 
8.666189e-001 
9.077605e-001 
9.347758e-001 
9.476398e-001 
9.487223e-001 
9.343556e-001 
9.061639e-001 
8.700659e-001 
8.250226e-001 
7.680553e-001 
6.985586e-001 
6.197743e-001 
5.363032e-001 
4.480264e-001 
3.574692e-001 
2.729189e-001 
1.933002e-001 
1.166527e-001 
4.466508e-002 
-1.796862e-002 
-6.884327e-002 
-1.078539e-001 
-1.355772e-001 
-1.522505e-001 
-1.599020e-001 
-1.628450e-001 
-1.622855e-001 
-1.589096e-001 
-1.494633e-001 
-1.392554e-001 
-1.291881e-001 
-1.200703e-001 
-1.138199e-001 
-1.112900e-001 
-1.097833e-001 
-1.068652e-001 
-1.034260e-001 
-1.034374e-001 
-1.101824e-001 
-1.178078e-001 
-1.266540e-001 
-1.378790e-001 
-1.489169e-001 
-1.537585e-001 
-1.588872e-001 
-1.690284e-001 
-1.828594e-001 
-1.934999e-001 
-1.957649e-001 
-1.914580e-001 
-1.766166e-001 
-1.504315e-001 
-1.832599e-001 
-3.260238e-001 
-5.040433e-001 
-6.375257e-001 
-6.906857e-001 
-6.857218e-001 
-6.604917e-001 
-6.205912e-001 
-6.187787e-001 
-7.304273e-001 
-8.478897e-001 
-8.328326e-001 
-7.113260e-001 
-5.661277e-001 
-4.699513e-001 
-4.206659e-001 
-3.902996e-001 
-3.769844e-001 
-3.322538e-001 
-1.754934e-001 
5.680795e-002 
2.706003e-001 
4.189646e-001 
5.063664e-001 
5.705782e-001 
6.255395e-001 
6.733299e-001 
7.178344e-001 
7.607074e-001 
7.954277e-001 
8.175627e-001 
8.288437e-001 
8.303257e-001 
8.192152e-001 
7.939498e-001 
7.596935e-001 
7.196739e-001 
6.717378e-001 
6.139422e-001 
5.480527e-001 
4.793692e-001 
4.072013e-001 
3.318485e-001 
2.605126e-001 
1.950143e-001 
1.343101e-001 
7.796961e-002 
2.712160e-002 
-1.383475e-002 
-4.387660e-002 
-6.677024e-002 
-8.053683e-002 
-8.485624e-002 
-8.485112e-002 
-8.030197e-002 
-7.282804e-002 
-6.378061e-002 
-5.218759e-002 
-4.271658e-002 
-3.898938e-002 
-3.708361e-002 
-3.449640e-002 
-3.246407e-002 
-3.216579e-002 
-3.521134e-002 
-3.950621e-002 
-4.463686e-002 
-5.538285e-002 
-6.811751e-002 
-7.623697e-002 
-8.163344e-002 
-9.055814e-002 
-1.022166e-001 
-1.127797e-001 
-1.216567e-001 
-1.258058e-001 
-1.201997e-001 
-1.018498e-001 
-7.203612e-002 
-9.866407e-002 
-2.339231e-001 
-4.069522e-001 
-5.370727e-001 
-5.894583e-001 
-5.826641e-001 
-5.565642e-001 
-5.184772e-001 
-5.129553e-001 
-6.199139e-001 
-7.403680e-001 
-7.328017e-001 
-6.145739e-001 
-4.732185e-001 
-3.823514e-001 
-3.383022e-001 
-3.130536e-001 
-3.051359e-001 
-2.684749e-001 
-1.228275e-001 
9.723988e-002 
3.033248e-001 
4.446213e-001 
5.276671e-001 
5.875159e-001 
6.394754e-001 
6.879341e-001 
7.325425e-001 
7.724709e-001 
8.062171e-001 
8.328946e-001 
8.477624e-001 
8.501669e-001 
8.414290e-001 
8.235758e-001 
7.925490e-001 
7.525034e-001 
7.062410e-001 
6.516645e-001 
5.883936e-001 
5.181828e-001 
4.450034e-001 
3.720689e-001 
2.995232e-001 
2.282340e-001 
1.635736e-001 
1.040105e-001 
5.007026e-002 
4.730437e-003 
-2.998399e-002 
-5.555756e-002 
-7.197154e-002 
-8.181059e-002 
-8.635016e-002 
-8.564978e-002 
-8.083241e-002 
-7.250545e-002 
-6.228866e-002 
-5.245682e-002 
-4.757838e-002 
-4.723604e-002 
-4.717722e-002 
-4.487111e-002 
-4.475708e-002 
-4.794187e-002 
-5.243792e-002 
-5.859050e-002 
-6.965884e-002 
-8.526755e-002 
-9.754885e-002 
-1.021046e-001 
-1.089578e-001 
-1.224314e-001 
-1.341732e-001 
-1.436086e-001 
-1.540065e-001 
-1.569938e-001 
-1.470843e-001 
-1.134581e-001 
-9.727818e-002 
-1.791018e-001 
-3.469643e-001 
-5.075646e-001 
-6.020685e-001 
-6.242822e-001 
-6.035587e-001 
-5.626695e-001 
-5.250842e-001 
-5.771926e-001 
-7.125626e-001 
-7.821393e-001 
-7.084614e-001 
-5.643162e-001 
-4.379971e-001 
-3.669561e-001 
-3.326844e-001 
-3.210129e-001 
-3.081699e-001 
-2.209219e-001 
-2.721046e-002 
2.042171e-001 
3.878482e-001 
5.034174e-001 
5.742019e-001 
6.312714e-001 
6.870678e-001 
7.394459e-001 
7.831406e-001 
8.229486e-001 
8.557752e-001 
8.737893e-001 
8.777008e-001 
8.688073e-001 
8.494699e-001 
8.196598e-001 
7.788554e-001 
7.287953e-001 
6.711658e-001 
6.030391e-001 
5.242640e-001 
4.425370e-001 
3.600011e-001 
2.773080e-001 
1.980691e-001 
1.246014e-001 
5.489384e-002 
-8.290751e-003 
-6.321598e-002 
-1.090014e-001 
-1.404746e-001 
-1.614987e-001 
-1.754145e-001 
-1.803197e-001 
-1.807390e-001 
-1.798867e-001 
-1.745960e-001 
-1.681711e-001 
-1.608969e-001 
-1.501386e-001 
-1.435292e-001 
-1.422570e-001 
-1.406853e-001 
-1.402623e-001 
-1.408773e-001 
-1.433008e-001 
-1.485836e-001 
-1.534895e-001 
-1.603718e-001 
-1.744185e-001 
-1.869759e-001 
-1.939015e-001 
-2.013395e-001 
-2.115058e-001 
-2.240327e-001 
-2.347142e-001 
-2.445310e-001 
-2.506232e-001 
-2.474887e-001 
-2.265369e-001 
-2.289411e-001 
-3.171770e-001 
-4.795238e-001 
-6.366689e-001 
-7.321793e-001 
-7.608797e-001 
-7.465161e-001 
-7.116165e-001 
-6.844969e-001 
-7.362106e-001 
-8.490960e-001 
-8.997058e-001 
-8.283237e-001 
-6.918825e-001 
-5.659284e-001 
-4.866797e-001 
-4.416317e-001 
-4.147618e-001 
-3.799988e-001 
-2.728316e-001 
-7.573132e-002 
1.505475e-001 
3.385530e-001 
4.643714e-001 
5.451824e-001 
6.100746e-001 
6.703451e-001 
7.252508e-001 
7.717663e-001 
8.112967e-001 
8.438915e-001 
8.633497e-001 
8.646287e-001 
8.525223e-001 
8.303876e-001 
7.963439e-001 
7.509362e-001 
6.964860e-001 
6.338161e-001 
5.605607e-001 
4.763434e-001 
3.876612e-001 
3.016501e-001 
2.173713e-001 
1.342079e-001 
5.558156e-002 
-1.646064e-002 
-7.963529e-002 
-1.353153e-001 
-1.801066e-001 
-2.092475e-001 
-2.275726e-001 
-2.411707e-001 
-2.492570e-001 
-2.498035e-001 
-2.442312e-001 
-2.361810e-001 
-2.296058e-001 
-2.198995e-001 
-2.095521e-001 
-2.061961e-001 
-2.067886e-001 
-2.043704e-001 
-2.002745e-001 
-1.984091e-001 
-2.009526e-001 
-2.062198e-001 
-2.113383e-001 
-2.210425e-001 
-2.347797e-001 
-2.433110e-001 
-2.464801e-001 
-2.527669e-001 
-2.627010e-001 
-2.730282e-001 
-2.826203e-001 
-2.918086e-001 
-2.948938e-001 
-2.861567e-001 
-2.580487e-001 
-2.747235e-001 
-4.020813e-001 
-5.835916e-001 
-7.291013e-001 
-7.963658e-001 
-7.978363e-001 
-7.695356e-001 
-7.257229e-001 
-7.039361e-001 
-7.933497e-001 
-9.201634e-001 
-9.300811e-001 
-8.124148e-001 
-6.544213e-001 
-5.381333e-001 
-4.769509e-001 
-4.401782e-001 
-4.172109e-001 
-3.750190e-001 
-2.314916e-001 
-1.679585e-003 
2.263530e-001 
3.922007e-001 
4.899672e-001 
5.551751e-001 
6.163577e-001 
6.755259e-001 
7.268806e-001 
7.733590e-001 
8.123579e-001 
8.435391e-001 
8.625780e-001 
8.643719e-001 
8.524579e-001 
8.303169e-001 
7.936526e-001 
7.472043e-001 
6.965183e-001 
6.352057e-001 
5.626227e-001 
4.799604e-001 
3.936838e-001 
3.082564e-001 
2.253165e-001 
1.451009e-001 
7.231108e-002 
4.840600e-003 
-5.880345e-002 
-1.145273e-001 
-1.567669e-001 
-1.838976e-001 
-2.019396e-001 
-2.115242e-001 
-2.144174e-001 
-2.138016e-001 
-2.107204e-001 
-2.037923e-001 
-1.965767e-001 
-1.857422e-001 
-1.743811e-001 
-1.677931e-001 
-1.643112e-001 
-1.623412e-001 
-1.593105e-001 
-1.557138e-001 
-1.578333e-001 
-1.621834e-001 
-1.640930e-001 
-1.705749e-001 
-1.819208e-001 
-1.902254e-001 
-1.919901e-001 
-1.962170e-001 
-2.074571e-001 
-2.187088e-001 
-2.245190e-001 
-2.296029e-001 
-2.278597e-001 
-2.165042e-001 
-1.913441e-001 
-1.764249e-001 
-2.443114e-001 
-3.932150e-001 
-5.435955e-001 
-6.458770e-001 
-6.798394e-001 
-6.650066e-001 
-6.364193e-001 
-6.055022e-001 
-6.377270e-001 
-7.545676e-001 
-8.245657e-001 
-7.745571e-001 
-6.562169e-001 
-5.338256e-001 
-4.557028e-001 
-4.171184e-001 
-3.968763e-001 
-3.814304e-001 
-3.084495e-001 
-1.346011e-001 
7.795324e-002 
2.582092e-001 
3.812274e-001 
4.572125e-001 
5.112904e-001 
5.571997e-001 
6.005938e-001 
6.418462e-001 
6.789949e-001 
7.078905e-001 
7.272409e-001 
7.371100e-001 
7.356886e-001 
7.216852e-001 
6.980080e-001 
6.673039e-001 
6.297812e-001 
5.843513e-001 
5.299849e-001 
4.686218e-001 
4.021570e-001 
3.340579e-001 
2.676008e-001 
2.041067e-001 
1.435562e-001 
8.799264e-002 
3.636335e-002 
-1.136820e-002 
-4.948502e-002 
-7.662014e-002 
-9.381470e-002 
-1.047730e-001 
-1.111115e-001 
-1.120581e-001 
-1.081566e-001 
-1.030860e-001 
-9.487902e-002 
-8.297859e-002 
-7.274395e-002 
-6.940806e-002 
-7.094341e-002 
-6.975608e-002 
-6.678485e-002 
-6.585123e-002 
-6.807808e-002 
-7.149191e-002 
-7.786213e-002 
-8.905366e-002 
-1.040416e-001 
-1.135742e-001 
-1.163886e-001 
-1.235179e-001 
-1.350203e-001 
-1.464024e-001 
-1.556142e-001 
-1.628801e-001 
-1.623488e-001 
-1.527926e-001 
-1.229223e-001 
-9.842963e-002 
-1.556042e-001 
-3.075522e-001 
-4.701826e-001 
-5.749682e-001 
-6.041607e-001 
-5.884463e-001 
-5.587435e-001 
-5.208292e-001 
-5.482582e-001 
-6.742004e-001 
-7.659085e-001 
-7.200433e-001 
-5.893851e-001 
-4.603847e-001 
-3.891692e-001 
-3.561737e-001 
-3.383985e-001 
-3.298128e-001 
-2.663975e-001 
-9.550245e-002 
1.246449e-001 
3.113822e-001 
4.336164e-001 
5.062572e-001 
5.643397e-001 
6.184182e-001 
6.711245e-001 
7.166202e-001 
7.558157e-001 
7.918350e-001 
8.203860e-001 
8.352643e-001 
8.356729e-001 
8.252680e-001 
8.075319e-001 
7.764974e-001 
7.324446e-001 
6.843947e-001 
6.285962e-001 
5.611131e-001 
4.862542e-001 
4.114976e-001 
3.383828e-001 
2.639374e-001 
1.884009e-001 
1.192659e-001 
5.761155e-002 
1.969880e-003 
-4.562750e-002 
-7.989353e-002 
-1.013525e-001 
-1.185133e-001 
-1.309454e-001 
-1.353906e-001 
-1.343519e-001 
-1.299840e-001 
-1.214820e-001 
-1.114410e-001 
-9.876678e-002 
-8.959275e-002 
-8.826369e-002 
-8.594796e-002 
-8.173807e-002 
-7.945596e-002 
-7.721429e-002 
-7.623660e-002 
-7.902838e-002 
-8.460621e-002 
-9.570926e-002 
-1.070113e-001 
-1.132832e-001 
-1.180359e-001 
-1.233821e-001 
-1.306370e-001 
-1.401655e-001 
-1.503454e-001 
-1.566152e-001 
-1.534870e-001 
-1.333222e-001 
-9.684897e-002 
-1.113775e-001 
-2.430815e-001 
-4.251811e-001 
-5.635620e-001 
-6.197064e-001 
-6.131861e-001 
-5.827718e-001 
-5.350149e-001 
-5.192661e-001 
-6.244689e-001 
-7.609156e-001 
-7.618670e-001 
-6.368004e-001 
-4.838409e-001 
-3.847865e-001 
-3.370357e-001 
-3.107887e-001 
-3.044708e-001 
-2.746529e-001 
-1.336279e-001 
9.719602e-002 
3.173969e-001 
4.666466e-001 
5.520949e-001 
6.166480e-001 
6.742076e-001 
7.298092e-001 
7.828945e-001 
8.332718e-001 
8.781557e-001 
9.127091e-001 
9.339360e-001 
9.430456e-001 
9.375154e-001 
9.176184e-001 
8.871642e-001 
8.477379e-001 
7.982158e-001 
7.367765e-001 
6.654896e-001 
5.855957e-001 
4.988815e-001 
4.099569e-001 
3.229197e-001 
2.395001e-001 
1.604923e-001 
8.586005e-002 
1.686307e-002 
-4.267650e-002 
-9.179000e-002 
-1.291588e-001 
-1.539998e-001 
-1.682639e-001 
-1.764088e-001 
-1.790698e-001 
-1.779809e-001 
-1.754934e-001 
-1.687699e-001 
-1.587113e-001 
-1.493940e-001 
-1.397926e-001 
-1.312943e-001 
-1.287293e-001 
-1.264059e-001 
-1.250129e-001 
-1.237896e-001 
-1.228603e-001 
-1.254497e-001 
-1.324080e-001 
-1.384295e-001 
-1.476946e-001 
-1.600423e-001 
-1.670245e-001 
-1.724471e-001 
-1.798077e-001 
-1.896441e-001 
-1.998287e-001 
-2.077493e-001 
-2.087292e-001 
-2.065918e-001 
-1.846853e-001 
-1.552699e-001 
-1.965620e-001 
-3.473899e-001 
-5.266127e-001 
-6.453505e-001 
-6.820159e-001 
-6.716467e-001 
-6.405588e-001 
-5.920858e-001 
-6.001260e-001 
-7.185018e-001 
-8.310294e-001 
-7.969034e-001 
-6.519421e-001 
-5.086366e-001 
-4.241878e-001 
-3.747157e-001 
-3.443071e-001 
-3.314921e-001 
-2.733029e-001 
-1.007264e-001 
1.430228e-001 
3.540153e-001 
4.889939e-001 
5.755729e-001 
6.462938e-001 
7.051002e-001 
7.587926e-001 
8.128486e-001 
8.608944e-001 
8.969997e-001 
9.178349e-001 
9.277485e-001 
9.259562e-001 
9.055377e-001 
8.721383e-001 
8.320881e-001 
7.831708e-001 
7.213713e-001 
6.477067e-001 
5.666886e-001 
4.823445e-001 
3.918095e-001 
3.023077e-001 
2.181318e-001 
1.376535e-001 
6.092403e-002 
-1.122299e-002 
-7.331620e-002 
-1.229844e-001 
-1.636869e-001 
-1.922345e-001 
-2.065644e-001 
-2.161865e-001 
-2.209067e-001 
-2.234345e-001 
-2.255558e-001 
-2.219677e-001 
-2.169745e-001 
-2.105659e-001 
-1.990876e-001 
-1.899118e-001 
-1.875466e-001 
-1.866395e-001 
-1.867280e-001 
-1.838858e-001 
-1.789375e-001 
-1.798776e-001 
-1.815383e-001 
-1.849068e-001 
-1.939852e-001 
-2.050356e-001 
-2.124331e-001 
-2.155282e-001 
-2.174407e-001 
-2.259283e-001 
-2.387874e-001 
-2.480692e-001 
-2.569714e-001 
-2.582413e-001 
-2.491277e-001 
-2.289674e-001 
-2.004226e-001 
-2.310320e-001 
-3.693920e-001 
-5.387677e-001 
-6.608929e-001 
-7.087055e-001 
-7.016340e-001 
-6.791546e-001 
-6.439016e-001 
-6.424937e-001 
-7.509340e-001 
-8.667350e-001 
-8.508207e-001 
-7.321299e-001 
-5.963987e-001 
-5.103990e-001 
-4.688783e-001 
-4.430735e-001 
-4.311728e-001 
-3.892491e-001 
-2.409961e-001 
-2.101496e-002 
1.812045e-001 
3.189728e-001 
4.010969e-001 
4.626818e-001 
5.154593e-001 
5.634944e-001 
6.038176e-001 
6.406523e-001 
6.735255e-001 
6.949543e-001 
7.025430e-001 
7.016530e-001 
6.898336e-001 
6.656219e-001 
6.303489e-001 
5.870515e-001 
5.399671e-001 
4.839274e-001 
4.175997e-001 
3.457852e-001 
2.744076e-001 
2.013568e-001 
1.276710e-001 
6.005588e-002 
5.036291e-004 
-5.474817e-002 
-1.059953e-001 
-1.473561e-001 
-1.777732e-001 
-1.989380e-001 
-2.161399e-001 
-2.246212e-001 
-2.227943e-001 
-2.189213e-001 
-2.161242e-001 
-2.083207e-001 
-1.971721e-001 
-1.870919e-001 
-1.806550e-001 
-1.784022e-001 
-1.729209e-001 
-1.672256e-001 
-1.643780e-001 
-1.628232e-001 
-1.637863e-001 
-1.689248e-001 
-1.748156e-001 
-1.849027e-001 
-1.941875e-001 
-1.990122e-001 
-2.023115e-001 
-2.080713e-001 
-2.204071e-001 
-2.343841e-001 
-2.438361e-001 
-2.505122e-001 
-2.513501e-001 
-2.426434e-001 
-2.157588e-001 
-1.903060e-001 
-2.535988e-001 
-4.170492e-001 
-5.802312e-001 
-6.796246e-001 
-7.070665e-001 
-6.925159e-001 
-6.620050e-001 
-6.181893e-001 
-6.443495e-001 
-7.777734e-001 
-8.645360e-001 
-8.032283e-001 
-6.645301e-001 
-5.348005e-001 
-4.607152e-001 
-4.219935e-001 
-3.981315e-001 
-3.863762e-001 
-3.162877e-001 
-1.321866e-001 
9.764559e-002 
2.869923e-001 
4.089719e-001 
4.829564e-001 
5.467026e-001 
6.075771e-001 
6.630075e-001 
7.123448e-001 
7.574008e-001 
7.953606e-001 
8.210996e-001 
8.320020e-001 
8.337255e-001 
8.258005e-001 
8.037607e-001 
7.691234e-001 
7.266066e-001 
6.760720e-001 
6.126877e-001 
5.396391e-001 
4.641712e-001 
3.891346e-001 
3.103137e-001 
2.320557e-001 
1.592244e-001 
9.106353e-002 
2.624322e-002 
-3.190984e-002 
-7.753682e-002 
-1.089356e-001 
-1.313052e-001 
-1.469153e-001 
-1.528174e-001 
-1.547859e-001 
-1.549596e-001 
-1.494609e-001 
-1.403346e-001 
-1.292859e-001 
-1.178683e-001 
-1.095142e-001 
-1.042890e-001 
-1.017199e-001 
-1.003814e-001 
-9.635852e-002 
-9.123213e-002 
-9.085238e-002 
-9.434555e-002 
-1.002653e-001 
-1.077334e-001 
-1.180369e-001 
-1.253670e-001 
-1.281563e-001 
-1.315705e-001 
-1.388405e-001 
-1.499937e-001 
-1.605950e-001 
-1.674581e-001 
-1.677308e-001 
-1.641281e-001 
-1.396795e-001 
-1.094608e-001 
-1.497326e-001 
-2.980580e-001 
-4.739309e-001 
-5.954697e-001 
-6.403564e-001 
-6.377560e-001 
-6.126869e-001 
-5.630060e-001 
-5.688405e-001 
-6.878822e-001 
-7.996802e-001 
-7.698747e-001 
-6.393215e-001 
-5.004825e-001 
-4.110369e-001 
-3.558733e-001 
-3.219702e-001 
-3.115429e-001 
-2.570116e-001 
-8.709194e-002 
1.510412e-001 
3.606973e-001 
5.073349e-001 
6.028649e-001 
6.758928e-001 
7.357933e-001 
7.920500e-001 
8.464128e-001 
8.977404e-001 
9.388279e-001 
9.678484e-001 
9.868897e-001 
9.897723e-001 
9.734806e-001 
9.458336e-001 
9.079553e-001 
8.604106e-001 
8.058159e-001 
7.383570e-001 
6.617568e-001 
5.779766e-001 
4.879689e-001 
3.984701e-001 
3.133282e-001 
2.322271e-001 
1.583797e-001 
9.008759e-002 
2.829361e-002 
-2.517574e-002 
-6.724607e-002 
-9.433208e-002 
-1.106004e-001 
-1.194661e-001 
-1.222604e-001 
-1.215334e-001 
-1.154894e-001 
-1.069073e-001 
-1.007473e-001 
-8.998962e-002 
-7.957658e-002 
-7.659206e-002 
-7.794875e-002 
-7.827851e-002 
-7.555215e-002 
-7.327604e-002 
-7.657639e-002 
-8.260408e-002 
-8.726977e-002 
-9.699471e-002 
-1.118943e-001 
-1.213307e-001 
-1.224386e-001 
-1.275528e-001 
-1.381851e-001 
-1.489704e-001 
-1.586326e-001 
-1.618545e-001 
-1.611987e-001 
-1.483846e-001 
-1.128656e-001 
-1.286621e-001 
-2.683398e-001 
-4.550474e-001 
-5.962248e-001 
-6.565805e-001 
-6.519154e-001 
-6.239835e-001 
-5.756317e-001 
-5.554012e-001 
-6.590792e-001 
-7.936460e-001 
-7.888953e-001 
-6.616171e-001 
-5.055746e-001 
-3.954657e-001 
-3.375848e-001 
-3.030164e-001 
-2.877215e-001 
-2.471526e-001 
-9.396421e-002 
1.468182e-001 
3.742186e-001 
5.357312e-001 
6.322404e-001 
6.989383e-001 
7.568999e-001 
8.145652e-001 
8.698802e-001 
9.173882e-001 
9.572756e-001 
9.882874e-001 
1.008902e+000 
1.015116e+000 
1.003469e+000 
9.800852e-001 
9.490635e-001 
9.044342e-001 
8.482933e-001 
7.844415e-001 
7.115246e-001 
6.310449e-001 
5.432538e-001 
4.538788e-001 
3.709752e-001 
2.897710e-001 
2.089098e-001 
1.367953e-001 
7.391363e-002 
1.810457e-002 
-2.797897e-002 
-6.155619e-002 
-8.146955e-002 
-9.425881e-002 
-1.043209e-001 
-1.074133e-001 
-1.027659e-001 
-9.554480e-002 
-8.882288e-002 
-7.882126e-002 
-6.740072e-002 
-6.120955e-002 
-6.349922e-002 
-6.281673e-002 
-5.848150e-002 
-5.638939e-002 
-5.906495e-002 
-6.283945e-002 
-6.640815e-002 
-7.380558e-002 
-8.616124e-002 
-9.720914e-002 
-9.904180e-002 
-1.041377e-001 
-1.142882e-001 
-1.250837e-001 
-1.329330e-001 
-1.379846e-001 
-1.363238e-001 
-1.287959e-001 
-1.027550e-001 
-8.734690e-002 
-1.640953e-001 
-3.252276e-001 
-4.800394e-001 
-5.660054e-001 
-5.830514e-001 
-5.685148e-001 
-5.387832e-001 
-5.016255e-001 
-5.440135e-001 
-6.744265e-001 
-7.414609e-001 
-6.696707e-001 
-5.317410e-001 
-4.157819e-001 
-3.525454e-001 
-3.140190e-001 
-2.933640e-001 
-2.831446e-001 
-2.018519e-001 
-1.337533e-002 
2.049903e-001 
3.772724e-001 
4.883776e-001 
5.582800e-001 
6.132185e-001 
6.589706e-001 
7.011595e-001 
7.433863e-001 
7.799235e-001 
8.074862e-001 
8.268996e-001 
8.344033e-001 
8.264529e-001 
8.084071e-001 
7.802572e-001 
7.430524e-001 
6.990636e-001 
6.465595e-001 
5.851821e-001 
5.163063e-001 
4.424914e-001 
3.679327e-001 
2.961978e-001 
2.255269e-001 
1.576760e-001 
9.486004e-002 
3.862694e-002 
-9.857568e-003 
-5.033147e-002 
-7.944580e-002 
-9.682224e-002 
-1.071166e-001 
-1.140093e-001 
-1.164428e-001 
-1.116242e-001 
-1.018508e-001 
-9.334570e-002 
-8.349234e-002 
-7.294211e-002 
-6.996433e-002 
-7.161431e-002 
-7.104347e-002 
-6.878062e-002 
-6.719682e-002 
-6.955061e-002 
-7.621124e-002 
-8.288095e-002 
-9.420021e-002 
-1.105371e-001 
-1.190867e-001 
-1.235530e-001 
-1.335737e-001 
-1.466802e-001 
-1.602632e-001 
-1.726813e-001 
-1.781459e-001 
-1.763378e-001 
-1.634436e-001 
-1.314377e-001 
-1.532617e-001 
-2.901599e-001 
-4.711542e-001 
-6.051458e-001 
-6.594602e-001 
-6.539263e-001 
-6.276416e-001 
-5.859998e-001 
-5.721396e-001 
-6.789846e-001 
-8.095461e-001 
-8.057725e-001 
-6.835169e-001 
-5.389985e-001 
-4.415671e-001 
-3.941845e-001 
-3.676505e-001 
-3.593350e-001 
-3.258312e-001 
-1.787567e-001 
4.832854e-002 
2.589657e-001 
4.050995e-001 
4.914246e-001 
5.497989e-001 
6.007155e-001 
6.494952e-001 
6.971596e-001 
7.381093e-001 
7.677196e-001 
7.890528e-001 
8.007336e-001 
7.989646e-001 
7.826268e-001 
7.560312e-001 
7.219845e-001 
6.795749e-001 
6.256201e-001 
5.628857e-001 
4.945776e-001 
4.202134e-001 
3.418443e-001 
2.641700e-001 
1.901476e-001 
1.210996e-001 
5.464797e-002 
-8.596339e-003 
-6.278937e-002 
-1.063023e-001 
-1.398967e-001 
-1.628265e-001 
-1.748872e-001 
-1.811591e-001 
-1.842345e-001 
-1.838684e-001 
-1.784563e-001 
-1.700655e-001 
-1.606413e-001 
-1.524983e-001 
-1.470470e-001 
-1.446293e-001 
-1.450115e-001 
-1.446960e-001 
-1.430672e-001 
-1.440306e-001 
-1.483258e-001 
-1.539961e-001 
-1.631004e-001 
-1.750238e-001 
-1.855528e-001 
-1.921958e-001 
-1.987651e-001 
-2.071969e-001 
-2.175144e-001 
-2.286459e-001 
-2.386632e-001 
-2.438379e-001 
-2.426923e-001 
-2.252253e-001 
-2.120476e-001 
-2.724044e-001 
-4.243307e-001 
-5.906242e-001 
-6.977656e-001 
-7.302102e-001 
-7.187213e-001 
-6.893479e-001 
-6.522524e-001 
-6.743447e-001 
-7.873607e-001 
-8.719200e-001 
-8.206046e-001 
-6.812069e-001 
-5.457552e-001 
-4.619251e-001 
-4.133182e-001 
-3.818767e-001 
-3.579731e-001 
-2.808893e-001 
-9.900208e-002 
1.328592e-001 
3.274912e-001 
4.567868e-001 
5.395731e-001 
6.052428e-001 
6.633127e-001 
7.184186e-001 
7.712282e-001 
8.172838e-001 
8.508441e-001 
8.725001e-001 
8.813139e-001 
8.748376e-001 
8.531177e-001 
8.214040e-001 
7.812647e-001 
7.318018e-001 
6.706478e-001 
5.980634e-001 
5.190670e-001 
4.347852e-001 
3.452602e-001 
2.576873e-001 
1.759772e-001 
9.645801e-002 
2.036874e-002 
-4.909749e-002 
-1.066659e-001 
-1.504945e-001 
-1.856807e-001 
-2.107900e-001 
-2.215055e-001 
-2.255273e-001 
-2.275688e-001 
-2.228665e-001 
-2.131785e-001 
-2.023909e-001 
-1.924972e-001 
-1.868683e-001 
-1.822318e-001 
-1.776417e-001 
-1.750448e-001 
-1.709305e-001 
-1.663304e-001 
-1.678272e-001 
-1.720524e-001 
-1.768622e-001 
-1.858859e-001 
-1.955112e-001 
-2.017726e-001 
-2.056834e-001 
-2.110484e-001 
-2.212018e-001 
-2.338646e-001 
-2.438249e-001 
-2.483049e-001 
-2.497415e-001 
-2.350296e-001 
-2.194389e-001 
-2.754761e-001 
-4.276914e-001 
-5.944249e-001 
-7.030800e-001 
-7.397099e-001 
-7.315412e-001 
-7.036714e-001 
-6.619667e-001 
-6.778091e-001 
-7.891967e-001 
-8.764566e-001 
-8.270498e-001 
-6.903537e-001 
-5.558535e-001 
-4.687157e-001 
-4.153306e-001 
-3.794544e-001 
-3.562632e-001 
-2.849829e-001 
-1.083259e-001 
1.235509e-001 
3.181461e-001 
4.458712e-001 
5.274055e-001 
5.939492e-001 
6.531091e-001 
7.059316e-001 
7.588374e-001 
8.109614e-001 
8.528113e-001 
8.806368e-001 
8.972747e-001 
9.032297e-001 
8.939130e-001 
8.681230e-001 
8.331478e-001 
7.922850e-001 
7.404358e-001 
6.758928e-001 
6.003082e-001 
5.190115e-001 
4.352055e-001 
3.481305e-001 
2.625904e-001 
1.825670e-001 
1.062122e-001 
3.319752e-002 
-3.469196e-002 
-9.247481e-002 
-1.353550e-001 
-1.664836e-001 
-1.892747e-001 
-2.026120e-001 
-2.097448e-001 
-2.118727e-001 
-2.083943e-001 
-2.012970e-001 
-1.918932e-001 
-1.819669e-001 
-1.760467e-001 
-1.740785e-001 
-1.721766e-001 
-1.704806e-001 
-1.664101e-001 
-1.648715e-001 
-1.683772e-001 
-1.720575e-001 
-1.776923e-001 
-1.878163e-001 
-1.973516e-001 
-2.029576e-001 
-2.070823e-001 
-2.128870e-001 
-2.225973e-001 
-2.320210e-001 
-2.396411e-001 
-2.425830e-001 
-2.386944e-001 
-2.188809e-001 
-2.186933e-001 
-3.130059e-001 
-4.794497e-001 
-6.295579e-001 
-7.121370e-001 
-7.268719e-001 
-7.079707e-001 
-6.743305e-001 
-6.436897e-001 
-6.984854e-001 
-8.237410e-001 
-8.674919e-001 
-7.822231e-001 
-6.399937e-001 
-5.212835e-001 
-4.542578e-001 
-4.138044e-001 
-3.888574e-001 
-3.615977e-001 
-2.562406e-001 
-5.372608e-002 
1.677397e-001 
3.395746e-001 
4.458574e-001 
5.131902e-001 
5.687909e-001 
6.196996e-001 
6.673257e-001 
7.107137e-001 
7.479821e-001 
7.769762e-001 
7.967743e-001 
8.014883e-001 
7.927249e-001 
7.757171e-001 
7.468022e-001 
7.091210e-001 
6.640071e-001 
6.095858e-001 
5.466163e-001 
4.773623e-001 
4.011499e-001 
3.259617e-001 
2.527662e-001 
1.813518e-001 
1.165950e-001 
5.507021e-002 
-1.535711e-003 
-4.840504e-002 
-8.655663e-002 
-1.159719e-001 
-1.345934e-001 
-1.456209e-001 
-1.489843e-001 
-1.477132e-001 
-1.439567e-001 
-1.358043e-001 
-1.264811e-001 
-1.172578e-001 
-1.095214e-001 
-1.063329e-001 
-1.033961e-001 
-9.902533e-002 
-9.559604e-002 
-9.619626e-002 
-9.907708e-002 
-1.016849e-001 
-1.063452e-001 
-1.158070e-001 
-1.254840e-001 
-1.305739e-001 
-1.357946e-001 
-1.445071e-001 
-1.559689e-001 
-1.649206e-001 
-1.723381e-001 
-1.741921e-001 
-1.690853e-001 
-1.515406e-001 
-1.537589e-001 
-2.461740e-001 
-4.043248e-001 
-5.445523e-001 
-6.239984e-001 
-6.415880e-001 
-6.240950e-001 
-5.946531e-001 
-5.713772e-001 
-6.273243e-001 
-7.457219e-001 
-7.812789e-001 
-7.003075e-001 
-5.731364e-001 
-4.651117e-001 
-4.001492e-001 
-3.648677e-001 
-3.453510e-001 
-3.184214e-001 
-2.150094e-001 
-2.350969e-002 
1.822927e-001 
3.442248e-001 
4.479846e-001 
5.149520e-001 
5.651813e-001 
6.127034e-001 
6.576419e-001 
6.948363e-001 
7.263888e-001 
7.539121e-001 
7.682477e-001 
7.663951e-001 
7.528780e-001 
7.313981e-001 
7.033572e-001 
6.650480e-001 
6.186663e-001 
5.669291e-001 
5.059099e-001 
4.338915e-001 
3.594681e-001 
2.903546e-001 
2.247932e-001 
1.612416e-001 
9.935281e-002 
4.289764e-002 
-6.479740e-003 
-5.067128e-002 
-8.562710e-002 
-1.061116e-001 
-1.165576e-001 
-1.231139e-001 
-1.247095e-001 
-1.232462e-001 
-1.170389e-001 
-1.087295e-001 
-1.006233e-001 
-8.975951e-002 
-8.004927e-002 
-7.814458e-002 
-7.854708e-002 
-7.690058e-002 
-7.632146e-002 
-7.694235e-002 
-8.122646e-002 
-8.652517e-002 
-9.342062e-002 
-1.053701e-001 
-1.184932e-001 
-1.261377e-001 
-1.310582e-001 
-1.388833e-001 
-1.507233e-001 
-1.622729e-001 
-1.718006e-001 
-1.761831e-001 
-1.737650e-001 
-1.527258e-001 
-1.276308e-001 
-1.748920e-001 
-3.280881e-001 
-5.026476e-001 
-6.168294e-001 
-6.521671e-001 
-6.383896e-001 
-6.041386e-001 
-5.564060e-001 
-5.696877e-001 
-6.892768e-001 
-7.911344e-001 
-7.494170e-001 
-6.102331e-001 
-4.690434e-001 
-3.811237e-001 
-3.317671e-001 
-3.057227e-001 
-2.933102e-001 
-2.280634e-001 
-5.272713e-002 
1.824230e-001 
3.854490e-001 
5.200706e-001 
6.019071e-001 
6.623362e-001 
7.154572e-001 
7.705220e-001 
8.216811e-001 
8.633760e-001 
8.957843e-001 
9.194892e-001 
9.285965e-001 
9.209982e-001 
8.997013e-001 
8.696197e-001 
8.304860e-001 
7.785157e-001 
7.166937e-001 
6.477284e-001 
5.706904e-001 
4.844240e-001 
3.965054e-001 
3.115940e-001 
2.293406e-001 
1.490925e-001 
7.501349e-002 
1.035633e-002 
-4.696169e-002 
-9.561755e-002 
-1.325547e-001 
-1.551160e-001 
-1.684869e-001 
-1.750357e-001 
-1.722546e-001 
-1.642969e-001 
-1.579668e-001 
-1.510196e-001 
-1.424870e-001 
-1.356602e-001 
-1.319926e-001 
-1.303485e-001 
-1.257952e-001 
-1.206373e-001 
-1.231952e-001 
-1.286846e-001 
-1.328238e-001 
-1.413970e-001 
-1.539733e-001 
-1.655189e-001 
-1.717014e-001 
-1.776705e-001 
-1.891267e-001 
-2.028221e-001 
-2.140160e-001 
-2.253430e-001 
-2.318455e-001 
-2.320955e-001 
-2.120533e-001 
-1.917849e-001 
-2.575747e-001 
-4.293084e-001 
-6.093251e-001 
-7.205425e-001 
-7.513310e-001 
-7.365049e-001 
-7.037624e-001 
-6.549024e-001 
-6.772230e-001 
-8.097951e-001 
-9.054393e-001 
-8.429489e-001 
-6.885629e-001 
-5.443157e-001 
-4.594708e-001 
-4.091150e-001 
-3.766980e-001 
-3.600647e-001 
-2.823998e-001 
-8.639756e-002 
1.635534e-001 
3.670890e-001 
4.963699e-001 
5.759458e-001 
6.405961e-001 
6.972669e-001 
7.518312e-001 
8.058259e-001 
8.523594e-001 
8.890997e-001 
9.137426e-001 
9.262044e-001 
9.243408e-001 
9.063210e-001 
8.759613e-001 
8.382009e-001 
7.901119e-001 
7.299733e-001 
6.610846e-001 
5.830075e-001 
4.978044e-001 
4.087142e-001 
3.197949e-001 
2.361462e-001 
1.572395e-001 
8.150791e-002 
1.169708e-002 
-4.967243e-002 
-1.015851e-001 
-1.406936e-001 
-1.677803e-001 
-1.845155e-001 
-1.924959e-001 
-1.957459e-001 
-1.961800e-001 
-1.931498e-001 
-1.869587e-001 
-1.785664e-001 
-1.690335e-001 
-1.608604e-001 
-1.543406e-001 
-1.515263e-001 
-1.516289e-001 
-1.505757e-001 
-1.489831e-001 
-1.508181e-001 
-1.548720e-001 
-1.600132e-001 
-1.668299e-001 
-1.763498e-001 
-1.863474e-001 
-1.922628e-001 
-1.963638e-001 
-2.051609e-001 
-2.165674e-001 
-2.264202e-001 
-2.349181e-001 
-2.383623e-001 
-2.350322e-001 
-2.144379e-001 
-2.278084e-001 
-3.440697e-001 
-5.215918e-001 
-6.763287e-001 
-7.667198e-001 
-7.879483e-001 
-7.714056e-001 
-7.346397e-001 
-7.089778e-001 
-7.852369e-001 
-9.093211e-001 
-9.337631e-001 
-8.422436e-001 
-7.007267e-001 
-5.751313e-001 
-4.994938e-001 
-4.516917e-001 
-4.248902e-001 
-3.885388e-001 
-2.579328e-001 
-3.801711e-002 
1.908502e-001 
3.717503e-001 
4.882213e-001 
5.640797e-001 
6.264482e-001 
6.796389e-001 
7.305900e-001 
7.783475e-001 
8.208465e-001 
8.546828e-001 
8.762404e-001 
8.835765e-001 
8.760314e-001 
8.552540e-001 
8.223579e-001 
7.815994e-001 
7.332550e-001 
6.767958e-001 
6.075427e-001 
5.296559e-001 
4.442201e-001 
3.585875e-001 
2.777107e-001 
1.993720e-001 
1.259586e-001 
5.759304e-002 
-6.340609e-003 
-6.417664e-002 
-1.105173e-001 
-1.449030e-001 
-1.634691e-001 
-1.733896e-001 
-1.791818e-001 
-1.812645e-001 
-1.790937e-001 
-1.735571e-001 
-1.671388e-001 
-1.592848e-001 
-1.495739e-001 
-1.420756e-001 
-1.420288e-001 
-1.431056e-001 
-1.417931e-001 
-1.396347e-001 
-1.428373e-001 
-1.497456e-001 
-1.541655e-001 
-1.607573e-001 
-1.746924e-001 
-1.868812e-001 
-1.908293e-001 
-1.947464e-001 
-2.056412e-001 
-2.195784e-001 
-2.288896e-001 
-2.328293e-001 
-2.319145e-001 
-2.252940e-001 
-2.031381e-001 
-1.941583e-001 
-2.778362e-001 
-4.417200e-001 
-5.957691e-001 
-6.871055e-001 
-7.095966e-001 
-6.963685e-001 
-6.707973e-001 
-6.422252e-001 
-6.880102e-001 
-8.129830e-001 
-8.700562e-001 
-8.012749e-001 
-6.695696e-001 
-5.515909e-001 
-4.844377e-001 
-4.470248e-001 
-4.251048e-001 
-4.051928e-001 
-3.140029e-001 
-1.260124e-001 
8.856961e-002 
2.629960e-001 
3.755283e-001 
4.468890e-001 
5.019090e-001 
5.501299e-001 
5.971207e-001 
6.412408e-001 
6.777929e-001 
7.094098e-001 
7.344592e-001 
7.487015e-001 
7.506399e-001 
7.424626e-001 
7.241893e-001 
6.967091e-001 
6.594461e-001 
6.130397e-001 
5.607204e-001 
5.001420e-001 
4.318842e-001 
3.615568e-001 
2.918893e-001 
2.232005e-001 
1.570194e-001 
9.455742e-002 
3.830867e-002 
-1.109255e-002 
-5.527878e-002 
-8.970593e-002 
-1.123996e-001 
-1.266644e-001 
-1.362813e-001 
-1.426381e-001 
-1.433175e-001 
-1.384295e-001 
-1.315560e-001 
-1.238300e-001 
-1.126089e-001 
-1.008625e-001 
-9.213102e-002 
-8.928902e-002 
-8.778212e-002 
-8.292356e-002 
-7.800700e-002 
-7.703203e-002 
-7.954632e-002 
-8.267417e-002 
-8.759507e-002 
-9.673754e-002 
-1.083007e-001 
-1.144479e-001 
-1.185351e-001 
-1.260225e-001 
-1.365166e-001 
-1.480178e-001 
-1.580436e-001 
-1.627375e-001 
-1.600486e-001 
-1.468133e-001 
-1.217985e-001 
-1.440571e-001 
-2.682395e-001 
-4.436064e-001 
-5.895578e-001 
-6.605453e-001 
-6.635282e-001 
-6.400875e-001 
-6.031831e-001 
-5.916414e-001 
-6.811524e-001 
-8.011001e-001 
-8.127972e-001 
-7.103526e-001 
-5.647159e-001 
-4.543134e-001 
-3.973961e-001 
-3.647530e-001 
-3.469916e-001 
-3.063489e-001 
-1.701302e-001 
4.871886e-002 
2.700700e-001 
4.358199e-001 
5.344370e-001 
5.997661e-001 
6.571993e-001 
7.113409e-001 
7.594745e-001 
8.031894e-001 
8.432641e-001 
8.731982e-001 
8.873800e-001 
8.871028e-001 
8.764921e-001 
8.564321e-001 
8.239166e-001 
7.814241e-001 
7.315114e-001 
6.710093e-001 
5.995930e-001 
5.211104e-001 
4.404579e-001 
3.606460e-001 
2.815743e-001 
2.049683e-001 
1.335708e-001 
6.661686e-002 
5.484374e-003 
-4.624230e-002 
-8.550805e-002 
-1.125266e-001 
-1.309280e-001 
-1.415209e-001 
-1.444497e-001 
-1.451275e-001 
-1.446693e-001 
-1.421833e-001 
-1.346549e-001 
-1.237259e-001 
-1.141731e-001 
-1.045010e-001 
-9.395184e-002 
-8.955071e-002 
-9.121249e-002 
-8.982086e-002 
-8.686104e-002 
-8.578174e-002 
-8.818585e-002 
-9.297844e-002 
-9.773908e-002 
-1.062007e-001 
-1.194439e-001 
-1.269613e-001 
-1.284337e-001 
-1.360347e-001 
-1.478484e-001 
-1.578796e-001 
-1.665778e-001 
-1.700420e-001 
-1.696556e-001 
-1.514163e-001 
-1.334348e-001 
-1.960289e-001 
-3.618505e-001 
-5.377118e-001 
-6.413149e-001 
-6.659823e-001 
-6.518326e-001 
-6.217080e-001 
-5.792875e-001 
-6.035661e-001 
-7.287495e-001 
-8.193926e-001 
-7.573396e-001 
-6.012545e-001 
-4.633089e-001 
-3.858648e-001 
-3.386704e-001 
-3.068454e-001 
-2.859294e-001 
-2.063881e-001 
-1.373028e-002 
2.308234e-001 
4.303764e-001 
5.574628e-001 
6.395267e-001 
7.063307e-001 
7.656503e-001 
8.211762e-001 
8.735147e-001 
9.179833e-001 
9.503471e-001 
9.707152e-001 
9.765487e-001 
9.650639e-001 
9.402589e-001 
9.064090e-001 
8.640366e-001 
8.128461e-001 
7.497757e-001 
6.746383e-001 
5.914684e-001 
5.024175e-001 
4.136786e-001 
3.294020e-001 
2.462205e-001 
1.665405e-001 
9.310935e-002 
2.355642e-002 
-3.409154e-002 
-7.721544e-002 
-1.083422e-001 
-1.269768e-001 
-1.392099e-001 
-1.476886e-001 
-1.480256e-001 
-1.473211e-001 
-1.460193e-001 
-1.394202e-001 
-1.322897e-001 
-1.244871e-001 
-1.158992e-001 
-1.078796e-001 
-9.928164e-002 
-9.394713e-002 
-9.417206e-002 
-9.198629e-002 
-8.914321e-002 
-8.788543e-002 
-8.865937e-002 
-9.186415e-002 
-9.673161e-002 
-1.051206e-001 
-1.160678e-001 
-1.225027e-001 
-1.242353e-001 
-1.300016e-001 
-1.373084e-001 
-1.451723e-001 
-1.553388e-001 
-1.619952e-001 
-1.604246e-001 
-1.490412e-001 
-1.257886e-001 
-1.438549e-001 
-2.550860e-001 
-4.135427e-001 
-5.472551e-001 
-6.124233e-001 
-6.136651e-001 
-5.895983e-001 
-5.537325e-001 
-5.394988e-001 
-6.143892e-001 
-7.200259e-001 
-7.315233e-001 
-6.342411e-001 
-4.958874e-001 
-3.913310e-001 
-3.359625e-001 
-3.027118e-001 
-2.802904e-001 
-2.370266e-001 
-1.106404e-001 
9.141326e-002 
2.967488e-001 
4.499725e-001 
5.442522e-001 
6.086930e-001 
6.673261e-001 
7.264693e-001 
7.792777e-001 
8.248698e-001 
8.678997e-001 
9.040494e-001 
9.279623e-001 
9.371447e-001 
9.324756e-001 
9.178709e-001 
8.904381e-001 
8.497444e-001 
8.011622e-001 
7.450261e-001 
6.770762e-001 
5.990709e-001 
5.166804e-001 
4.341162e-001 
3.523654e-001 
2.718120e-001 
1.952867e-001 
1.226039e-001 
5.467492e-002 
-3.973819e-003 
-5.157390e-002 
-8.605877e-002 
-1.092784e-001 
-1.228832e-001 
-1.292457e-001 
-1.332682e-001 
-1.361388e-001 
-1.351924e-001 
-1.298468e-001 
-1.225344e-001 
-1.148063e-001 
-1.061845e-001 
-9.622790e-002 
-9.106297e-002 
-9.129623e-002 
-9.150449e-002 
-8.850282e-002 
-8.461911e-002 
-8.518086e-002 
-8.917490e-002 
-9.203905e-002 
-9.764868e-002 
-1.082269e-001 
-1.185651e-001 
-1.230480e-001 
-1.260417e-001 
-1.335104e-001 
-1.453489e-001 
-1.548749e-001 
-1.623832e-001 
-1.642769e-001 
-1.592161e-001 
-1.452789e-001 
-1.204333e-001 
-1.547644e-001 
-2.941778e-001 
-4.702983e-001 
-6.074689e-001 
-6.708681e-001 
-6.725487e-001 
-6.540999e-001 
-6.200842e-001 
-6.187585e-001 
-7.248559e-001 
-8.394422e-001 
-8.333946e-001 
-7.232897e-001 
-5.821888e-001 
-4.810300e-001 
-4.286492e-001 
-3.965067e-001 
-3.799925e-001 
-3.308475e-001 
-1.779169e-001 
4.646806e-002 
2.616454e-001 
4.191674e-001 
5.144393e-001 
5.793214e-001 
6.340992e-001 
6.856399e-001 
7.336578e-001 
7.743884e-001 
8.095050e-001 
8.380367e-001 
8.564018e-001 
8.608832e-001 
8.525177e-001 
8.344982e-001 
8.063299e-001 
7.667407e-001 
7.184648e-001 
6.658536e-001 
6.037499e-001 
5.324767e-001 
4.565577e-001 
3.808314e-001 
3.070782e-001 
2.341200e-001 
1.657591e-001 
1.062010e-001 
5.227950e-002 
5.154632e-004 
-3.936113e-002 
-6.704662e-002 
-8.727049e-002 
-1.012644e-001 
-1.092871e-001 
-1.113869e-001 
-1.121522e-001 
-1.147511e-001 
-1.146371e-001 
-1.083837e-001 
-1.018553e-001 
-9.570166e-002 
-8.735113e-002 
-7.956644e-002 
-7.697669e-002 
-7.965126e-002 
-8.021530e-002 
-7.718160e-002 
-7.632647e-002 
-7.824249e-002 
-8.242694e-002 
-8.764642e-002 
-9.657298e-002 
-1.092145e-001 
-1.185454e-001 
-1.213539e-001 
-1.270771e-001 
-1.379697e-001 
-1.499676e-001 
-1.603813e-001 
-1.622486e-001 
-1.578329e-001 
-1.459937e-001 
-1.224461e-001 
-1.496975e-001 
-2.825536e-001 
-4.587830e-001 
-5.959769e-001 
-6.564769e-001 
-6.569945e-001 
-6.378393e-001 
-6.041465e-001 
-5.973206e-001 
-6.951780e-001 
-8.111605e-001 
-8.092119e-001 
-6.982943e-001 
-5.586491e-001 
-4.604225e-001 
-4.087946e-001 
-3.763137e-001 
-3.609553e-001 
-3.201999e-001 
-1.747049e-001 
4.673767e-002 
2.578032e-001 
4.123781e-001 
5.087371e-001 
5.741868e-001 
6.279575e-001 
6.749008e-001 
7.198671e-001 
7.638611e-001 
7.979844e-001 
8.226038e-001 
8.396480e-001 
8.408112e-001 
8.258659e-001 
8.025754e-001 
7.710254e-001 
7.317644e-001 
6.838641e-001 
6.238605e-001 
5.556112e-001 
4.809266e-001 
4.003509e-001 
3.216314e-001 
2.485932e-001 
1.778885e-001 
1.098648e-001 
4.571417e-002 
-1.245266e-002 
-6.158152e-002 
-9.986593e-002 
-1.259243e-001 
-1.423430e-001 
-1.532810e-001 
-1.601735e-001 
-1.633666e-001 
-1.628607e-001 
-1.583969e-001 
-1.516110e-001 
-1.427924e-001 
-1.337014e-001 
-1.261748e-001 
-1.232798e-001 
-1.248725e-001 
-1.251063e-001 
-1.232543e-001 
-1.242201e-001 
-1.276781e-001 
-1.317876e-001 
-1.368404e-001 
-1.448693e-001 
-1.596133e-001 
-1.707548e-001 
-1.734402e-001 
-1.788455e-001 
-1.903919e-001 
-2.005153e-001 
-2.087549e-001 
-2.172202e-001 
-2.233048e-001 
-2.214359e-001 
-2.014601e-001 
-1.760642e-001 
-2.168843e-001 
-3.643194e-001 
-5.438920e-001 
-6.749997e-001 
-7.262066e-001 
-7.198095e-001 
-6.908309e-001 
-6.494279e-001 
-6.536897e-001 
-7.646710e-001 
-8.776562e-001 
-8.580141e-001 
-7.277932e-001 
-5.775623e-001 
-4.806551e-001 
-4.300629e-001 
-3.999689e-001 
-3.822660e-001 
-3.230394e-001 
-1.581903e-001 
7.718625e-002 
2.954181e-001 
4.446776e-001 
5.315809e-001 
5.963883e-001 
6.542710e-001 
7.100553e-001 
7.593150e-001 
8.015036e-001 
8.412367e-001 
8.725581e-001 
8.887461e-001 
8.897316e-001 
8.793668e-001 
8.573033e-001 
8.209272e-001 
7.734259e-001 
7.205514e-001 
6.591817e-001 
5.860004e-001 
5.026519e-001 
4.162781e-001 
3.337490e-001 
2.501001e-001 
1.680186e-001 
9.265952e-002 
2.417388e-002 
-3.861113e-002 
-9.286007e-002 
-1.356348e-001 
-1.645703e-001 
-1.844341e-001 
-1.990409e-001 
-2.051834e-001 
-2.064277e-001 
-2.050309e-001 
-1.999438e-001 
-1.902973e-001 
-1.801468e-001 
-1.710237e-001 
-1.649032e-001 
-1.618862e-001 
-1.606146e-001 
-1.605325e-001 
-1.587617e-001 
-1.553989e-001 
-1.562451e-001 
-1.612949e-001 
-1.682551e-001 
-1.782952e-001 
-1.887610e-001 
-1.967808e-001 
-2.017840e-001 
-2.054763e-001 
-2.132429e-001 
-2.248314e-001 
-2.354654e-001 
-2.433609e-001 
-2.429385e-001 
-2.351608e-001 
-2.139168e-001 
-2.246524e-001 
-3.374128e-001 
-5.158760e-001 
-6.639466e-001 
-7.324691e-001 
-7.350740e-001 
-7.117433e-001 
-6.763442e-001 
-6.522527e-001 
-7.240192e-001 
-8.483221e-001 
-8.702735e-001 
-7.587144e-001 
-6.026327e-001 
-4.872182e-001 
-4.245103e-001 
-3.824628e-001 
-3.535365e-001 
-3.130091e-001 
-1.820720e-001 
4.309055e-002 
2.750076e-001 
4.428978e-001 
5.435749e-001 
6.147447e-001 
6.785201e-001 
7.357558e-001 
7.882559e-001 
8.387680e-001 
8.842619e-001 
9.168565e-001 
9.338131e-001 
9.405998e-001 
9.363578e-001 
9.157619e-001 
8.809292e-001 
8.385074e-001 
7.867285e-001 
7.225471e-001 
6.467627e-001 
5.664661e-001 
4.845466e-001 
3.973291e-001 
3.082338e-001 
2.243558e-001 
1.461803e-001 
7.183938e-002 
4.903725e-003 
-5.094234e-002 
-9.634099e-002 
-1.332548e-001 
-1.599337e-001 
-1.761370e-001 
-1.846190e-001 
-1.895356e-001 
-1.910717e-001 
-1.885892e-001 
-1.840739e-001 
-1.795589e-001 
-1.732270e-001 
-1.657436e-001 
-1.582076e-001 
-1.536792e-001 
-1.542898e-001 
-1.534591e-001 
-1.498103e-001 
-1.473488e-001 
-1.491539e-001 
-1.533330e-001 
-1.576823e-001 
-1.644395e-001 
-1.762596e-001 
-1.860880e-001 
-1.899279e-001 
-1.953630e-001 
-2.060052e-001 
-2.189294e-001 
-2.276272e-001 
-2.329464e-001 
-2.319737e-001 
-2.227643e-001 
-2.053537e-001 
-2.233161e-001 
-3.312300e-001 
-4.950534e-001 
-6.409282e-001 
-7.263908e-001 
-7.477750e-001 
-7.313970e-001 
-7.030172e-001 
-6.913242e-001 
-7.596604e-001 
-8.672403e-001 
-8.913241e-001 
-8.117508e-001 
-6.842225e-001 
-5.692188e-001 
-4.997382e-001 
-4.619707e-001 
-4.380216e-001 
-3.975520e-001 
-2.755153e-001 
-7.381021e-002 
1.383044e-001 
3.101111e-001 
4.227797e-001 
4.919688e-001 
5.434536e-001 
5.902548e-001 
6.324363e-001 
6.676709e-001 
6.956483e-001 
7.174747e-001 
7.284782e-001 
7.265573e-001 
7.152193e-001 
6.959124e-001 
6.686168e-001 
6.312419e-001 
5.871279e-001 
5.377612e-001 
4.815536e-001 
4.173303e-001 
3.528698e-001 
2.902891e-001 
2.291053e-001 
1.702149e-001 
1.156274e-001 
6.868501e-002 
2.708722e-002 
-8.988266e-003 
-3.640218e-002 
-5.216501e-002 
-6.103974e-002 
-6.637674e-002 
-6.719727e-002 
-6.264124e-002 
-5.573970e-002 
-4.975217e-002 
-4.204965e-002 
-3.196219e-002 
-2.213196e-002 
-1.673362e-002 
-1.345733e-002 
-8.389745e-003 
-2.885152e-003 
-2.927716e-004 
-5.643252e-004 
-6.621519e-004 
-2.119190e-003 
-6.923457e-003 
-1.329991e-002 
-1.689247e-002 
-1.895763e-002 
-2.410533e-002 
-3.316855e-002 
-4.260839e-002 
-5.071924e-002 
-5.848589e-002 
-5.956454e-002 
-5.412237e-002 
-4.122722e-002 
-3.034627e-002 
-7.893469e-002 
-2.056452e-001 
-3.502190e-001 
-4.596744e-001 
-5.079019e-001 
-5.104592e-001 
-4.985246e-001 
-4.764276e-001 
-4.924748e-001 
-5.886447e-001 
-6.682790e-001 
-6.473373e-001 
-5.529163e-001 
-4.407098e-001 
-3.645003e-001 
-3.231006e-001 
-2.958474e-001 
-2.776284e-001 
-2.230667e-001 
-8.090059e-002 
1.091478e-001 
2.856362e-001 
4.158823e-001 
4.992435e-001 
5.617839e-001 
6.166582e-001 
6.669179e-001 
7.110298e-001 
7.517927e-001 
7.865164e-001 
8.128962e-001 
8.265552e-001 
8.269430e-001 
8.159143e-001 
7.948826e-001 
7.628492e-001 
7.215071e-001 
6.736552e-001 
6.178645e-001 
5.515592e-001 
4.774619e-001 
4.014569e-001 
3.266167e-001 
2.535794e-001 
1.830481e-001 
1.176341e-001 
5.864409e-002 
5.666380e-003 
-3.996105e-002 
-7.435606e-002 
-9.704683e-002 
-1.118101e-001 
-1.218812e-001 
-1.250291e-001 
-1.213346e-001 
-1.146298e-001 
-1.064536e-001 
-9.531176e-002 
-8.397904e-002 
-7.751905e-002 
-7.667459e-002 
-7.515706e-002 
-6.954107e-002 
-6.510449e-002 
-6.683473e-002 
-6.994095e-002 
-7.396082e-002 
-8.367321e-002 
-9.717624e-002 
-1.070560e-001 
-1.112824e-001 
-1.164569e-001 
-1.271523e-001 
-1.394547e-001 
-1.497127e-001 
-1.615884e-001 
-1.679708e-001 
-1.634386e-001 
-1.398518e-001 
-1.192426e-001 
-1.788769e-001 
-3.426583e-001 
-5.241118e-001 
-6.451464e-001 
-6.840637e-001 
-6.704065e-001 
-6.367268e-001 
-5.939018e-001 
-6.156427e-001 
-7.398233e-001 
-8.393670e-001 
-7.940837e-001 
-6.482357e-001 
-5.007315e-001 
-4.110298e-001 
-3.621091e-001 
-3.315464e-001 
-3.107569e-001 
-2.372220e-001 
-5.394796e-002 
1.908219e-001 
4.023317e-001 
5.400966e-001 
6.224665e-001 
6.881612e-001 
7.507231e-001 
8.071942e-001 
8.568458e-001 
9.033501e-001 
9.464855e-001 
9.769244e-001 
9.899820e-001 
9.887172e-001 
9.767960e-001 
9.514932e-001 
9.105073e-001 
8.614736e-001 
8.060027e-001 
7.404008e-001 
6.614041e-001 
5.753933e-001 
4.894465e-001 
4.023692e-001 
3.138721e-001 
2.283441e-001 
1.496343e-001 
7.688864e-002 
1.016185e-002 
-4.652148e-002 
-8.895929e-002 
-1.194842e-001 
-1.403888e-001 
-1.516922e-001 
-1.570096e-001 
-1.573534e-001 
-1.526291e-001 
-1.450500e-001 
-1.347794e-001 
-1.248772e-001 
-1.196886e-001 
-1.176918e-001 
-1.156911e-001 
-1.140977e-001 
-1.107384e-001 
-1.091070e-001 
-1.115355e-001 
-1.156244e-001 
-1.243334e-001 
-1.373094e-001 
-1.475733e-001 
-1.518456e-001 
-1.575748e-001 
-1.667706e-001 
-1.788978e-001 
-1.907406e-001 
-2.019488e-001 
-2.099421e-001 
-2.098952e-001 
-1.900811e-001 
-1.652743e-001 
-2.175431e-001 
-3.792534e-001 
-5.620672e-001 
-6.861834e-001 
-7.316473e-001 
-7.232974e-001 
-6.918463e-001 
-6.442850e-001 
-6.519190e-001 
-7.761504e-001 
-8.850033e-001 
-8.421057e-001 
-6.972719e-001 
-5.482801e-001 
-4.520708e-001 
-3.975226e-001 
-3.623246e-001 
-3.443835e-001 
-2.823969e-001 
-9.998811e-002 
1.487585e-001 
3.618117e-001 
5.032596e-001 
5.916663e-001 
6.610154e-001 
7.217317e-001 
7.765124e-001 
8.296095e-001 
8.793734e-001 
9.199687e-001 
9.501274e-001 
9.690057e-001 
9.741270e-001 
9.613385e-001 
9.333198e-001 
8.950783e-001 
8.494094e-001 
7.943322e-001 
7.282830e-001 
6.504615e-001 
5.635785e-001 
4.718126e-001 
3.782773e-001 
2.875619e-001 
2.024053e-001 
1.229616e-001 
4.763411e-002 
-2.236057e-002 
-8.435949e-002 
-1.326047e-001 
-1.660030e-001 
-1.896215e-001 
-2.037812e-001 
-2.085358e-001 
-2.101271e-001 
-2.081515e-001 
-2.017839e-001 
-1.956513e-001 
-1.857982e-001 
-1.760619e-001 
-1.719331e-001 
-1.680241e-001 
-1.639999e-001 
-1.627817e-001 
-1.620995e-001 
-1.651781e-001 
-1.718951e-001 
-1.763705e-001 
-1.837496e-001 
-1.953099e-001 
-2.045863e-001 
-2.112135e-001 
-2.212422e-001 
-2.336346e-001 
-2.452928e-001 
-2.554667e-001 
-2.613571e-001 
-2.602301e-001 
-2.543558e-001 
-2.320469e-001 
-2.299875e-001 
-3.193928e-001 
-4.853641e-001 
-6.457488e-001 
-7.445051e-001 
-7.696373e-001 
-7.545558e-001 
-7.236239e-001 
-6.933645e-001 
-7.451950e-001 
-8.687072e-001 
-9.276660e-001 
-8.576735e-001 
-7.185564e-001 
-5.917564e-001 
-5.176943e-001 
-4.762792e-001 
-4.524703e-001 
-4.267864e-001 
-3.275397e-001 
-1.292662e-001 
1.037728e-001 
2.925650e-001 
4.134437e-001 
4.903596e-001 
5.497730e-001 
6.026603e-001 
6.510540e-001 
6.944145e-001 
7.354029e-001 
7.688084e-001 
7.881356e-001 
7.966505e-001 
7.922705e-001 
7.743475e-001 
7.471029e-001 
7.091363e-001 
6.646517e-001 
6.127104e-001 
5.482448e-001 
4.762531e-001 
4.004020e-001 
3.223097e-001 
2.451773e-001 
1.717322e-001 
1.039594e-001 
4.135839e-002 
-1.823354e-002 
-6.939345e-002 
-1.092662e-001 
-1.381665e-001 
-1.584307e-001 
-1.719046e-001 
-1.762980e-001 
-1.743562e-001 
-1.702318e-001 
-1.620777e-001 
-1.504794e-001 
-1.384138e-001 
-1.276637e-001 
-1.239369e-001 
-1.233608e-001 
-1.195958e-001 
-1.134885e-001 
-1.101663e-001 
-1.120903e-001 
-1.166990e-001 
-1.214633e-001 
-1.316798e-001 
-1.452187e-001 
-1.535239e-001 
-1.560745e-001 
-1.613888e-001 
-1.749031e-001 
-1.894443e-001 
-1.983977e-001 
-2.066085e-001 
-2.075487e-001 
-1.954326e-001 
-1.721777e-001 
-1.419601e-001 
-1.771048e-001 
-3.211718e-001 
-4.957379e-001 
-6.193416e-001 
-6.621512e-001 
-6.469912e-001 
-6.180618e-001 
-5.792900e-001 
-5.790352e-001 
-6.925790e-001 
-8.105419e-001 
-7.913633e-001 
-6.598476e-001 
-5.140430e-001 
-4.267282e-001 
-3.864961e-001 
-3.620696e-001 
-3.513879e-001 
-3.061574e-001 
-1.484205e-001 
8.422490e-002 
2.951849e-001 
4.330238e-001 
5.126563e-001 
5.727533e-001 
6.254755e-001 
6.731480e-001 
7.163411e-001 
7.570218e-001 
7.894146e-001 
8.079580e-001 
8.158316e-001 
8.142337e-001 
8.002044e-001 
7.745059e-001 
7.379729e-001 
6.947234e-001 
6.433180e-001 
5.802289e-001 
5.108133e-001 
4.403912e-001 
3.670409e-001 
2.929679e-001 
2.209354e-001 
1.534170e-001 
9.146125e-002 
3.374030e-002 
-1.608745e-002 
-5.377061e-002 
-8.200859e-002 
-1.025942e-001 
-1.146510e-001 
-1.200296e-001 
-1.193976e-001 
-1.138171e-001 
-1.049514e-001 
-9.360358e-002 
-8.190873e-002 
-7.467425e-002 
-7.269430e-002 
-7.187736e-002 
-7.013313e-002 
-6.777588e-002 
-6.723551e-002 
-6.816756e-002 
-7.111740e-002 
-7.944191e-002 
-9.333587e-002 
-1.062209e-001 
-1.120852e-001 
-1.166237e-001 
-1.257141e-001 
-1.359989e-001 
-1.439708e-001 
-1.567183e-001 
-1.678304e-001 
-1.673550e-001 
-1.507056e-001 
-1.149308e-001 
-1.264036e-001 
-2.554531e-001 
-4.387656e-001 
-5.806761e-001 
-6.403323e-001 
-6.328499e-001 
-6.009099e-001 
-5.527817e-001 
-5.272483e-001 
-6.210299e-001 
-7.606062e-001 
-7.686645e-001 
-6.402211e-001 
-4.795830e-001 
-3.734335e-001 
-3.213860e-001 
-2.891161e-001 
-2.739345e-001 
-2.433143e-001 
-1.060472e-001 
1.283279e-001 
3.564140e-001 
5.120211e-001 
5.974243e-001 
6.593604e-001 
7.192140e-001 
7.757830e-001 
8.273500e-001 
8.770441e-001 
9.220627e-001 
9.582129e-001 
9.786534e-001 
9.836393e-001 
9.785368e-001 
9.593857e-001 
9.247886e-001 
8.819117e-001 
8.307853e-001 
7.691086e-001 
6.963992e-001 
6.141839e-001 
5.277505e-001 
4.392650e-001 
3.509808e-001 
2.667016e-001 
1.883934e-001 
1.147946e-001 
4.721345e-002 
-1.244746e-002 
-6.068846e-002 
-9.759809e-002 
-1.216693e-001 
-1.342617e-001 
-1.391354e-001 
-1.377987e-001 
-1.320439e-001 
-1.250611e-001 
-1.152404e-001 
-1.050925e-001 
-9.863784e-002 
-9.666305e-002 
-9.432876e-002 
-8.993921e-002 
-8.668792e-002 
-8.773219e-002 
-8.988555e-002 
-9.267133e-002 
-1.023078e-001 
-1.155120e-001 
-1.262312e-001 
-1.296673e-001 
-1.351279e-001 
-1.456487e-001 
-1.573699e-001 
-1.668986e-001 
-1.794286e-001 
-1.865845e-001 
-1.824439e-001 
-1.592706e-001 
-1.286529e-001 
-1.676984e-001 
-3.173675e-001 
-4.943905e-001 
-6.198397e-001 
-6.700962e-001 
-6.631583e-001 
-6.325058e-001 
-5.853844e-001 
-5.892022e-001 
-7.071456e-001 
-8.204159e-001 
-7.892002e-001 
-6.578790e-001 
-5.137128e-001 
-4.167793e-001 
-3.640516e-001 
-3.352050e-001 
-3.219366e-001 
-2.654742e-001 
-9.752566e-002 
1.383925e-001 
3.491069e-001 
4.956641e-001 
5.837532e-001 
6.488020e-001 
7.081601e-001 
7.685372e-001 
8.226471e-001 
8.681995e-001 
9.117631e-001 
9.459918e-001 
9.638903e-001 
9.653144e-001 
9.531129e-001 
9.310066e-001 
8.974356e-001 
8.510108e-001 
7.979775e-001 
7.360219e-001 
6.596269e-001 
5.760008e-001 
4.888470e-001 
4.021669e-001 
3.180001e-001 
2.350414e-001 
1.575142e-001 
8.563099e-002 
1.814927e-002 
-3.794596e-002 
-8.053139e-002 
-1.128095e-001 
-1.345141e-001 
-1.465343e-001 
-1.500561e-001 
-1.448944e-001 
-1.378880e-001 
-1.292886e-001 
-1.189622e-001 
-1.115296e-001 
-1.101664e-001 
-1.106420e-001 
-1.070577e-001 
-1.007031e-001 
-9.848573e-002 
-1.032190e-001 
-1.092790e-001 
-1.166454e-001 
-1.278142e-001 
-1.410062e-001 
-1.483076e-001 
-1.517037e-001 
-1.604599e-001 
-1.744237e-001 
-1.866289e-001 
-1.968390e-001 
-2.036958e-001 
-2.048049e-001 
-1.954088e-001 
-1.690261e-001 
-1.816871e-001 
-2.958728e-001 
-4.639532e-001 
-6.019239e-001 
-6.671779e-001 
-6.716195e-001 
-6.511040e-001 
-6.117111e-001 
-5.895156e-001 
-6.686394e-001 
-7.899074e-001 
-8.073905e-001 
-7.046665e-001 
-5.617525e-001 
-4.562725e-001 
-3.966183e-001 
-3.595911e-001 
-3.428010e-001 
-3.102342e-001 
-1.841668e-001 
2.607539e-002 
2.387830e-001 
3.971941e-001 
4.958979e-001 
5.627310e-001 
6.158064e-001 
6.677728e-001 
7.187612e-001 
7.630806e-001 
8.015125e-001 
8.364575e-001 
8.622784e-001 
8.700338e-001 
8.604940e-001 
8.418398e-001 
8.152751e-001 
7.754080e-001 
7.269564e-001 
6.731308e-001 
6.103762e-001 
5.345361e-001 
4.511787e-001 
3.699991e-001 
2.926543e-001 
2.145501e-001 
1.388820e-001 
7.336632e-002 
1.463689e-002 
-4.068846e-002 
-8.760642e-002 
-1.196539e-001 
-1.399670e-001 
-1.547250e-001 
-1.653001e-001 
-1.649177e-001 
-1.559744e-001 
-1.496102e-001 
-1.448265e-001 
-1.343013e-001 
-1.231469e-001 
-1.206421e-001 
-1.211246e-001 
-1.168546e-001 
-1.106383e-001 
-1.127702e-001 
-1.196710e-001 
-1.234545e-001 
-1.267967e-001 
-1.378855e-001 
-1.529565e-001 
-1.592166e-001 
-1.627846e-001 
-1.737203e-001 
-1.862920e-001 
-1.941451e-001 
-2.011253e-001 
-2.034653e-001 
-1.988467e-001 
-1.815077e-001 
-1.617856e-001 
-2.136365e-001 
-3.548214e-001 
-5.076085e-001 
-6.167197e-001 
-6.588247e-001 
-6.517680e-001 
-6.293700e-001 
-5.986075e-001 
-6.166235e-001 
-7.275997e-001 
-8.111097e-001 
-7.751650e-001 
-6.627078e-001 
-5.400932e-001 
-4.612545e-001 
-4.204360e-001 
-3.951542e-001 
-3.803530e-001 
-3.201003e-001 
-1.592953e-001 
4.930046e-002 
2.329941e-001 
3.619540e-001 
4.431469e-001 
5.036778e-001 
5.554434e-001 
6.023355e-001 
6.467216e-001 
6.859972e-001 
7.176629e-001 
7.401995e-001 
7.518664e-001 
7.503519e-001 
7.369959e-001 
7.141799e-001 
6.831968e-001 
6.441250e-001 
5.947940e-001 
5.374696e-001 
4.710904e-001 
3.979431e-001 
3.218245e-001 
2.478721e-001 
1.766820e-001 
1.088676e-001 
4.384677e-002 
-1.528797e-002 
-6.706590e-002 
-1.125725e-001 
-1.478273e-001 
-1.710457e-001 
-1.836238e-001 
-1.903411e-001 
-1.923381e-001 
-1.898789e-001 
-1.816421e-001 
-1.736000e-001 
-1.649578e-001 
-1.543468e-001 
-1.463757e-001 
-1.438005e-001 
-1.413347e-001 
-1.374931e-001 
-1.339791e-001 
-1.355772e-001 
-1.421351e-001 
-1.463152e-001 
-1.539211e-001 
-1.664557e-001 
-1.762792e-001 
-1.798740e-001 
-1.856773e-001 
-1.978113e-001 
-2.139470e-001 
-2.250811e-001 
-2.345194e-001 
-2.410174e-001 
-2.387328e-001 
-2.147323e-001 
-1.916605e-001 
-2.502885e-001 
-4.118867e-001 
-5.854074e-001 
-6.966549e-001 
-7.333763e-001 
-7.222532e-001 
-6.906486e-001 
-6.458542e-001 
-6.687934e-001 
-7.980190e-001 
-8.966524e-001 
-8.486668e-001 
-7.089361e-001 
-5.713348e-001 
-4.902875e-001 
-4.465189e-001 
-4.212011e-001 
-4.112579e-001 
-3.441074e-001 
-1.624660e-001 
7.464075e-002 
2.747909e-001 
4.026498e-001 
4.796258e-001 
5.419743e-001 
5.977773e-001 
6.513983e-001 
7.035229e-001 
7.481659e-001 
7.844595e-001 
8.065832e-001 
8.134618e-001 
8.087798e-001 
7.900354e-001 
7.610431e-001 
7.222571e-001 
6.714918e-001 
6.131266e-001 
5.445984e-001 
4.631664e-001 
3.785756e-001 
2.932007e-001 
2.092533e-001 
1.288516e-001 
4.988130e-002 
-2.247474e-002 
-8.673224e-002 
-1.473324e-001 
-1.968798e-001 
-2.307132e-001 
-2.533679e-001 
-2.663239e-001 
-2.723388e-001 
-2.703930e-001 
-2.607431e-001 
-2.534237e-001 
-2.477876e-001 
-2.386446e-001 
-2.314330e-001 
-2.295643e-001 
-2.284524e-001 
-2.248723e-001 
-2.197249e-001 
-2.210349e-001 
-2.284858e-001 
-2.345477e-001 
-2.421661e-001 
-2.542772e-001 
-2.650149e-001 
-2.698989e-001 
-2.748456e-001 
-2.844036e-001 
-2.982892e-001 
-3.098568e-001 
-3.188102e-001 
-3.217065e-001 
-3.179896e-001 
-2.930409e-001 
-2.705139e-001 
-3.308793e-001 
-4.953263e-001 
-6.742180e-001 
-7.877047e-001 
-8.213406e-001 
-8.094096e-001 
-7.782617e-001 
-7.305022e-001 
-7.531895e-001 
-8.824859e-001 
-9.788856e-001 
-9.233762e-001 
-7.748268e-001 
-6.329669e-001 
-5.484545e-001 
-4.968359e-001 
-4.638985e-001 
-4.498439e-001 
-3.766988e-001 
-1.836455e-001 
6.298472e-002 
2.659463e-001 
3.999138e-001 
4.860799e-001 
5.561342e-001 
6.152929e-001 
6.708120e-001 
7.290760e-001 
7.832374e-001 
8.229882e-001 
8.516551e-001 
8.712281e-001 
8.753718e-001 
8.617521e-001 
8.357497e-001 
8.019596e-001 
7.590607e-001 
7.028731e-001 
6.328030e-001 
5.567246e-001 
4.739162e-001 
3.837912e-001 
2.946227e-001 
2.118020e-001 
1.301928e-001 
4.951989e-002 
-2.604980e-002 
-9.073761e-002 
-1.429812e-001 
-1.856254e-001 
-2.147238e-001 
-2.303828e-001 
-2.387963e-001 
-2.450631e-001 
-2.445487e-001 
-2.366120e-001 
-2.248290e-001 
-2.140600e-001 
-2.032773e-001 
-1.933104e-001 
-1.890769e-001 
-1.877179e-001 
-1.848266e-001 
-1.799400e-001 
-1.784420e-001 
-1.814180e-001 
-1.871892e-001 
-1.924454e-001 
-2.012423e-001 
-2.132817e-001 
-2.209436e-001 
-2.245822e-001 
-2.310541e-001 
-2.423352e-001 
-2.529635e-001 
-2.592148e-001 
-2.599856e-001 
-2.586552e-001 
-2.396408e-001 
-2.146791e-001 
-2.706132e-001 
-4.367487e-001 
-6.164279e-001 
-7.287981e-001 
-7.579907e-001 
-7.419901e-001 
-7.078178e-001 
-6.566628e-001 
-6.730072e-001 
-8.059455e-001 
-9.063390e-001 
-8.510089e-001 
-7.006669e-001 
-5.531007e-001 
-4.649814e-001 
-4.154669e-001 
-3.860726e-001 
-3.744146e-001 
-3.061821e-001 
-1.152088e-001 
1.321313e-001 
3.372636e-001 
4.697393e-001 
5.481591e-001 
6.080620e-001 
6.600005e-001 
7.089509e-001 
7.578257e-001 
8.030567e-001 
8.367083e-001 
8.589321e-001 
8.709219e-001 
8.695648e-001 
8.529477e-001 
8.228748e-001 
7.862937e-001 
7.432490e-001 
6.873897e-001 
6.224112e-001 
5.523809e-001 
4.753560e-001 
3.953818e-001 
3.130018e-001 
2.337424e-001 
1.623882e-001 
9.358022e-002 
3.046025e-002 
-2.192696e-002 
-6.667887e-002 
-1.010261e-001 
-1.241917e-001 
-1.410672e-001 
-1.486664e-001 
-1.502086e-001 
-1.478290e-001 
-1.397247e-001 
-1.312298e-001 
-1.221587e-001 
-1.112561e-001 
-1.057591e-001 
-1.056431e-001 
-1.026750e-001 
-9.868127e-002 
-9.503475e-002 
-9.648476e-002 
-1.010415e-001 
-1.050466e-001 
-1.126990e-001 
-1.253538e-001 
-1.349907e-001 
-1.376453e-001 
-1.430019e-001 
-1.542784e-001 
-1.662450e-001 
-1.742374e-001 
-1.802184e-001 
-1.771639e-001 
-1.665466e-001 
-1.414184e-001 
-1.356278e-001 
-2.273620e-001 
-3.957253e-001 
-5.484805e-001 
-6.334334e-001 
-6.470569e-001 
-6.246512e-001 
-5.934050e-001 
-5.644211e-001 
-6.174425e-001 
-7.477178e-001 
-8.001563e-001 
-7.190061e-001 
-5.780765e-001 
-4.590798e-001 
-3.952573e-001 
-3.625932e-001 
-3.433870e-001 
-3.230710e-001 
-2.262502e-001 
-2.679000e-002 
1.953375e-001 
3.676176e-001 
4.743531e-001 
5.400662e-001 
5.917857e-001 
6.402044e-001 
6.863886e-001 
7.300887e-001 
7.691578e-001 
8.011728e-001 
8.242491e-001 
8.377052e-001 
8.376157e-001 
8.263187e-001 
8.049977e-001 
7.723397e-001 
7.311538e-001 
6.820451e-001 
6.246130e-001 
5.604990e-001 
4.918559e-001 
4.195447e-001 
3.476521e-001 
2.762614e-001 
2.078062e-001 
1.451246e-001 
8.809138e-002 
3.712130e-002 
-6.122561e-003 
-3.857394e-002 
-6.166835e-002 
-7.788316e-002 
-8.763608e-002 
-9.030015e-002 
-8.706555e-002 
-7.901497e-002 
-6.986179e-002 
-6.059153e-002 
-4.904109e-002 
-4.097105e-002 
-3.981138e-002 
-3.924534e-002 
-3.499724e-002 
-3.057677e-002 
-2.879645e-002 
-3.298454e-002 
-3.798550e-002 
-4.178041e-002 
-5.275366e-002 
-6.609238e-002 
-7.185160e-002 
-7.570630e-002 
-8.380408e-002 
-9.538925e-002 
-1.090911e-001 
-1.176172e-001 
-1.248614e-001 
-1.284455e-001 
-1.204365e-001 
-9.216042e-002 
-8.547288e-002 
-1.740554e-001 
-3.357697e-001 
-4.785260e-001 
-5.527314e-001 
-5.677810e-001 
-5.522159e-001 
-5.186403e-001 
-4.859127e-001 
-5.419270e-001 
-6.700603e-001 
-7.149951e-001 
-6.285935e-001 
-4.947578e-001 
-3.889828e-001 
-3.293842e-001 
-2.937326e-001 
-2.747961e-001 
-2.550467e-001 
-1.563437e-001 
3.856569e-002 
2.492436e-001 
4.098224e-001 
5.127333e-001 
5.831918e-001 
6.438354e-001 
6.996002e-001 
7.542494e-001 
8.041223e-001 
8.437003e-001 
8.762335e-001 
8.985736e-001 
9.058163e-001 
9.000862e-001 
8.818007e-001 
8.514922e-001 
8.127711e-001 
7.619866e-001 
7.011029e-001 
6.333747e-001 
5.553228e-001 
4.728258e-001 
3.898301e-001 
3.068655e-001 
2.263557e-001 
1.496442e-001 
7.766093e-002 
1.324959e-002 
-4.289487e-002 
-8.844109e-002 
-1.196818e-001 
-1.407235e-001 
-1.531394e-001 
-1.594681e-001 
-1.601370e-001 
-1.546342e-001 
-1.470314e-001 
-1.385829e-001 
-1.288659e-001 
-1.191939e-001 
-1.138816e-001 
-1.126506e-001 
-1.112513e-001 
-1.064338e-001 
-1.029284e-001 
-1.042418e-001 
-1.083339e-001 
-1.141562e-001 
-1.227069e-001 
-1.358527e-001 
-1.462896e-001 
-1.506677e-001 
-1.562991e-001 
-1.674268e-001 
-1.799231e-001 
-1.897380e-001 
-1.960464e-001 
-1.966602e-001 
-1.833308e-001 
-1.530114e-001 
-1.851323e-001 
-3.362450e-001 
-5.192275e-001 
-6.471229e-001 
-6.944827e-001 
-6.858700e-001 
-6.561764e-001 
-6.100952e-001 
-6.036754e-001 
-7.215156e-001 
-8.441411e-001 
-8.161318e-001 
-6.796316e-001 
-5.284558e-001 
-4.292775e-001 
-3.794714e-001 
-3.489377e-001 
-3.339610e-001 
-2.860662e-001 
-1.187475e-001 
1.246604e-001 
3.400044e-001 
4.868955e-001 
5.726530e-001 
6.361785e-001 
6.957095e-001 
7.542277e-001 
8.103690e-001 
8.634315e-001 
9.066078e-001 
9.361518e-001 
9.536257e-001 
9.544815e-001 
9.403743e-001 
9.148603e-001 
8.802346e-001 
8.358114e-001 
7.800803e-001 
7.131107e-001 
6.370133e-001 
5.526780e-001 
4.608740e-001 
3.713282e-001 
2.864203e-001 
2.025181e-001 
1.214632e-001 
4.689849e-002 
-1.877740e-002 
-7.612401e-002 
-1.238524e-001 
-1.568531e-001 
-1.741279e-001 
-1.871321e-001 
-1.953703e-001 
-1.947658e-001 
-1.884750e-001 
-1.803581e-001 
-1.740362e-001 
-1.647942e-001 
-1.547157e-001 
-1.525423e-001 
-1.544562e-001 
-1.508523e-001 
-1.443915e-001 
-1.419983e-001 
-1.447468e-001 
-1.490822e-001 
-1.541957e-001 
-1.650097e-001 
-1.779481e-001 
-1.850607e-001 
-1.883615e-001 
-1.955573e-001 
-2.076041e-001 
-2.180168e-001 
-2.274019e-001 
-2.322933e-001 
-2.290652e-001 
-2.137134e-001 
-1.826961e-001 
-1.996035e-001 
-3.286497e-001 
-5.058463e-001 
-6.400975e-001 
-6.968296e-001 
-6.940882e-001 
-6.688202e-001 
-6.270053e-001 
-6.119845e-001 
-7.095969e-001 
-8.402139e-001 
-8.426795e-001 
-7.231591e-001 
-5.792155e-001 
-4.828271e-001 
-4.322478e-001 
-4.036099e-001 
-3.932916e-001 
-3.613732e-001 
-2.238398e-001 
2.569029e-003 
2.168064e-001 
3.650994e-001 
4.542347e-001 
5.176586e-001 
5.704602e-001 
6.198809e-001 
6.661041e-001 
7.100688e-001 
7.468070e-001 
7.723890e-001 
7.881367e-001 
7.911313e-001 
7.789358e-001 
7.541315e-001 
7.218747e-001 
6.816438e-001 
6.310544e-001 
5.704767e-001 
5.035368e-001 
4.301499e-001 
3.513755e-001 
2.729079e-001 
2.004817e-001 
1.313406e-001 
6.249522e-002 
-1.356207e-003 
-5.424768e-002 
-9.705465e-002 
-1.331314e-001 
-1.589597e-001 
-1.713974e-001 
-1.771887e-001 
-1.829157e-001 
-1.820609e-001 
-1.721719e-001 
-1.587987e-001 
-1.484789e-001 
-1.411393e-001 
-1.337263e-001 
-1.291526e-001 
-1.290207e-001 
-1.282503e-001 
-1.225204e-001 
-1.215050e-001 
-1.272982e-001 
-1.349569e-001 
-1.415756e-001 
-1.504485e-001 
-1.614836e-001 
-1.685034e-001 
-1.717533e-001 
-1.797182e-001 
-1.955462e-001 
-2.076247e-001 
-2.137337e-001 
-2.121533e-001 
-2.045504e-001 
-1.890257e-001 
-1.570046e-001 
-1.698731e-001 
-2.980809e-001 
-4.711242e-001 
-5.971598e-001 
-6.468737e-001 
-6.381925e-001 
-6.146220e-001 
-5.777942e-001 
-5.587951e-001 
-6.533399e-001 
-7.835765e-001 
-7.825230e-001 
-6.652621e-001 
-5.247869e-001 
-4.309737e-001 
-3.856317e-001 
-3.568291e-001 
-3.449377e-001 
-3.169005e-001 
-1.823329e-001 
3.772518e-002 
2.435868e-001 
3.871210e-001 
4.741308e-001 
5.362449e-001 
5.870201e-001 
6.323280e-001 
6.759597e-001 
7.193625e-001 
7.556424e-001 
7.802851e-001 
7.961163e-001 
8.022593e-001 
7.915927e-001 
7.687880e-001 
7.392549e-001 
7.025541e-001 
6.581477e-001 
6.032170e-001 
5.396169e-001 
4.724839e-001 
4.013897e-001 
3.281164e-001 
2.597330e-001 
1.931164e-001 
1.277433e-001 
6.797829e-002 
1.591661e-002 
-2.757046e-002 
-5.977196e-002 
-8.165335e-002 
-9.402403e-002 
-1.011777e-001 
-1.057764e-001 
-1.046335e-001 
-9.665732e-002 
-8.582960e-002 
-7.534668e-002 
-6.441983e-002 
-5.716396e-002 
-5.479146e-002 
-5.362054e-002 
-5.070885e-002 
-4.725491e-002 
-4.660277e-002 
-5.150033e-002 
-5.879724e-002 
-6.691553e-002 
-7.922554e-002 
-9.037684e-002 
-9.666181e-002 
-1.042920e-001 
-1.152721e-001 
-1.280083e-001 
-1.395911e-001 
-1.456696e-001 
-1.455234e-001 
-1.400251e-001 
-1.126981e-001 
-1.116011e-001 
-2.200277e-001 
-3.976786e-001 
-5.380984e-001 
-5.901917e-001 
-5.815566e-001 
-5.561111e-001 
-5.152140e-001 
-4.790954e-001 
-5.495665e-001 
-6.900867e-001 
-7.181825e-001 
-5.968438e-001 
-4.509649e-001 
-3.594779e-001 
-3.086856e-001 
-2.749146e-001 
-2.587111e-001 
-2.381314e-001 
-1.236943e-001 
9.678692e-002 
3.103347e-001 
4.468915e-001 
5.420420e-001 
6.105259e-001 
6.636254e-001 
7.173774e-001 
7.688319e-001 
8.165320e-001 
8.587617e-001 
8.873936e-001 
9.114404e-001 
9.267603e-001 
9.181291e-001 
8.970124e-001 
8.647876e-001 
8.232314e-001 
7.724234e-001 
7.109622e-001 
6.378013e-001 
5.582453e-001 
4.771224e-001 
3.950976e-001 
3.133304e-001 
2.346658e-001 
1.583684e-001 
8.631811e-002 
2.194617e-002 
-3.199528e-002 
-7.337805e-002 
-1.037970e-001 
-1.236294e-001 
-1.344232e-001 
-1.410619e-001 
-1.425549e-001 
-1.360772e-001 
-1.269029e-001 
-1.151092e-001 
-1.036625e-001 
-9.720829e-002 
-9.365860e-002 
-9.149276e-002 
-9.000008e-002 
-8.442539e-002 
-8.124147e-002 
-8.352743e-002 
-8.546580e-002 
-9.251448e-002 
-1.041312e-001 
-1.121271e-001 
-1.169302e-001 
-1.223214e-001 
-1.275695e-001 
-1.378977e-001 
-1.495230e-001 
-1.575749e-001 
-1.612971e-001 
-1.592017e-001 
-1.356383e-001 
-1.160630e-001 
-1.736953e-001 
-3.219914e-001 
-4.793618e-001 
-5.683789e-001 
-5.824090e-001 
-5.645992e-001 
-5.328219e-001 
-4.873484e-001 
-5.095685e-001 
-6.268102e-001 
-7.074382e-001 
-6.457003e-001 
-4.993460e-001 
-3.728200e-001 
-3.051706e-001 
-2.645196e-001 
-2.365680e-001 
-2.195937e-001 
-1.482581e-001 
2.755902e-002 
2.522323e-001 
4.343209e-001 
5.458718e-001 
6.157666e-001 
6.784168e-001 
7.400344e-001 
7.961628e-001 
8.472467e-001 
8.937598e-001 
9.323096e-001 
9.570286e-001 
9.653525e-001 
9.615497e-001 
9.475818e-001 
9.188700e-001 
8.788441e-001 
8.316457e-001 
7.731448e-001 
7.019762e-001 
6.214612e-001 
5.374172e-001 
4.531152e-001 
3.656102e-001 
2.799972e-001 
2.018691e-001 
1.279358e-001 
5.676741e-002 
-5.611493e-003 
-5.371181e-002 
-8.805772e-002 
-1.131095e-001 
-1.305535e-001 
-1.373873e-001 
-1.402558e-001 
-1.397584e-001 
-1.353791e-001 
-1.280871e-001 
-1.194421e-001 
-1.098145e-001 
-1.061880e-001 
-1.063680e-001 
-1.048249e-001 
-1.042880e-001 
-1.019648e-001 
-1.043538e-001 
-1.104304e-001 
-1.146460e-001 
-1.222133e-001 
-1.367982e-001 
-1.454934e-001 
-1.505558e-001 
-1.575548e-001 
-1.651023e-001 
-1.767100e-001 
-1.844729e-001 
-1.890748e-001 
-1.903109e-001 
-1.833658e-001 
-1.578685e-001 
-1.534022e-001 
-2.492834e-001 
-4.219844e-001 
-5.803282e-001 
-6.782480e-001 
-7.032210e-001 
-6.854719e-001 
-6.532466e-001 
-6.200765e-001 
-6.769902e-001 
-8.143109e-001 
-8.634734e-001 
-7.862149e-001 
-6.519125e-001 
-5.212453e-001 
-4.477558e-001 
-4.122734e-001 
-3.909140e-001 
-3.693561e-001 
-2.683966e-001 
-6.094948e-002 
1.670000e-001 
3.523291e-001 
4.698561e-001 
5.361869e-001 
5.912390e-001 
6.444771e-001 
6.922141e-001 
7.340997e-001 
7.735673e-001 
8.040817e-001 
8.203993e-001 
8.238982e-001 
8.188898e-001 
8.057979e-001 
7.790916e-001 
7.420057e-001 
6.983039e-001 
6.450700e-001 
5.806119e-001 
5.100722e-001 
4.359448e-001 
3.611679e-001 
2.861347e-001 
2.102217e-001 
1.432053e-001 
8.025327e-002 
2.013350e-002 
-2.970183e-002 
-6.743522e-002 
-9.698154e-002 
-1.178397e-001 
-1.323331e-001 
-1.385355e-001 
-1.359551e-001 
-1.326115e-001 
-1.260065e-001 
-1.161577e-001 
-1.063627e-001 
-1.000829e-001 
-9.890346e-002 
-9.680895e-002 
-9.132600e-002 
-8.630398e-002 
-8.655595e-002 
-9.299380e-002 
-1.003271e-001 
-1.068512e-001 
-1.173234e-001 
-1.266967e-001 
-1.293387e-001 
-1.316425e-001 
-1.393671e-001 
-1.526668e-001 
-1.632663e-001 
-1.685314e-001 
-1.677421e-001 
-1.584812e-001 
-1.405577e-001 
-1.215993e-001 
-1.472200e-001 
-2.404819e-001 
-3.561887e-001 
-4.465635e-001 
-4.863533e-001 
-4.797521e-001 
-4.573855e-001 
-4.334927e-001 
-4.387648e-001 
-5.097114e-001 
-5.808805e-001 
-5.754345e-001 
-5.014167e-001 
-4.034192e-001 
-3.312588e-001 
-2.977562e-001 
-2.824390e-001 
-2.725822e-001 
-2.373948e-001 
-1.332794e-001 
1.886672e-002 
1.648515e-001 
2.721114e-001 
3.367161e-001 
3.791643e-001 
4.170005e-001 
4.511517e-001 
4.797258e-001 
5.075947e-001 
5.317464e-001 
5.503553e-001 
5.617529e-001 
5.628207e-001 
5.567180e-001 
5.436808e-001 
5.211726e-001 
4.933714e-001 
4.616221e-001 
4.238336e-001 
3.795234e-001 
3.282063e-001 
2.745983e-001 
2.239930e-001 
1.741058e-001 
1.233481e-001 
7.543392e-002 
3.281914e-002 
-6.481313e-003 
-4.217140e-002 
-7.001231e-002 
-8.802564e-002 
-9.879669e-002 
-1.085732e-001 
-1.150111e-001 
-1.128824e-001 
-1.062275e-001 
-1.013688e-001 
-9.436483e-002 
-8.600613e-002 
-8.399415e-002 
-8.770565e-002 
-8.910014e-002 
-8.631100e-002 
-8.627575e-002 
-9.285076e-002 
-1.007427e-001 
-1.071859e-001 
-1.197731e-001 
-1.375286e-001 
-1.484198e-001 
-1.525915e-001 
-1.633290e-001 
-1.803226e-001 
-1.946151e-001 
-2.048435e-001 
-2.116617e-001 
-2.130744e-001 
-1.926914e-001 
-1.604854e-001 
-1.975368e-001 
-3.447443e-001 
-5.201115e-001 
-6.444005e-001 
-6.913177e-001 
-6.858887e-001 
-6.570891e-001 
-6.092419e-001 
-6.153689e-001 
-7.333094e-001 
-8.469660e-001 
-8.254618e-001 
-7.004962e-001 
-5.603608e-001 
-4.722334e-001 
-4.256688e-001 
-4.012375e-001 
-3.973574e-001 
-3.509318e-001 
-1.952515e-001 
2.913043e-002 
2.334554e-001 
3.747390e-001 
4.598655e-001 
5.238860e-001 
5.798436e-001 
6.336643e-001 
6.849703e-001 
7.297913e-001 
7.693441e-001 
8.038856e-001 
8.257686e-001 
8.307306e-001 
8.225662e-001 
8.044328e-001 
7.762654e-001 
7.374052e-001 
6.877601e-001 
6.318704e-001 
5.666653e-001 
4.890782e-001 
4.076058e-001 
3.275411e-001 
2.503033e-001 
1.741748e-001 
1.007409e-001 
3.433839e-002 
-2.375819e-002 
-7.687680e-002 
-1.182486e-001 
-1.463252e-001 
-1.647343e-001 
-1.750113e-001 
-1.780958e-001 
-1.735471e-001 
-1.656679e-001 
-1.575851e-001 
-1.497965e-001 
-1.430669e-001 
-1.413992e-001 
-1.396729e-001 
-1.341946e-001 
-1.294972e-001 
-1.306764e-001 
-1.369762e-001 
-1.447179e-001 
-1.557755e-001 
-1.690790e-001 
-1.800970e-001 
-1.862696e-001 
-1.932293e-001 
-2.069158e-001 
-2.241662e-001 
-2.394841e-001 
-2.511603e-001 
-2.565741e-001 
-2.509984e-001 
-2.233974e-001 
-2.169004e-001 
-3.089936e-001 
-4.916525e-001 
-6.661676e-001 
-7.659237e-001 
-7.904771e-001 
-7.749476e-001 
-7.347506e-001 
-6.960612e-001 
-7.525546e-001 
-8.909170e-001 
-9.578629e-001 
-8.740486e-001 
-7.192818e-001 
-5.856572e-001 
-5.084358e-001 
-4.639961e-001 
-4.424114e-001 
-4.216800e-001 
-3.189705e-001 
-1.048462e-001 
1.405277e-001 
3.309360e-001 
4.510560e-001 
5.268812e-001 
5.928760e-001 
6.555744e-001 
7.144080e-001 
7.710873e-001 
8.190446e-001 
8.539159e-001 
8.803054e-001 
8.946997e-001 
8.939516e-001 
8.801579e-001 
8.535439e-001 
8.157184e-001 
7.659667e-001 
7.018095e-001 
6.314193e-001 
5.550244e-001 
4.685022e-001 
3.768878e-001 
2.884947e-001 
2.034182e-001 
1.196256e-001 
3.676105e-002 
-3.897956e-002 
-1.028737e-001 
-1.566107e-001 
-1.994357e-001 
-2.285462e-001 
-2.433687e-001 
-2.504526e-001 
-2.534789e-001 
-2.533445e-001 
-2.469693e-001 
-2.367747e-001 
-2.273191e-001 
-2.234274e-001 
-2.208124e-001 
-2.164250e-001 
-2.138021e-001 
-2.145886e-001 
-2.183075e-001 
-2.214137e-001 
-2.259080e-001 
-2.360505e-001 
-2.496532e-001 
-2.573862e-001 
-2.621562e-001 
-2.726177e-001 
-2.860909e-001 
-2.983538e-001 
-3.060819e-001 
-3.094240e-001 
-3.049854e-001 
-2.900993e-001 
-2.602130e-001 
-2.732574e-001 
-3.898596e-001 
-5.626112e-001 
-7.079030e-001 
-7.792218e-001 
-7.849929e-001 
-7.633687e-001 
-7.277395e-001 
-7.093185e-001 
-7.955362e-001 
-9.238195e-001 
-9.484539e-001 
-8.510567e-001 
-7.078493e-001 
-5.998826e-001 
-5.440462e-001 
-5.125933e-001 
-5.018618e-001 
-4.777663e-001 
-3.550658e-001 
-1.416522e-001 
8.059673e-002 
2.471283e-001 
3.480225e-001 
4.149657e-001 
4.700941e-001 
5.194275e-001 
5.681189e-001 
6.164602e-001 
6.613497e-001 
6.966810e-001 
7.165556e-001 
7.242813e-001 
7.211340e-001 
7.050677e-001 
6.764010e-001 
6.416721e-001 
6.014911e-001 
5.504335e-001 
4.866649e-001 
4.160154e-001 
3.436157e-001 
2.703085e-001 
1.941440e-001 
1.194895e-001 
5.453571e-002 
-6.910234e-003 
-6.440566e-002 
-1.132348e-001 
-1.509088e-001 
-1.766275e-001 
-1.939057e-001 
-2.061610e-001 
-2.069480e-001 
-1.969133e-001 
-1.886126e-001 
-1.781468e-001 
-1.652504e-001 
-1.538810e-001 
-1.478096e-001 
-1.450085e-001 
-1.411471e-001 
-1.343813e-001 
-1.317126e-001 
-1.370859e-001 
-1.392845e-001 
-1.420958e-001 
-1.532564e-001 
-1.668200e-001 
-1.730464e-001 
-1.781821e-001 
-1.870756e-001 
-2.013618e-001 
-2.137686e-001 
-2.199042e-001 
-2.281925e-001 
-2.316122e-001 
-2.185091e-001 
-1.819059e-001 
-1.878755e-001 
-3.080471e-001 
-4.813513e-001 
-6.136020e-001 
-6.751005e-001 
-6.806610e-001 
-6.598668e-001 
-6.158536e-001 
-5.884662e-001 
-6.785665e-001 
-8.146160e-001 
-8.262428e-001 
-7.151660e-001 
-5.767489e-001 
-4.791339e-001 
-4.250669e-001 
-3.902863e-001 
-3.797036e-001 
-3.550095e-001 
-2.290015e-001 
-1.352281e-002 
1.967403e-001 
3.465175e-001 
4.384701e-001 
5.053633e-001 
5.615792e-001 
6.152524e-001 
6.686190e-001 
7.136662e-001 
7.530813e-001 
7.858652e-001 
8.068837e-001 
8.107596e-001 
8.006460e-001 
7.798018e-001 
7.503535e-001 
7.099530e-001 
6.610618e-001 
6.076724e-001 
5.441524e-001 
4.671189e-001 
3.838579e-001 
3.064912e-001 
2.320457e-001 
1.573844e-001 
8.674208e-002 
2.590318e-002 
-3.118793e-002 
-8.559807e-002 
-1.283830e-001 
-1.515954e-001 
-1.627923e-001 
-1.718154e-001 
-1.716516e-001 
-1.602483e-001 
-1.462124e-001 
-1.342914e-001 
-1.210355e-001 
-1.089286e-001 
-1.038314e-001 
-1.042693e-001 
-9.839254e-002 
-8.645709e-002 
-8.091518e-002 
-8.245883e-002 
-8.582788e-002 
-9.430198e-002 
-1.101856e-001 
-1.252173e-001 
-1.290730e-001 
-1.293475e-001 
-1.393506e-001 
-1.562119e-001 
-1.688239e-001 
-1.774835e-001 
-1.821716e-001 
-1.811838e-001 
-1.531624e-001 
-1.145994e-001 
-1.548279e-001 
-3.085386e-001 
-4.826883e-001 
-5.943946e-001 
-6.329717e-001 
-6.294904e-001 
-6.029968e-001 
-5.510740e-001 
-5.623291e-001 
-6.916431e-001 
-8.070596e-001 
-7.733224e-001 
-6.417903e-001 
-5.103636e-001 
-4.315857e-001 
-3.878038e-001 
-3.651604e-001 
-3.659706e-001 
-3.171825e-001 
-1.524453e-001 
7.759085e-002 
2.777364e-001 
4.119124e-001 
4.942524e-001 
5.600757e-001 
6.200007e-001 
6.771313e-001 
7.333899e-001 
7.818729e-001 
8.223750e-001 
8.526978e-001 
8.713333e-001 
8.770288e-001 
8.668370e-001 
8.437926e-001 
8.128986e-001 
7.721858e-001 
7.185833e-001 
6.565301e-001 
5.859200e-001 
5.097271e-001 
4.273068e-001 
3.420725e-001 
2.601397e-001 
1.842379e-001 
1.093183e-001 
3.842599e-002 
-2.204075e-002 
-7.230422e-002 
-1.122658e-001 
-1.414510e-001 
-1.583266e-001 
-1.646500e-001 
-1.637440e-001 
-1.598815e-001 
-1.523059e-001 
-1.415947e-001 
-1.320551e-001 
-1.253620e-001 
-1.201323e-001 
-1.148089e-001 
-1.097828e-001 
-1.058055e-001 
-1.059990e-001 
-1.094016e-001 
-1.139961e-001 
-1.212003e-001 
-1.298552e-001 
-1.399882e-001 
-1.471824e-001 
-1.540305e-001 
-1.631800e-001 
-1.742868e-001 
-1.869301e-001 
-1.979828e-001 
-1.999939e-001 
-1.930759e-001 
-1.597244e-001 
-1.393998e-001 
-2.255093e-001 
-4.025154e-001 
-5.708961e-001 
-6.630543e-001 
-6.748685e-001 
-6.518857e-001 
-6.101941e-001 
-5.637318e-001 
-6.221303e-001 
-7.715038e-001 
-8.389083e-001 
-7.515696e-001 
-5.908202e-001 
-4.607289e-001 
-3.961018e-001 
-3.606945e-001 
-3.470158e-001 
-3.403540e-001 
-2.432090e-001 
-2.955255e-002 
2.131196e-001 
3.970679e-001 
5.056584e-001 
5.743661e-001 
6.399392e-001 
7.011753e-001 
7.589960e-001 
8.182838e-001 
8.656440e-001 
8.987307e-001 
9.204573e-001 
9.282621e-001 
9.248480e-001 
9.103493e-001 
8.782614e-001 
8.368893e-001 
7.888584e-001 
7.265826e-001 
6.537469e-001 
5.722533e-001 
4.860356e-001 
4.018399e-001 
3.148581e-001 
2.263592e-001 
1.467425e-001 
7.518390e-002 
6.072723e-003 
-5.454348e-002 
-1.046503e-001 
-1.399274e-001 
-1.611102e-001 
-1.752489e-001 
-1.797602e-001 
-1.739382e-001 
-1.681171e-001 
-1.613183e-001 
-1.511162e-001 
-1.427833e-001 
-1.355756e-001 
-1.326074e-001 
-1.300422e-001 
-1.257028e-001 
-1.223149e-001 
-1.248633e-001 
-1.258444e-001 
-1.272647e-001 
-1.346893e-001 
-1.457712e-001 
-1.540768e-001 
-1.585918e-001 
-1.663193e-001 
-1.770781e-001 
-1.879080e-001 
-1.935259e-001 
-2.039399e-001 
-2.100483e-001 
-2.061393e-001 
-1.839616e-001 
-1.892761e-001 
-2.972974e-001 
-4.798997e-001 
-6.453760e-001 
-7.391541e-001 
-7.618766e-001 
-7.452220e-001 
-7.113096e-001 
-6.810978e-001 
-7.454722e-001 
-8.762248e-001 
-9.178214e-001 
-8.247685e-001 
-6.685323e-001 
-5.386144e-001 
-4.645451e-001 
-4.167758e-001 
-3.851099e-001 
-3.488909e-001 
-2.238366e-001 
1.003799e-003 
2.437286e-001 
4.335133e-001 
5.516169e-001 
6.311637e-001 
6.968207e-001 
7.564224e-001 
8.136507e-001 
8.666400e-001 
9.080669e-001 
9.391986e-001 
9.626391e-001 
9.748562e-001 
9.699355e-001 
9.481992e-001 
9.175581e-001 
8.779034e-001 
8.249361e-001 
7.600696e-001 
6.894415e-001 
6.127707e-001 
5.285438e-001 
4.390930e-001 
3.513213e-001 
2.685813e-001 
1.912320e-001 
1.176006e-001 
5.052251e-002 
-7.694490e-003 
-5.551517e-002 
-9.053335e-002 
-1.160623e-001 
-1.333231e-001 
-1.388187e-001 
-1.353568e-001 
-1.315858e-001 
-1.277150e-001 
-1.205563e-001 
-1.106416e-001 
-1.056216e-001 
-1.077904e-001 
-1.093009e-001 
-1.062625e-001 
-1.055574e-001 
-1.102716e-001 
-1.178500e-001 
-1.224010e-001 
-1.310480e-001 
-1.452824e-001 
-1.558086e-001 
-1.613894e-001 
-1.660335e-001 
-1.763777e-001 
-1.896912e-001 
-2.006478e-001 
-2.046632e-001 
-2.070221e-001 
-1.971126e-001 
-1.782854e-001 
-2.256227e-001 
-3.810156e-001 
-5.673948e-001 
-7.050667e-001 
-7.646621e-001 
-7.674007e-001 
-7.484576e-001 
-7.094242e-001 
-7.143031e-001 
-8.305200e-001 
-9.384021e-001 
-9.102269e-001 
-7.821567e-001 
-6.350068e-001 
-5.311152e-001 
-4.683304e-001 
-4.243977e-001 
-3.977845e-001 
-3.306663e-001 
-1.512198e-001 
9.281936e-002 
3.131488e-001 
4.717785e-001 
5.742302e-001 
6.490731e-001 
7.119679e-001 
7.695332e-001 
8.226531e-001 
8.705778e-001 
9.110372e-001 
9.421043e-001 
9.630177e-001 
9.690086e-001 
9.589418e-001 
9.331714e-001 
8.965724e-001 
8.524916e-001 
8.001858e-001 
7.398351e-001 
6.670704e-001 
5.851343e-001 
5.012715e-001 
4.140339e-001 
3.272448e-001 
2.486467e-001 
1.725873e-001 
1.026920e-001 
3.872849e-002 
-1.861428e-002 
-6.119164e-002 
-9.196817e-002 
-1.156883e-001 
-1.264547e-001 
-1.288842e-001 
-1.278700e-001 
-1.218078e-001 
-1.146274e-001 
-1.071794e-001 
-1.022691e-001 
-1.014227e-001 
-1.010554e-001 
-9.869952e-002 
-9.796532e-002 
-1.002189e-001 
-1.049905e-001 
-1.127331e-001 
-1.242975e-001 
-1.366538e-001 
-1.480015e-001 
-1.571414e-001 
-1.646231e-001 
-1.757053e-001 
-1.892570e-001 
-2.025961e-001 
-2.153067e-001 
-2.207833e-001 
-2.187318e-001 
-2.055232e-001 
-1.850159e-001 
-2.366309e-001 
-3.971554e-001 
-5.830390e-001 
-7.243785e-001 
-7.869244e-001 
-7.880064e-001 
-7.645915e-001 
-7.237068e-001 
-7.318514e-001 
-8.542740e-001 
-9.606396e-001 
-9.315076e-001 
-8.056395e-001 
-6.552470e-001 
-5.490779e-001 
-4.867048e-001 
-4.473285e-001 
-4.249184e-001 
-3.573240e-001 
-1.746957e-001 
7.198452e-002 
2.987445e-001 
4.603917e-001 
5.605842e-001 
6.341678e-001 
6.932780e-001 
7.468914e-001 
7.966187e-001 
8.409421e-001 
8.800365e-001 
9.089966e-001 
9.240490e-001 
9.275654e-001 
9.165808e-001 
8.898848e-001 
8.529191e-001 
8.092034e-001 
7.563161e-001 
6.941587e-001 
6.218768e-001 
5.427723e-001 
4.612313e-001 
3.771702e-001 
2.941360e-001 
2.184630e-001 
1.484941e-001 
8.163721e-002 
2.250324e-002 
-2.742115e-002 
-6.639437e-002 
-9.663237e-002 
-1.188599e-001 
-1.285416e-001 
-1.286487e-001 
-1.254661e-001 
-1.181470e-001 
-1.077777e-001 
-9.790572e-002 
-9.354277e-002 
-9.545701e-002 
-9.407608e-002 
-8.801797e-002 
-8.304152e-002 
-8.041624e-002 
-8.048069e-002 
-8.353046e-002 
-9.053654e-002 
-1.026870e-001 
-1.102304e-001 
-1.097906e-001 
-1.100050e-001 
-1.151842e-001 
-1.233769e-001 
-1.321202e-001 
-1.388219e-001 
-1.394223e-001 
-1.328288e-001 
-1.121162e-001 
-9.978042e-002 
-1.482604e-001 
-2.538361e-001 
-3.585736e-001 
-4.260980e-001 
-4.449830e-001 
-4.328956e-001 
-4.086584e-001 
-3.826449e-001 
-4.074599e-001 
-4.866695e-001 
-5.257444e-001 
-4.822293e-001 
-3.938255e-001 
-3.044268e-001 
-2.471877e-001 
-2.160429e-001 
-1.988756e-001 
-1.821955e-001 
-1.185932e-001 
1.043573e-002 
1.612298e-001 
2.913785e-001 
3.807974e-001 
4.361944e-001 
4.793414e-001 
5.218465e-001 
5.637282e-001 
5.993751e-001 
6.297788e-001 
6.584544e-001 
6.789449e-001 
6.857882e-001 
6.850753e-001 
6.773897e-001 
6.608926e-001 
6.343140e-001 
6.009656e-001 
5.634092e-001 
5.171205e-001 
4.605114e-001 
4.005605e-001 
3.414983e-001 
2.801658e-001 
2.198420e-001 
1.619028e-001 
1.084244e-001 
5.769833e-002 
1.011767e-002 
-2.899656e-002 
-5.621118e-002 
-7.497282e-002 
-8.860534e-002 
-9.417019e-002 
-9.342083e-002 
-8.861278e-002 
-8.475206e-002 
-8.024731e-002 
-7.456128e-002 
-7.111965e-002 
-7.331098e-002 
-7.416029e-002 
-7.114619e-002 
-7.221241e-002 
-7.854820e-002 
-8.665431e-002 
-9.458294e-002 
-1.052518e-001 
-1.190940e-001 
-1.297420e-001 
-1.350481e-001 
-1.457021e-001 
-1.609011e-001 
-1.733909e-001 
-1.846279e-001 
-1.901259e-001 
-1.892625e-001 
-1.651428e-001 
-1.479679e-001 
-2.317745e-001 
-4.150427e-001 
-5.915730e-001 
-7.001691e-001 
-7.337155e-001 
-7.211545e-001 
-6.859539e-001 
-6.389210e-001 
-6.831607e-001 
-8.297306e-001 
-9.051121e-001 
-8.287396e-001 
-6.789558e-001 
-5.386898e-001 
-4.547177e-001 
-4.070161e-001 
-3.779825e-001 
-3.606711e-001 
-2.663441e-001 
-5.265745e-002 
1.958101e-001 
3.986808e-001 
5.315404e-001 
6.130560e-001 
6.816873e-001 
7.463093e-001 
8.044460e-001 
8.600222e-001 
9.079014e-001 
9.460364e-001 
9.749332e-001 
9.890870e-001 
9.878467e-001 
9.738767e-001 
9.463289e-001 
9.086271e-001 
8.613671e-001 
8.001508e-001 
7.285795e-001 
6.497905e-001 
5.650938e-001 
4.767066e-001 
3.894534e-001 
3.044164e-001 
2.236297e-001 
1.460417e-001 
7.241108e-002 
1.023706e-002 
-3.790739e-002 
-7.646170e-002 
-1.045056e-001 
-1.194322e-001 
-1.262549e-001 
-1.253179e-001 
-1.200661e-001 
-1.126323e-001 
-1.007970e-001 
-9.364374e-002 
-9.491128e-002 
-9.287173e-002 
-8.690812e-002 
-8.436446e-002 
-8.453326e-002 
-8.774560e-002 
-9.324513e-002 
-1.017922e-001 
-1.160449e-001 
-1.286234e-001 
-1.325889e-001 
-1.372682e-001 
-1.487928e-001 
-1.613614e-001 
-1.725198e-001 
-1.862489e-001 
-1.981668e-001 
-2.017399e-001 
-1.928548e-001 
-1.549037e-001 
-1.488366e-001 
-2.621207e-001 
-4.369834e-001 
-5.766466e-001 
-6.439318e-001 
-6.475712e-001 
-6.241269e-001 
-5.743570e-001 
-5.306068e-001 
-6.120365e-001 
-7.570738e-001 
-7.748015e-001 
-6.617015e-001 
-5.137917e-001 
-4.034016e-001 
-3.391689e-001 
-2.951029e-001 
-2.801564e-001 
-2.604979e-001 
-1.323500e-001 
9.332972e-002 
3.129046e-001 
4.744623e-001 
5.755931e-001 
6.470022e-001 
7.070277e-001 
7.615248e-001 
8.167169e-001 
8.640331e-001 
8.954154e-001 
9.181074e-001 
9.338736e-001 
9.347190e-001 
9.201465e-001 
8.940356e-001 
8.571826e-001 
8.110094e-001 
7.528969e-001 
6.843695e-001 
6.097796e-001 
5.304354e-001 
4.478689e-001 
3.639670e-001 
2.821206e-001 
2.040030e-001 
1.314835e-001 
6.469228e-002 
5.006921e-003 
-4.292405e-002 
-7.770185e-002 
-1.033112e-001 
-1.213153e-001 
-1.304067e-001 
-1.313568e-001 
-1.279126e-001 
-1.220916e-001 
-1.139714e-001 
-1.044714e-001 
-1.002935e-001 
-1.005899e-001 
-9.973703e-002 
-9.611964e-002 
-9.325051e-002 
-9.654177e-002 
-1.028534e-001 
-1.088417e-001 
-1.188820e-001 
-1.336837e-001 
-1.431524e-001 
-1.465317e-001 
-1.516904e-001 
-1.627456e-001 
-1.771125e-001 
-1.873910e-001 
-1.916983e-001 
-1.893809e-001 
-1.782887e-001 
-1.471184e-001 
-1.369959e-001 
-2.271501e-001 
-3.930538e-001 
-5.391044e-001 
-6.118908e-001 
-6.211255e-001 
-6.022137e-001 
-5.667574e-001 
-5.317330e-001 
-5.876989e-001 
-7.199503e-001 
-7.662466e-001 
-6.759964e-001 
-5.367872e-001 
-4.308709e-001 
-3.725770e-001 
-3.371406e-001 
-3.203625e-001 
-3.036144e-001 
-2.065169e-001 
-8.464522e-003 
2.074485e-001 
3.671166e-001 
4.663989e-001 
5.349446e-001 
5.897858e-001 
6.384599e-001 
6.860883e-001 
7.276731e-001 
7.623640e-001 
7.889549e-001 
8.057995e-001 
8.154144e-001 
8.116152e-001 
7.935225e-001 
7.674624e-001 
7.339602e-001 
6.884868e-001 
6.350366e-001 
5.756070e-001 
5.113456e-001 
4.418519e-001 
3.685576e-001 
2.963165e-001 
2.283895e-001 
1.647712e-001 
1.043540e-001 
5.068306e-002 
5.493339e-003 
-3.014769e-002 
-5.552404e-002 
-7.141594e-002 
-8.064899e-002 
-8.188165e-002 
-7.741000e-002 
-7.083248e-002 
-6.398086e-002 
-5.967612e-002 
-5.737868e-002 
-5.491523e-002 
-5.381133e-002 
-5.532806e-002 
-5.772753e-002 
-6.172188e-002 
-6.764679e-002 
-7.891733e-002 
-9.352464e-002 
-1.048871e-001 
-1.129385e-001 
-1.235476e-001 
-1.363900e-001 
-1.490200e-001 
-1.601844e-001 
-1.700164e-001 
-1.770442e-001 
-1.710177e-001 
-1.477288e-001 
-1.598737e-001 
-2.641943e-001 
-4.141496e-001 
-5.385969e-001 
-6.044574e-001 
-6.189790e-001 
-6.052227e-001 
-5.684711e-001 
-5.493105e-001 
-6.228187e-001 
-7.292317e-001 
-7.397683e-001 
-6.543617e-001 
-5.358856e-001 
-4.397905e-001 
-3.789150e-001 
-3.399156e-001 
-3.216021e-001 
-2.902035e-001 
-1.754941e-001 
1.072177e-002 
1.966743e-001 
3.414089e-001 
4.362243e-001 
5.009037e-001 
5.540446e-001 
6.031744e-001 
6.484634e-001 
6.886620e-001 
7.237750e-001 
7.561365e-001 
7.812597e-001 
7.912624e-001 
7.887822e-001 
7.757788e-001 
7.504661e-001 
7.154375e-001 
6.715993e-001 
6.219674e-001 
5.663081e-001 
4.996402e-001 
4.269532e-001 
3.536574e-001 
2.776702e-001 
2.037245e-001 
1.326075e-001 
6.537809e-002 
5.609009e-003 
-4.870323e-002 
-9.510829e-002 
-1.309496e-001 
-1.580951e-001 
-1.747943e-001 
-1.824630e-001 
-1.852831e-001 
-1.809938e-001 
-1.742301e-001 
-1.699901e-001 
-1.700457e-001 
-1.712968e-001 
-1.708039e-001 
-1.696786e-001 
-1.717887e-001 
-1.745738e-001 
-1.791618e-001 
-1.889607e-001 
-2.035999e-001 
-2.181911e-001 
-2.271396e-001 
-2.361834e-001 
-2.452006e-001 
-2.560409e-001 
-2.691462e-001 
-2.842343e-001 
-2.939206e-001 
-2.921470e-001 
-2.622451e-001 
-2.548326e-001 
-3.567666e-001 
-5.305761e-001 
-6.841821e-001 
-7.622655e-001 
-7.733491e-001 
-7.502503e-001 
-7.008703e-001 
-6.561865e-001 
-7.237756e-001 
-8.635550e-001 
-8.994631e-001 
-7.958401e-001 
-6.394372e-001 
-5.192544e-001 
-4.467093e-001 
-4.007527e-001 
-3.814029e-001 
-3.589768e-001 
-2.404990e-001 
-1.834565e-002 
2.159616e-001 
3.909564e-001 
4.979160e-001 
5.727791e-001 
6.362840e-001 
6.960687e-001 
7.537997e-001 
8.058479e-001 
8.500869e-001 
8.833675e-001 
9.008308e-001 
9.026383e-001 
8.917980e-001 
8.673739e-001 
8.310069e-001 
7.872254e-001 
7.350293e-001 
6.708139e-001 
5.932198e-001 
5.074621e-001 
4.211250e-001 
3.359275e-001 
2.503950e-001 
1.696553e-001 
9.543053e-002 
2.448854e-002 
-4.135141e-002 
-9.613688e-002 
-1.350917e-001 
-1.600925e-001 
-1.772879e-001 
-1.845714e-001 
-1.819476e-001 
-1.770471e-001 
-1.716211e-001 
-1.631070e-001 
-1.559704e-001 
-1.526380e-001 
-1.512137e-001 
-1.492745e-001 
-1.460531e-001 
-1.485306e-001 
-1.533112e-001 
-1.569111e-001 
-1.637088e-001 
-1.765840e-001 
-1.869010e-001 
-1.920666e-001 
-1.990378e-001 
-2.099732e-001 
-2.221701e-001 
-2.314706e-001 
-2.386008e-001 
-2.397637e-001 
-2.302541e-001 
-2.027109e-001 
-2.207869e-001 
-3.445442e-001 
-5.136156e-001 
-6.457259e-001 
-7.040017e-001 
-7.056724e-001 
-6.848283e-001 
-6.456657e-001 
-6.303123e-001 
-7.231232e-001 
-8.435416e-001 
-8.456975e-001 
-7.336231e-001 
-5.926745e-001 
-4.974616e-001 
-4.442869e-001 
-4.089716e-001 
-3.943604e-001 
-3.594838e-001 
-2.245151e-001 
-8.117762e-003 
1.998066e-001 
3.432400e-001 
4.276710e-001 
4.901393e-001 
5.396666e-001 
5.820901e-001 
6.200396e-001 
6.565280e-001 
6.868050e-001 
7.039217e-001 
7.104483e-001 
7.096797e-001 
6.979861e-001 
6.752717e-001 
6.446865e-001 
6.089524e-001 
5.672770e-001 
5.145673e-001 
4.555040e-001 
3.945742e-001 
3.327826e-001 
2.708194e-001 
2.117974e-001 
1.576907e-001 
1.073859e-001 
5.953507e-002 
1.854922e-002 
-1.335230e-002 
-3.556375e-002 
-5.022194e-002 
-5.805701e-002 
-5.830069e-002 
-5.489109e-002 
-5.172426e-002 
-4.552619e-002 
-3.687073e-002 
-3.023271e-002 
-2.496613e-002 
-2.112280e-002 
-1.547075e-002 
-9.779332e-003 
-8.009038e-003 
-6.917023e-003 
-4.090318e-003 
-3.848819e-003 
-5.149875e-003 
-5.281631e-003 
-4.385398e-003 
-2.407062e-003 
-3.326697e-003 
-6.434852e-003 
-8.045471e-003 
-8.043747e-003 
-7.674351e-003 
-3.377426e-003 
3.741406e-003 
-2.759096e-003 
-3.417293e-002 
-7.514451e-002 
-1.042791e-001 
-1.159106e-001 
-1.171216e-001 
-1.145100e-001 
-1.070239e-001 
-1.082659e-001 
-1.343024e-001 
-1.616920e-001 
-1.575607e-001 
-1.293490e-001 
-1.009996e-001 
-8.311346e-002 
-7.211436e-002 
-6.416137e-002 
-5.980365e-002 
-4.762693e-002 
-9.772732e-003 
4.668371e-002 
9.763014e-002 
1.347894e-001 
1.657703e-001 
1.950439e-001 
2.219727e-001 
2.489511e-001 
2.773874e-001 
3.063007e-001 
3.321883e-001 
3.529012e-001 
3.699726e-001 
3.831618e-001 
3.865511e-001 
3.802516e-001 
3.695875e-001 
3.533805e-001 
3.294978e-001 
2.989655e-001 
2.644047e-001 
2.257011e-001 
1.816358e-001 
1.332350e-001 
8.453576e-002 
3.839039e-002 
-6.256423e-003 
-5.049187e-002 
-8.960301e-002 
-1.240740e-001 
-1.563394e-001 
-1.817617e-001 
-1.954022e-001 
-1.994127e-001 
-1.972617e-001 
-1.940806e-001 
-1.905790e-001 
-1.885847e-001 
-1.929862e-001 
-1.949818e-001 
-1.907280e-001 
-1.873645e-001 
-1.907105e-001 
-1.998613e-001 
-2.125295e-001 
-2.266527e-001 
-2.448597e-001 
-2.564588e-001 
-2.578744e-001 
-2.657237e-001 
-2.845812e-001 
-3.028971e-001 
-3.189925e-001 
-3.340498e-001 
-3.460377e-001 
-3.353768e-001 
-2.983212e-001 
-3.342815e-001 
-4.936186e-001 
-6.687534e-001 
-7.722845e-001 
-8.082740e-001 
-8.075706e-001 
-7.816677e-001 
-7.213452e-001 
-7.115037e-001 
-8.393947e-001 
-9.545366e-001 
-9.027477e-001 
-7.564969e-001 
-6.228688e-001 
-5.344493e-001 
-4.722407e-001 
-4.283302e-001 
-4.136245e-001 
-3.609916e-001 
-1.838525e-001 
5.881363e-002 
2.583618e-001 
3.936152e-001 
4.823192e-001 
5.516518e-001 
6.148061e-001 
6.753250e-001 
7.342758e-001 
7.887404e-001 
8.307975e-001 
8.607440e-001 
8.810599e-001 
8.820302e-001 
8.690011e-001 
8.431516e-001 
8.077939e-001 
7.644407e-001 
7.077913e-001 
6.396986e-001 
5.660769e-001 
4.844591e-001 
3.980946e-001 
3.110390e-001 
2.267674e-001 
1.508126e-001 
7.749472e-002 
7.154233e-003 
-5.269640e-002 
-1.027727e-001 
-1.412879e-001 
-1.644184e-001 
-1.781925e-001 
-1.814187e-001 
-1.772594e-001 
-1.703153e-001 
-1.621135e-001 
-1.562741e-001 
-1.532253e-001 
-1.503139e-001 
-1.448369e-001 
-1.443495e-001 
-1.497913e-001 
-1.542946e-001 
-1.604808e-001 
-1.731013e-001 
-1.853873e-001 
-1.929718e-001 
-1.999871e-001 
-2.077999e-001 
-2.245984e-001 
-2.410588e-001 
-2.545018e-001 
-2.685447e-001 
-2.647626e-001 
-2.152839e-001 
-1.773962e-001 
-2.617388e-001 
-4.368791e-001 
-5.935697e-001 
-6.827579e-001 
-7.115176e-001 
-6.964907e-001 
-6.366964e-001 
-5.702459e-001 
-6.317801e-001 
-7.995610e-001 
-8.595598e-001 
-7.687152e-001 
-6.295089e-001 
-5.093006e-001 
-4.278468e-001 
-3.791458e-001 
-3.697754e-001 
-3.789155e-001 
-2.963392e-001 
-8.737862e-002 
1.425504e-001 
3.204065e-001 
4.382381e-001 
5.184260e-001 
5.833841e-001 
6.420115e-001 
6.976216e-001 
7.501160e-001 
7.957640e-001 
8.300024e-001 
8.518810e-001 
8.585547e-001 
8.527439e-001 
8.315927e-001 
7.983788e-001 
7.591430e-001 
7.093931e-001 
6.467265e-001 
5.738610e-001 
4.931210e-001 
4.061388e-001 
3.176517e-001 
2.279425e-001 
1.452284e-001 
6.899186e-002 
-5.919185e-003 
-7.556440e-002 
-1.339758e-001 
-1.799793e-001 
-2.137540e-001 
-2.333015e-001 
-2.396881e-001 
-2.354426e-001 
-2.316773e-001 
-2.273544e-001 
-2.161027e-001 
-2.065045e-001 
-2.023372e-001 
-1.974889e-001 
-1.903567e-001 
-1.861626e-001 
-1.874237e-001 
-1.935156e-001 
-1.961850e-001 
-1.989868e-001 
-2.118502e-001 
-2.237506e-001 
-2.298860e-001 
-2.383279e-001 
-2.506775e-001 
-2.619118e-001 
-2.731924e-001 
-2.837963e-001 
-2.930675e-001 
-2.878270e-001 
-2.465437e-001 
-2.441821e-001 
-3.685914e-001 
-5.448318e-001 
-6.748284e-001 
-7.361112e-001 
-7.444286e-001 
-7.220462e-001 
-6.633061e-001 
-6.207801e-001 
-7.181039e-001 
-8.640473e-001 
-8.614545e-001 
-7.375944e-001 
-5.937258e-001 
-4.865059e-001 
-4.170040e-001 
-3.683462e-001 
-3.512668e-001 
-3.281645e-001 
-1.884324e-001 
4.938849e-002 
2.702851e-001 
4.307958e-001 
5.351611e-001 
6.132147e-001 
6.837607e-001 
7.474756e-001 
8.021797e-001 
8.538367e-001 
8.936193e-001 
9.157294e-001 
9.254632e-001 
9.205050e-001 
9.012986e-001 
8.708504e-001 
8.251798e-001 
7.707871e-001 
7.087410e-001 
6.323701e-001 
5.473865e-001 
4.588127e-001 
3.684641e-001 
2.807898e-001 
1.918479e-001 
1.046229e-001 
2.701222e-002 
-4.554469e-002 
-1.081232e-001 
-1.568939e-001 
-1.918488e-001 
-2.111377e-001 
-2.210942e-001 
-2.254810e-001 
-2.200395e-001 
-2.110476e-001 
-2.066560e-001 
-2.048778e-001 
-2.036103e-001 
-2.008451e-001 
-1.994249e-001 
-2.015057e-001 
-2.025751e-001 
-2.047069e-001 
-2.133572e-001 
-2.282935e-001 
-2.388624e-001 
-2.431666e-001 
-2.482091e-001 
-2.587361e-001 
-2.697389e-001 
-2.797315e-001 
-2.931292e-001 
-3.055807e-001 
-2.965179e-001 
-2.441357e-001 
-2.184582e-001 
-3.213701e-001 
-5.164509e-001 
-6.893977e-001 
-7.868828e-001 
-8.117504e-001 
-7.909839e-001 
-7.254818e-001 
-6.662230e-001 
-7.441737e-001 
-9.142491e-001 
-9.702118e-001 
-8.672839e-001 
-7.048616e-001 
-5.654254e-001 
-4.785395e-001 
-4.267990e-001 
-4.147805e-001 
-4.087077e-001 
-2.953694e-001 
-5.351126e-002 
2.043235e-001 
4.016125e-001 
5.308549e-001 
6.145723e-001 
6.809909e-001 
7.426632e-001 
8.024427e-001 
8.589811e-001 
9.058226e-001 
9.370756e-001 
9.595097e-001 
9.692629e-001 
9.594695e-001 
9.347889e-001 
8.997846e-001 
8.541328e-001 
7.970757e-001 
7.277090e-001 
6.487053e-001 
5.632006e-001 
4.734377e-001 
3.803896e-001 
2.875184e-001 
2.003088e-001 
1.188738e-001 
4.250442e-002 
-2.724366e-002 
-8.811283e-002 
-1.347648e-001 
-1.691826e-001 
-1.953985e-001 
-2.080932e-001 
-2.081277e-001 
-2.026974e-001 
-1.943775e-001 
-1.841555e-001 
-1.752749e-001 
-1.716926e-001 
-1.725993e-001 
-1.704048e-001 
-1.655567e-001 
-1.638330e-001 
-1.669512e-001 
-1.711695e-001 
-1.780278e-001 
-1.923660e-001 
-2.071234e-001 
-2.118410e-001 
-2.130983e-001 
-2.209101e-001 
-2.322350e-001 
-2.434920e-001 
-2.548651e-001 
-2.662179e-001 
-2.695069e-001 
-2.382815e-001 
-2.106334e-001 
-2.866698e-001 
-4.596137e-001 
-6.234176e-001 
-7.235681e-001 
-7.587344e-001 
-7.527230e-001 
-7.136804e-001 
-6.587193e-001 
-7.004409e-001 
-8.460033e-001 
-9.193013e-001 
-8.445009e-001 
-7.038514e-001 
-5.745787e-001 
-4.902052e-001 
-4.345705e-001 
-4.060555e-001 
-3.929407e-001 
-3.031713e-001 
-9.903322e-002 
1.384995e-001 
3.325702e-001 
4.632039e-001 
5.491595e-001 
6.184093e-001 
6.806969e-001 
7.424994e-001 
7.999110e-001 
8.449882e-001 
8.825929e-001 
9.120189e-001 
9.254770e-001 
9.219075e-001 
9.040054e-001 
8.760420e-001 
8.410957e-001 
7.907518e-001 
7.283142e-001 
6.635956e-001 
5.890835e-001 
5.028617e-001 
4.148261e-001 
3.301050e-001 
2.475524e-001 
1.692951e-001 
9.278525e-002 
2.675454e-002 
-2.867529e-002 
-7.807436e-002 
-1.155266e-001 
-1.378768e-001 
-1.511141e-001 
-1.569866e-001 
-1.510349e-001 
-1.431259e-001 
-1.317938e-001 
-1.217942e-001 
-1.191190e-001 
-1.196336e-001 
-1.205600e-001 
-1.221637e-001 
-1.204077e-001 
-1.171730e-001 
-1.204717e-001 
-1.246465e-001 
-1.367368e-001 
-1.509273e-001 
-1.605635e-001 
-1.695385e-001 
-1.783516e-001 
-1.852350e-001 
-1.931662e-001 
-2.062093e-001 
-2.173564e-001 
-2.207283e-001 
-1.998263e-001 
-1.883310e-001 
-2.633929e-001 
-4.312607e-001 
-6.032093e-001 
-7.122536e-001 
-7.489852e-001 
-7.383945e-001 
-7.006738e-001 
-6.577520e-001 
-6.933680e-001 
-8.185525e-001 
-8.928252e-001 
-8.246667e-001 
-6.717900e-001 
-5.245652e-001 
-4.320205e-001 
-3.775055e-001 
-3.431168e-001 
-3.111594e-001 
-2.123233e-001 
-8.446333e-003 
2.396780e-001 
4.519152e-001 
5.910960e-001 
6.759601e-001 
7.463843e-001 
8.183804e-001 
8.853118e-001 
9.431773e-001 
9.963253e-001 
1.044025e+000 
1.078975e+000 
1.094107e+000 
1.093377e+000 
1.081550e+000 
1.058062e+000 
1.016171e+000 
9.664438e-001 
9.076449e-001 
8.350593e-001 
7.511415e-001 
6.590312e-001 
5.670892e-001 
4.772302e-001 
3.847626e-001 
2.949386e-001 
2.136481e-001 
1.350379e-001 
6.710034e-002 
1.280694e-002 
-2.790628e-002 
-5.488884e-002 
-7.464033e-002 
-8.818573e-002 
-9.041493e-002 
-8.591507e-002 
-7.818206e-002 
-6.661110e-002 
-5.408043e-002 
-4.525721e-002 
-4.364878e-002 
-4.532421e-002 
-4.322806e-002 
-3.854598e-002 
-3.722827e-002 
-4.081848e-002 
-4.564711e-002 
-5.085049e-002 
-6.248143e-002 
-7.633132e-002 
-8.283445e-002 
-8.486227e-002 
-9.063327e-002 
-9.955786e-002 
-1.075842e-001 
-1.120244e-001 
-1.144538e-001 
-1.131715e-001 
-9.562290e-002 
-8.931526e-002 
-1.543426e-001 
-2.807776e-001 
-4.030769e-001 
-4.832048e-001 
-5.129040e-001 
-5.081577e-001 
-4.789970e-001 
-4.462203e-001 
-4.812442e-001 
-5.732697e-001 
-6.116844e-001 
-5.584794e-001 
-4.586230e-001 
-3.561558e-001 
-2.820943e-001 
-2.318856e-001 
-2.038065e-001 
-1.803178e-001 
-9.508697e-002 
6.780762e-002 
2.511945e-001 
4.092042e-001 
5.238050e-001 
5.984461e-001 
6.526727e-001 
6.966889e-001 
7.385241e-001 
7.785494e-001 
8.105317e-001 
8.325348e-001 
8.476010e-001 
8.499541e-001 
8.380675e-001 
8.182233e-001 
7.925802e-001 
7.578987e-001 
7.141069e-001 
6.611378e-001 
6.014946e-001 
5.371563e-001 
4.668672e-001 
3.981519e-001 
3.346403e-001 
2.710349e-001 
2.083518e-001 
1.521670e-001 
1.018617e-001 
5.849663e-002 
2.190241e-002 
-5.230648e-003 
-2.054774e-002 
-3.074136e-002 
-3.863064e-002 
-4.009774e-002 
-3.557655e-002 
-3.014580e-002 
-2.556804e-002 
-2.073875e-002 
-1.549501e-002 
-1.307210e-002 
-1.482360e-002 
-1.624065e-002 
-1.453221e-002 
-1.352589e-002 
-1.768908e-002 
-2.310647e-002 
-2.849288e-002 
-3.699341e-002 
-4.608815e-002 
-5.295536e-002 
-5.901098e-002 
-6.492860e-002 
-7.272834e-002 
-8.299203e-002 
-8.804710e-002 
-8.889753e-002 
-8.554013e-002 
-7.970475e-002 
-1.193237e-001 
-2.331128e-001 
-3.786053e-001 
-5.078384e-001 
-5.833238e-001 
-6.002594e-001 
-5.895656e-001 
-5.673796e-001 
-5.707343e-001 
-6.440513e-001 
-7.212473e-001 
-7.196824e-001 
-6.409974e-001 
-5.209846e-001 
-4.163480e-001 
-3.514312e-001 
-3.073346e-001 
-2.721339e-001 
-2.111859e-001 
-7.307067e-002 
1.238135e-001 
3.217290e-001 
4.820765e-001 
5.907466e-001 
6.665331e-001 
7.299652e-001 
7.851921e-001 
8.358215e-001 
8.849438e-001 
9.262452e-001 
9.538236e-001 
9.689200e-001 
9.697278e-001 
9.585770e-001 
9.354226e-001 
9.007895e-001 
8.593607e-001 
8.088161e-001 
7.444307e-001 
6.693860e-001 
5.897255e-001 
5.083248e-001 
4.279586e-001 
3.482967e-001 
2.714658e-001 
1.987117e-001 
1.277505e-001 
6.371171e-002 
1.235236e-002 
-2.787300e-002 
-5.761682e-002 
-7.692625e-002 
-8.907109e-002 
-9.618743e-002 
-9.857482e-002 
-9.691656e-002 
-9.074580e-002 
-8.576927e-002 
-8.520447e-002 
-8.855959e-002 
-9.050293e-002 
-9.276812e-002 
-9.669869e-002 
-1.021327e-001 
-1.079493e-001 
-1.165941e-001 
-1.302707e-001 
-1.463937e-001 
-1.575142e-001 
-1.615720e-001 
-1.709688e-001 
-1.837550e-001 
-1.966520e-001 
-2.083445e-001 
-2.201109e-001 
-2.208118e-001 
-2.089855e-001 
-1.818970e-001 
-1.793398e-001 
-2.736043e-001 
-4.464087e-001 
-6.175937e-001 
-7.322912e-001 
-7.682553e-001 
-7.560281e-001 
-7.313287e-001 
-7.082681e-001 
-7.662354e-001 
-8.998249e-001 
-9.650019e-001 
-9.067824e-001 
-7.755214e-001 
-6.428619e-001 
-5.686529e-001 
-5.305558e-001 
-5.061188e-001 
-4.844235e-001 
-3.886210e-001 
-1.903137e-001 
3.972806e-002 
2.390124e-001 
3.724233e-001 
4.528128e-001 
5.186446e-001 
5.751772e-001 
6.228941e-001 
6.668405e-001 
7.066417e-001 
7.429451e-001 
7.726041e-001 
7.848276e-001 
7.826858e-001 
7.709632e-001 
7.462818e-001 
7.109602e-001 
6.714096e-001 
6.247043e-001 
5.688831e-001 
5.028994e-001 
4.274580e-001 
3.519916e-001 
2.789186e-001 
2.055465e-001 
1.370706e-001 
7.498896e-002 
1.497511e-002 
-3.993069e-002 
-8.520425e-002 
-1.178845e-001 
-1.386425e-001 
-1.536581e-001 
-1.622653e-001 
-1.613822e-001 
-1.567144e-001 
-1.530364e-001 
-1.476995e-001 
-1.404275e-001 
-1.375389e-001 
-1.407881e-001 
-1.443064e-001 
-1.452576e-001 
-1.480686e-001 
-1.561642e-001 
-1.660586e-001 
-1.743887e-001 
-1.864299e-001 
-2.034684e-001 
-2.161019e-001 
-2.246196e-001 
-2.368588e-001 
-2.530833e-001 
-2.670416e-001 
-2.763772e-001 
-2.799157e-001 
-2.775987e-001 
-2.595114e-001 
-2.629069e-001 
-3.571508e-001 
-5.258578e-001 
-6.819715e-001 
-7.660312e-001 
-7.838655e-001 
-7.690233e-001 
-7.372458e-001 
-7.129004e-001 
-7.719543e-001 
-8.932817e-001 
-9.414962e-001 
-8.592133e-001 
-7.155970e-001 
-5.983960e-001 
-5.314647e-001 
-4.913565e-001 
-4.679986e-001 
-4.383211e-001 
-3.308986e-001 
-1.271589e-001 
1.001163e-001 
2.759428e-001 
3.867179e-001 
4.613727e-001 
5.243453e-001 
5.797875e-001 
6.304462e-001 
6.796630e-001 
7.243056e-001 
7.585300e-001 
7.811451e-001 
7.898990e-001 
7.850458e-001 
7.660828e-001 
7.331432e-001 
6.938652e-001 
6.477187e-001 
5.902504e-001 
5.215594e-001 
4.438511e-001 
3.598421e-001 
2.753691e-001 
1.931195e-001 
1.158007e-001 
4.385692e-002 
-2.646501e-002 
-9.220391e-002 
-1.484390e-001 
-1.943445e-001 
-2.291743e-001 
-2.512558e-001 
-2.619407e-001 
-2.650389e-001 
-2.655605e-001 
-2.635146e-001 
-2.546034e-001 
-2.440251e-001 
-2.397755e-001 
-2.395585e-001 
-2.385740e-001 
-2.358052e-001 
-2.362838e-001 
-2.421042e-001 
-2.474516e-001 
-2.509633e-001 
-2.611348e-001 
-2.759796e-001 
-2.861262e-001 
-2.909155e-001 
-2.970538e-001 
-3.096708e-001 
-3.226309e-001 
-3.317621e-001 
-3.404776e-001 
-3.458534e-001 
-3.336601e-001 
-3.023207e-001 
-3.206543e-001 
-4.471019e-001 
-6.242436e-001 
-7.657530e-001 
-8.316015e-001 
-8.358789e-001 
-8.078913e-001 
-7.576836e-001 
-7.401766e-001 
-8.329067e-001 
-9.520862e-001 
-9.571130e-001 
-8.424841e-001 
-6.872361e-001 
-5.712561e-001 
-5.056115e-001 
-4.662330e-001 
-4.475706e-001 
-4.036098e-001 
-2.577131e-001 
-2.869253e-002 
2.020948e-001 
3.719525e-001 
4.738327e-001 
5.451789e-001 
6.093396e-001 
6.697052e-001 
7.271077e-001 
7.786659e-001 
8.232476e-001 
8.592451e-001 
8.801573e-001 
8.855011e-001 
8.763664e-001 
8.550159e-001 
8.226453e-001 
7.790301e-001 
7.211992e-001 
6.549690e-001 
5.803617e-001 
4.945936e-001 
4.033264e-001 
3.128289e-001 
2.256125e-001 
1.401674e-001 
5.568078e-002 
-2.139064e-002 
-8.665017e-002 
-1.454376e-001 
-1.953975e-001 
-2.289543e-001 
-2.503827e-001 
-2.645983e-001 
-2.700274e-001 
-2.668891e-001 
-2.576740e-001 
-2.480123e-001 
-2.426197e-001 
-2.394905e-001 
-2.346471e-001 
-2.338590e-001 
-2.336685e-001 
-2.327624e-001 
-2.338120e-001 
-2.387480e-001 
-2.472997e-001 
-2.583751e-001 
-2.670550e-001 
-2.716723e-001 
-2.791224e-001 
-2.871954e-001 
-2.972806e-001 
-3.085043e-001 
-3.204324e-001 
-3.255441e-001 
-3.230303e-001 
-2.984790e-001 
-2.953659e-001 
-3.993749e-001 
-5.812919e-001 
-7.482019e-001 
-8.434489e-001 
-8.630509e-001 
-8.445800e-001 
-8.060940e-001 
-7.647847e-001 
-8.240469e-001 
-9.622740e-001 
-1.007021e+000 
-9.132418e-001 
-7.560021e-001 
-6.198356e-001 
-5.401294e-001 
-4.893446e-001 
-4.552208e-001 
-4.231727e-001 
-3.064688e-001 
-8.091736e-002 
1.646039e-001 
3.573582e-001 
4.788624e-001 
5.578411e-001 
6.241129e-001 
6.861213e-001 
7.387950e-001 
7.859362e-001 
8.331198e-001 
8.713526e-001 
8.966276e-001 
9.078196e-001 
9.055720e-001 
8.894575e-001 
8.607107e-001 
8.200622e-001 
7.736727e-001 
7.205080e-001 
6.536515e-001 
5.754436e-001 
4.924947e-001 
4.093331e-001 
3.266211e-001 
2.477406e-001 
1.736775e-001 
1.052010e-001 
4.131995e-002 
-1.809972e-002 
-6.672353e-002 
-1.004472e-001 
-1.231081e-001 
-1.349766e-001 
-1.356977e-001 
-1.329019e-001 
-1.280105e-001 
-1.206994e-001 
-1.150362e-001 
-1.125679e-001 
-1.114649e-001 
-1.100948e-001 
-1.076535e-001 
-1.094974e-001 
-1.173527e-001 
-1.241547e-001 
-1.311825e-001 
-1.451108e-001 
-1.598545e-001 
-1.676330e-001 
-1.744819e-001 
-1.859056e-001 
-2.006175e-001 
-2.144301e-001 
-2.227399e-001 
-2.251572e-001 
-2.248484e-001 
-2.042244e-001 
-1.960772e-001 
-2.866902e-001 
-4.639087e-001 
-6.326990e-001 
-7.312970e-001 
-7.518246e-001 
-7.358201e-001 
-7.051166e-001 
-6.675445e-001 
-7.166396e-001 
-8.527980e-001 
-9.148244e-001 
-8.338469e-001 
-6.824445e-001 
-5.502045e-001 
-4.757257e-001 
-4.310646e-001 
-4.033487e-001 
-3.822230e-001 
-2.831635e-001 
-7.216152e-002 
1.690892e-001 
3.581911e-001 
4.763520e-001 
5.523434e-001 
6.109857e-001 
6.606310e-001 
7.076639e-001 
7.546751e-001 
7.957859e-001 
8.271490e-001 
8.480138e-001 
8.571464e-001 
8.540854e-001 
8.367763e-001 
8.099388e-001 
7.763608e-001 
7.336989e-001 
6.811765e-001 
6.223525e-001 
5.538648e-001 
4.789534e-001 
4.050983e-001 
3.315088e-001 
2.614665e-001 
1.948625e-001 
1.321512e-001 
7.675985e-002 
2.819899e-002 
-1.282749e-002 
-4.198340e-002 
-5.992830e-002 
-6.810636e-002 
-6.898059e-002 
-6.702452e-002 
-5.969528e-002 
-5.126164e-002 
-4.788793e-002 
-4.592669e-002 
-4.397347e-002 
-4.173016e-002 
-4.259093e-002 
-4.904441e-002 
-5.569585e-002 
-6.178685e-002 
-7.373237e-002 
-8.776202e-002 
-9.734026e-002 
-1.051666e-001 
-1.156840e-001 
-1.299042e-001 
-1.425850e-001 
-1.501913e-001 
-1.516362e-001 
-1.486926e-001 
-1.330474e-001 
-1.291944e-001 
-2.029270e-001 
-3.554529e-001 
-5.135094e-001 
-6.211878e-001 
-6.586696e-001 
-6.527508e-001 
-6.302784e-001 
-6.026437e-001 
-6.396441e-001 
-7.519590e-001 
-8.176449e-001 
-7.687527e-001 
-6.490328e-001 
-5.237584e-001 
-4.435185e-001 
-3.969408e-001 
-3.682437e-001 
-3.454896e-001 
-2.615722e-001 
-8.044267e-002 
1.375792e-001 
3.242862e-001 
4.543914e-001 
5.369089e-001 
5.971773e-001 
6.471788e-001 
6.938015e-001 
7.387388e-001 
7.786537e-001 
8.079638e-001 
8.281768e-001 
8.408270e-001 
8.409775e-001 
8.274137e-001 
8.048791e-001 
7.749448e-001 
7.362835e-001 
6.876372e-001 
6.308756e-001 
5.689707e-001 
5.025301e-001 
4.307637e-001 
3.579758e-001 
2.903764e-001 
2.256253e-001 
1.624209e-001 
1.063625e-001 
5.995199e-002 
2.001163e-002 
-1.160893e-002 
-3.314281e-002 
-4.282268e-002 
-4.443789e-002 
-4.399505e-002 
-3.917637e-002 
-3.182368e-002 
-3.116192e-002 
-3.333719e-002 
-3.111763e-002 
-2.839656e-002 
-2.915502e-002 
-3.454331e-002 
-4.158715e-002 
-4.920555e-002 
-6.286347e-002 
-7.712940e-002 
-8.343073e-002 
-8.935253e-002 
-1.011044e-001 
-1.150133e-001 
-1.271533e-001 
-1.366661e-001 
-1.419469e-001 
-1.367657e-001 
-1.129906e-001 
-1.200724e-001 
-2.225479e-001 
-3.807840e-001 
-5.128542e-001 
-5.776263e-001 
-5.852642e-001 
-5.654748e-001 
-5.272626e-001 
-5.040958e-001 
-5.731449e-001 
-6.877380e-001 
-7.080277e-001 
-6.137270e-001 
-4.787030e-001 
-3.761415e-001 
-3.181031e-001 
-2.798963e-001 
-2.584342e-001 
-2.287112e-001 
-1.135145e-001 
8.745136e-002 
2.926532e-001 
4.455948e-001 
5.404164e-001 
6.093349e-001 
6.713127e-001 
7.252447e-001 
7.751300e-001 
8.251953e-001 
8.677878e-001 
8.999597e-001 
9.218203e-001 
9.315900e-001 
9.289713e-001 
9.110174e-001 
8.808430e-001 
8.438741e-001 
7.973670e-001 
7.388391e-001 
6.712604e-001 
5.946863e-001 
5.128343e-001 
4.299194e-001 
3.474087e-001 
2.688338e-001 
1.928055e-001 
1.204267e-001 
5.515440e-002 
-1.153690e-003 
-4.830613e-002 
-8.263098e-002 
-1.044366e-001 
-1.157799e-001 
-1.191991e-001 
-1.178337e-001 
-1.123104e-001 
-1.061503e-001 
-1.036924e-001 
-1.033073e-001 
-1.014782e-001 
-9.956721e-002 
-9.930119e-002 
-1.018753e-001 
-1.072344e-001 
-1.162586e-001 
-1.295934e-001 
-1.430180e-001 
-1.537682e-001 
-1.626319e-001 
-1.730169e-001 
-1.858967e-001 
-1.995603e-001 
-2.145874e-001 
-2.274089e-001 
-2.321158e-001 
-2.160872e-001 
-2.099050e-001 
-2.884145e-001 
-4.549063e-001 
-6.220356e-001 
-7.247988e-001 
-7.562897e-001 
-7.471638e-001 
-7.122121e-001 
-6.682890e-001 
-7.035017e-001 
-8.273507e-001 
-8.957912e-001 
-8.257231e-001 
-6.794809e-001 
-5.452713e-001 
-4.612862e-001 
-4.051994e-001 
-3.700405e-001 
-3.446707e-001 
-2.496443e-001 
-4.723648e-002 
1.920160e-001 
3.873658e-001 
5.129138e-001 
5.935212e-001 
6.585344e-001 
7.137286e-001 
7.657251e-001 
8.165216e-001 
8.572056e-001 
8.854208e-001 
9.016218e-001 
9.051456e-001 
8.963982e-001 
8.740068e-001 
8.403673e-001 
7.997104e-001 
7.486168e-001 
6.835171e-001 
6.099171e-001 
5.312236e-001 
4.490091e-001 
3.652341e-001 
2.838424e-001 
2.066019e-001 
1.326254e-001 
6.116430e-002 
-3.276233e-003 
-5.590304e-002 
-9.661834e-002 
-1.268774e-001 
-1.458363e-001 
-1.524132e-001 
-1.526951e-001 
-1.510911e-001 
-1.456901e-001 
-1.387371e-001 
-1.369001e-001 
-1.366462e-001 
-1.371147e-001 
-1.361594e-001 
-1.352074e-001 
-1.397296e-001 
-1.459825e-001 
-1.516550e-001 
-1.641769e-001 
-1.796298e-001 
-1.886207e-001 
-1.962050e-001 
-2.043561e-001 
-2.161852e-001 
-2.290875e-001 
-2.395964e-001 
-2.476211e-001 
-2.513006e-001 
-2.334062e-001 
-2.297518e-001 
-3.194629e-001 
-4.770611e-001 
-6.185612e-001 
-6.928920e-001 
-7.068967e-001 
-6.941239e-001 
-6.614598e-001 
-6.252779e-001 
-6.767953e-001 
-7.965451e-001 
-8.323091e-001 
-7.462330e-001 
-6.078495e-001 
-4.978959e-001 
-4.339918e-001 
-3.893797e-001 
-3.602094e-001 
-3.325559e-001 
-2.290960e-001 
-3.380883e-002 
1.770407e-001 
3.392698e-001 
4.394142e-001 
5.089264e-001 
5.680447e-001 
6.219386e-001 
6.716481e-001 
7.165680e-001 
7.562354e-001 
7.885208e-001 
8.091516e-001 
8.172205e-001 
8.133706e-001 
7.956971e-001 
7.676859e-001 
7.316230e-001 
6.851702e-001 
6.303971e-001 
5.691032e-001 
4.999877e-001 
4.269344e-001 
3.525921e-001 
2.779077e-001 
2.071510e-001 
1.395267e-001 
7.462314e-002 
1.710269e-002 
-3.195349e-002 
-7.197348e-002 
-1.011736e-001 
-1.199671e-001 
-1.270398e-001 
-1.260876e-001 
-1.225439e-001 
-1.147431e-001 
-1.048951e-001 
-1.006050e-001 
-1.000317e-001 
-9.803361e-002 
-9.490015e-002 
-9.400770e-002 
-9.939541e-002 
-1.062372e-001 
-1.098153e-001 
-1.195338e-001 
-1.353382e-001 
-1.439537e-001 
-1.487934e-001 
-1.596805e-001 
-1.747710e-001 
-1.884192e-001 
-1.974334e-001 
-2.001159e-001 
-2.001065e-001 
-1.879756e-001 
-1.672862e-001 
-2.103994e-001 
-3.497498e-001 
-5.156305e-001 
-6.410400e-001 
-6.968041e-001 
-6.961402e-001 
-6.734988e-001 
-6.365196e-001 
-6.408502e-001 
-7.430515e-001 
-8.393002e-001 
-8.217688e-001 
-7.113334e-001 
-5.755832e-001 
-4.781204e-001 
-4.243095e-001 
-3.919040e-001 
-3.759515e-001 
-3.216656e-001 
-1.668805e-001 
5.121586e-002 
2.572115e-001 
4.045593e-001 
4.941307e-001 
5.569820e-001 
6.072451e-001 
6.533009e-001 
6.999580e-001 
7.428816e-001 
7.790865e-001 
8.060932e-001 
8.229853e-001 
8.300647e-001 
8.235435e-001 
8.052100e-001 
7.801284e-001 
7.462584e-001 
7.016242e-001 
6.485051e-001 
5.880928e-001 
5.216688e-001 
4.509534e-001 
3.785727e-001 
3.097492e-001 
2.432610e-001 
1.789703e-001 
1.193363e-001 
6.548771e-002 
2.008097e-002 
-1.534512e-002 
-4.199787e-002 
-5.857102e-002 
-6.502709e-002 
-6.523941e-002 
-6.147262e-002 
-5.504256e-002 
-4.653014e-002 
-4.080303e-002 
-4.141926e-002 
-4.094314e-002 
-3.769683e-002 
-3.705887e-002 
-4.164365e-002 
-4.818795e-002 
-5.440177e-002 
-6.501186e-002 
-8.150186e-002 
-9.302871e-002 
-9.811090e-002 
-1.079005e-001 
-1.235847e-001 
-1.387091e-001 
-1.492197e-001 
-1.561524e-001 
-1.574058e-001 
-1.376303e-001 
-1.187389e-001 
-1.824713e-001 
-3.454108e-001 
-5.231083e-001 
-6.430918e-001 
-6.841214e-001 
-6.745458e-001 
-6.406935e-001 
-5.969677e-001 
-6.232597e-001 
-7.478088e-001 
-8.371231e-001 
-7.911651e-001 
-6.524239e-001 
-5.054777e-001 
-4.137429e-001 
-3.635783e-001 
-3.351828e-001 
-3.185735e-001 
-2.423726e-001 
-5.636695e-002 
1.819971e-001 
3.906932e-001 
5.295182e-001 
6.113398e-001 
6.753162e-001 
7.323217e-001 
7.872330e-001 
8.408878e-001 
8.875806e-001 
9.270726e-001 
9.578001e-001 
9.752954e-001 
9.794800e-001 
9.705271e-001 
9.493053e-001 
9.165181e-001 
8.743531e-001 
8.217523e-001 
7.595948e-001 
6.874420e-001 
6.066218e-001 
5.216799e-001 
4.370257e-001 
3.528192e-001 
2.711311e-001 
1.951131e-001 
1.231891e-001 
5.910123e-002 
1.882336e-003 
-4.404588e-002 
-7.451682e-002 
-9.358314e-002 
-1.054844e-001 
-1.088535e-001 
-1.060883e-001 
-1.002258e-001 
-9.266214e-002 
-8.613299e-002 
-7.733864e-002 
-7.167843e-002 
-7.013979e-002 
-6.827378e-002 
-6.523286e-002 
-6.611687e-002 
-7.118658e-002 
-7.636022e-002 
-8.316067e-002 
-9.381419e-002 
-1.062554e-001 
-1.142066e-001 
-1.217626e-001 
-1.321083e-001 
-1.461138e-001 
-1.574080e-001 
-1.667472e-001 
-1.745258e-001 
-1.716546e-001 
-1.386517e-001 
-1.480306e-001 
-2.882273e-001 
-4.858807e-001 
-6.361692e-001 
-7.018338e-001 
-7.058976e-001 
-6.845161e-001 
-6.331647e-001 
-5.944213e-001 
-6.966492e-001 
-8.488630e-001 
-8.513506e-001 
-7.173218e-001 
-5.555034e-001 
-4.442526e-001 
-3.812804e-001 
-3.332116e-001 
-3.128611e-001 
-2.849427e-001 
-1.353336e-001 
1.157191e-001 
3.533414e-001 
5.179874e-001 
6.148544e-001 
6.880799e-001 
7.523095e-001 
8.084064e-001 
8.604316e-001 
9.098644e-001 
9.508351e-001 
9.802838e-001 
9.957056e-001 
9.968742e-001 
9.847535e-001 
9.579742e-001 
9.180483e-001 
8.690727e-001 
8.102275e-001 
7.364686e-001 
6.542385e-001 
5.659376e-001 
4.757180e-001 
3.842460e-001 
2.937510e-001 
2.074587e-001 
1.263241e-001 
4.669251e-002 
-2.451023e-002 
-8.026110e-002 
-1.236432e-001 
-1.565791e-001 
-1.823789e-001 
-1.965153e-001 
-2.031952e-001 
-2.069690e-001 
-2.077271e-001 
-2.007432e-001 
-1.925484e-001 
-1.850197e-001 
-1.789172e-001 
