50
1.6510
1.4718e+003
2.9626
-3.217041e-003 
-8.539409e-003 
-1.351040e-002 
-1.857074e-002 
-2.357468e-002 
-2.852250e-002 
-3.355978e-002 
-3.824712e-002 
-4.503242e-002 
-5.342728e-002 
-5.595190e-002 
-5.640782e-002 
-5.948538e-002 
-6.553803e-002 
-7.294933e-002 
-7.982365e-002 
-8.712814e-002 
-9.460063e-002 
-9.894876e-002 
-1.035196e-001 
-1.129032e-001 
-1.243161e-001 
-1.345905e-001 
-1.408023e-001 
-1.458216e-001 
-1.523823e-001 
-1.584317e-001 
-1.665895e-001 
-1.763376e-001 
-1.830519e-001 
-1.871974e-001 
-1.896612e-001 
-1.903781e-001 
-1.907633e-001 
-1.895224e-001 
-1.853737e-001 
-1.815949e-001 
-1.756360e-001 
-1.684288e-001 
-1.620160e-001 
-1.556290e-001 
-1.469530e-001 
-1.391995e-001 
-1.328320e-001 
-1.276616e-001 
-1.247949e-001 
-1.194754e-001 
-1.130007e-001 
-1.067443e-001 
-1.009901e-001 
-9.580182e-002 
-9.279358e-002 
-8.838872e-002 
-8.334817e-002 
-7.820455e-002 
-7.214604e-002 
-6.904656e-002 
-6.807474e-002 
-6.628270e-002 
-6.317333e-002 
-6.070669e-002 
-5.886605e-002 
-5.890728e-002 
-5.807559e-002 
-5.617040e-002 
-5.553099e-002 
-5.453109e-002 
-5.477100e-002 
-5.827156e-002 
-6.309342e-002 
-6.636948e-002 
-6.741025e-002 
-6.633005e-002 
-6.736524e-002 
-7.114093e-002 
-7.516936e-002 
-7.936264e-002 
-8.073042e-002 
-7.997375e-002 
-7.942595e-002 
-7.933376e-002 
-7.919958e-002 
-7.960638e-002 
-7.945713e-002 
-7.849799e-002 
-7.699987e-002 
-7.517642e-002 
-7.375619e-002 
-7.171001e-002 
-6.902388e-002 
-6.688489e-002 
-6.794074e-002 
-7.047854e-002 
-7.102615e-002 
-6.843436e-002 
-6.367134e-002 
-5.859847e-002 
-5.474613e-002 
-5.355120e-002 
-5.362290e-002 
-5.151837e-002 
-4.559006e-002 
-3.674071e-002 
-2.899042e-002 
-2.461205e-002 
-2.162381e-002 
-1.823275e-002 
-1.492208e-002 
-1.123660e-002 
-8.936175e-003 
-8.386706e-003 
-9.612004e-003 
-1.177906e-002 
-1.309482e-002 
-1.498491e-002 
-2.042689e-002 
-2.997084e-002 
-4.110613e-002 
-5.106808e-002 
-5.790855e-002 
-6.528664e-002 
-7.257626e-002 
-8.373702e-002 
-9.978577e-002 
-1.156951e-001 
-1.273764e-001 
-1.345438e-001 
-1.395149e-001 
-1.443210e-001 
-1.504205e-001 
-1.559863e-001 
-1.622500e-001 
-1.652552e-001 
-1.645397e-001 
-1.613974e-001 
-1.567448e-001 
-1.508114e-001 
-1.445297e-001 
-1.391166e-001 
-1.333083e-001 
-1.266786e-001 
-1.172385e-001 
-1.064483e-001 
-9.426102e-002 
-8.281490e-002 
-7.393983e-002 
-6.879562e-002 
-6.478885e-002 
-5.888490e-002 
-5.098489e-002 
-4.330358e-002 
-3.882148e-002 
-3.700024e-002 
-3.677619e-002 
-3.582747e-002 
-3.429486e-002 
-3.022189e-002 
-2.608625e-002 
-2.492275e-002 
-2.629843e-002 
-2.719682e-002 
-2.594273e-002 
-2.336957e-002 
-2.172454e-002 
-2.182590e-002 
-2.394295e-002 
-2.925660e-002 
-3.289276e-002 
-3.338795e-002 
-3.342879e-002 
-3.450120e-002 
-3.656002e-002 
-3.760031e-002 
-3.887779e-002 
-4.485996e-002 
-5.822254e-002 
-7.983502e-002 
-1.145952e-001 
-1.635172e-001 
-2.251636e-001 
-2.989057e-001 
-3.836657e-001 
-4.794399e-001 
-5.824632e-001 
-6.886147e-001 
-7.969954e-001 
-9.088912e-001 
-1.020882e+000 
-1.131478e+000 
-1.236608e+000 
-1.332005e+000 
-1.415671e+000 
-1.485845e+000 
-1.544482e+000 
-1.593047e+000 
-1.626888e+000 
-1.641465e+000 
-1.636679e+000 
-1.610252e+000 
-1.567034e+000 
-1.511063e+000 
-1.444290e+000 
-1.371308e+000 
-1.292466e+000 
-1.207203e+000 
-1.117858e+000 
-1.023454e+000 
-9.221620e-001 
-8.163794e-001 
-7.063144e-001 
-5.972873e-001 
-4.938001e-001 
-3.942148e-001 
-2.969233e-001 
-2.008190e-001 
-1.033918e-001 
-6.699532e-003 
8.146279e-002 
1.571645e-001 
2.215970e-001 
2.791190e-001 
3.316622e-001 
3.777778e-001 
4.165725e-001 
4.493242e-001 
4.751896e-001 
4.923274e-001 
5.052396e-001 
5.177741e-001 
5.277779e-001 
5.339882e-001 
5.388235e-001 
5.450272e-001 
5.528147e-001 
5.600236e-001 
5.642434e-001 
5.676702e-001 
5.717381e-001 
5.765843e-001 
5.835570e-001 
5.940263e-001 
6.038847e-001 
6.097858e-001 
6.135149e-001 
6.165974e-001 
6.214486e-001 
6.284824e-001 
6.355885e-001 
6.416997e-001 
6.476369e-001 
6.515246e-001 
6.547612e-001 
6.597746e-001 
6.649191e-001 
6.702707e-001 
6.755149e-001 
6.795928e-001 
6.831640e-001 
6.872216e-001 
6.892837e-001 
6.896874e-001 
6.919504e-001 
6.955430e-001 
6.999408e-001 
7.034755e-001 
7.035562e-001 
7.017723e-001 
6.988727e-001 
6.924933e-001 
6.847482e-001 
6.758402e-001 
6.617828e-001 
6.431114e-001 
6.215353e-001 
5.995497e-001 
5.789556e-001 
5.548913e-001 
5.258317e-001 
4.937112e-001 
4.580506e-001 
4.204924e-001 
3.849195e-001 
3.504589e-001 
3.156795e-001 
2.790407e-001 
2.410721e-001 
2.058329e-001 
1.744699e-001 
1.463036e-001 
1.221456e-001 
9.876970e-002 
7.572697e-002 
5.681297e-002 
4.191450e-002 
2.987056e-002 
1.914111e-002 
8.684802e-003 
-1.310542e-003 
-8.764039e-003 
-1.459588e-002 
-1.628759e-002 
-1.604236e-002 
-1.826389e-002 
-2.172724e-002 
-2.373701e-002 
-2.470590e-002 
-2.425604e-002 
-2.279017e-002 
-2.343083e-002 
-2.442939e-002 
-2.666380e-002 
-2.803632e-002 
-2.599678e-002 
-2.380216e-002 
-2.355702e-002 
-2.346507e-002 
-2.239537e-002 
-1.977731e-002 
-1.716930e-002 
-1.572295e-002 
-1.362698e-002 
-1.289695e-002 
-1.350703e-002 
-1.296179e-002 
-1.060192e-002 
-7.133894e-003 
-5.094634e-003 
-4.923325e-003 
-2.924494e-003 
-4.442856e-004 
2.557986e-003 
6.954123e-003 
1.015636e-002 
1.284583e-002 
1.657721e-002 
2.091338e-002 
2.577878e-002 
3.009144e-002 
3.129584e-002 
3.302615e-002 
3.558605e-002 
3.853251e-002 
4.244209e-002 
4.507133e-002 
4.382383e-002 
4.051593e-002 
3.752547e-002 
3.581894e-002 
3.844094e-002 
4.130899e-002 
4.202883e-002 
4.078402e-002 
3.720324e-002 
3.339358e-002 
3.219734e-002 
3.202074e-002 
3.228887e-002 
3.401141e-002 
3.407053e-002 
3.336138e-002 
3.209741e-002 
2.971912e-002 
2.905167e-002 
3.009734e-002 
3.083613e-002 
3.312240e-002 
3.504771e-002 
3.322853e-002 
2.933136e-002 
2.675957e-002 
2.694343e-002 
2.856836e-002 
3.020761e-002 
3.056251e-002 
2.884566e-002 
2.574597e-002 
2.343001e-002 
2.447819e-002 
2.944977e-002 
3.225474e-002 
3.322354e-002 
3.569827e-002 
3.877978e-002 
4.292718e-002 
4.852466e-002 
5.371625e-002 
5.854533e-002 
6.206597e-002 
6.479110e-002 
7.056634e-002 
7.828808e-002 
8.433040e-002 
8.622645e-002 
8.635946e-002 
8.764766e-002 
8.956404e-002 
9.023901e-002 
8.801270e-002 
8.269917e-002 
7.575835e-002 
6.612664e-002 
5.593785e-002 
4.862684e-002 
4.058999e-002 
2.886435e-002 
1.492431e-002 
3.158765e-004 
-1.086266e-002 
-1.924595e-002 
-2.851052e-002 
-3.743929e-002 
-4.611095e-002 
-5.630603e-002 
-6.576829e-002 
-7.285012e-002 
-7.763325e-002 
-8.039795e-002 
-8.275995e-002 
-8.294376e-002 
-8.038774e-002 
-7.648117e-002 
-7.352634e-002 
-7.060679e-002 
-6.596024e-002 
-6.078226e-002 
-5.523670e-002 
-4.753927e-002 
-4.051220e-002 
-3.635617e-002 
-3.319220e-002 
-2.912145e-002 
-2.220412e-002 
-1.497150e-002 
-1.032073e-002 
-4.977909e-003 
2.756589e-004 
1.981712e-003 
3.873350e-003 
6.088596e-003 
7.345635e-003 
6.260178e-003 
3.498553e-003 
4.216272e-003 
8.725665e-003 
1.161735e-002 
1.287412e-002 
1.490462e-002 
1.694042e-002 
1.916998e-002 
2.115268e-002 
2.367231e-002 
2.561968e-002 
2.384595e-002 
2.081430e-002 
1.977836e-002 
2.173293e-002 
2.345753e-002 
2.165710e-002 
1.624483e-002 
1.031373e-002 
5.988743e-003 
3.942091e-003 
3.232106e-003 
-2.848393e-003 
-1.888487e-002 
-4.776786e-002 
-8.645834e-002 
-1.334274e-001 
-1.875408e-001 
-2.506446e-001 
-3.252454e-001 
-4.097894e-001 
-5.034453e-001 
-6.010279e-001 
-6.984616e-001 
-7.967639e-001 
-8.977752e-001 
-9.983434e-001 
-1.096287e+000 
-1.186106e+000 
-1.266263e+000 
-1.337014e+000 
-1.393903e+000 
-1.438288e+000 
-1.470448e+000 
-1.487438e+000 
-1.488663e+000 
-1.473925e+000 
-1.446202e+000 
-1.410926e+000 
-1.365611e+000 
-1.311326e+000 
-1.251772e+000 
-1.188266e+000 
-1.120923e+000 
-1.049022e+000 
-9.728966e-001 
-8.935253e-001 
-8.086665e-001 
-7.203696e-001 
-6.324131e-001 
-5.445854e-001 
-4.583948e-001 
-3.709058e-001 
-2.840993e-001 
-1.994582e-001 
-1.161369e-001 
-3.486663e-002 
4.055813e-002 
1.116151e-001 
1.769876e-001 
2.341569e-001 
2.852600e-001 
3.297566e-001 
3.690029e-001 
4.051555e-001 
4.366112e-001 
4.615021e-001 
4.814979e-001 
4.955353e-001 
5.070706e-001 
5.192810e-001 
5.288778e-001 
5.365381e-001 
5.423673e-001 
5.457848e-001 
5.500489e-001 
5.541658e-001 
5.575254e-001 
5.618763e-001 
5.638186e-001 
5.638556e-001 
5.658132e-001 
5.688218e-001 
5.742002e-001 
5.788443e-001 
5.800486e-001 
5.818010e-001 
5.852928e-001 
5.901537e-001 
5.969008e-001 
6.039367e-001 
6.114945e-001 
6.188570e-001 
6.253861e-001 
6.322403e-001 
6.403086e-001 
6.473451e-001 
6.529907e-001 
6.582062e-001 
6.653044e-001 
6.743228e-001 
6.829854e-001 
6.897393e-001 
6.934591e-001 
6.971963e-001 
7.019040e-001 
7.095169e-001 
7.177665e-001 
7.240259e-001 
7.274103e-001 
7.286450e-001 
7.282164e-001 
7.281078e-001 
7.286065e-001 
7.258952e-001 
7.191631e-001 
7.076062e-001 
6.943370e-001 
6.817731e-001 
6.686846e-001 
6.524577e-001 
6.321005e-001 
6.087655e-001 
5.817180e-001 
5.536889e-001 
5.264921e-001 
4.973966e-001 
4.657364e-001 
4.324401e-001 
3.976817e-001 
3.646078e-001 
3.333393e-001 
3.010038e-001 
2.703782e-001 
2.410339e-001 
2.112078e-001 
1.852769e-001 
1.618712e-001 
1.384951e-001 
1.164598e-001 
9.461891e-002 
7.489813e-002 
5.949492e-002 
4.650353e-002 
3.498318e-002 
2.640008e-002 
1.711985e-002 
8.870113e-003 
3.221174e-003 
-1.131041e-003 
-5.183890e-003 
-9.515826e-003 
-1.345962e-002 
-1.469417e-002 
-1.349242e-002 
-1.428236e-002 
-1.462636e-002 
-1.499228e-002 
-1.664899e-002 
-1.847512e-002 
-1.841107e-002 
-1.650296e-002 
-1.368279e-002 
-1.365552e-002 
-1.478714e-002 
-1.392593e-002 
-1.428128e-002 
-1.597641e-002 
-1.789429e-002 
-1.905010e-002 
-1.973440e-002 
-1.927837e-002 
-1.906797e-002 
-1.830315e-002 
-1.966146e-002 
-2.285647e-002 
-2.488992e-002 
-2.446263e-002 
-2.099218e-002 
-1.779480e-002 
-1.693102e-002 
-1.861644e-002 
-2.009223e-002 
-1.935112e-002 
-1.511726e-002 
-9.717483e-003 
-4.795628e-003 
-1.924967e-003 
-1.831651e-003 
-1.283491e-003 
2.230358e-003 
7.439606e-003 
1.171498e-002 
1.257156e-002 
1.155674e-002 
1.043022e-002 
1.108057e-002 
1.349065e-002 
1.654000e-002 
1.791990e-002 
1.761100e-002 
1.637775e-002 
1.539088e-002 
1.610859e-002 
1.589742e-002 
1.548467e-002 
1.623318e-002 
1.758089e-002 
1.937508e-002 
2.202100e-002 
2.263897e-002 
2.231396e-002 
2.130688e-002 
2.034663e-002 
2.301806e-002 
2.644975e-002 
2.662264e-002 
2.482484e-002 
2.153857e-002 
1.807287e-002 
1.713233e-002 
1.684563e-002 
1.654140e-002 
1.480807e-002 
9.415872e-003 
5.014030e-003 
3.378137e-003 
1.695560e-003 
1.088030e-003 
4.525153e-004 
-1.858475e-003 
-3.026390e-003 
-2.931109e-003 
-1.400942e-003 
1.073644e-003 
1.256324e-004 
-1.697140e-003 
-2.180811e-004 
1.890191e-003 
5.633159e-003 
1.128115e-002 
1.503258e-002 
1.798804e-002 
2.132159e-002 
2.483897e-002 
3.202435e-002 
3.878313e-002 
4.243545e-002 
4.722846e-002 
5.172973e-002 
5.547477e-002 
6.096128e-002 
6.451817e-002 
6.538481e-002 
6.591574e-002 
6.486487e-002 
6.455730e-002 
6.381282e-002 
5.874428e-002 
5.114936e-002 
4.171675e-002 
3.142568e-002 
2.300850e-002 
1.587151e-002 
8.328363e-003 
-1.504900e-003 
-1.452346e-002 
-2.709259e-002 
-3.765463e-002 
-4.787569e-002 
-5.656688e-002 
-6.607901e-002 
-7.468348e-002 
-8.229949e-002 
-8.903746e-002 
-9.280370e-002 
-9.540417e-002 
-9.906027e-002 
-1.034853e-001 
-1.060705e-001 
-1.058756e-001 
-1.025877e-001 
-9.994858e-002 
-9.620296e-002 
-9.131690e-002 
-8.659733e-002 
-7.993691e-002 
-7.188351e-002 
-6.301950e-002 
-5.628705e-002 
-5.234432e-002 
-4.814459e-002 
-4.077299e-002 
-3.393222e-002 
-2.895473e-002 
-2.513410e-002 
-2.214663e-002 
-1.945734e-002 
-1.774260e-002 
-1.463643e-002 
-1.009098e-002 
-8.134140e-003 
-9.942347e-003 
-1.200007e-002 
-1.268680e-002 
-1.209234e-002 
-1.179048e-002 
-1.229906e-002 
-1.124809e-002 
-8.276241e-003 
-6.495458e-003 
-5.105524e-003 
-3.543637e-003 
-3.809560e-003 
-5.250662e-003 
-6.477626e-003 
-6.619053e-003 
-5.352342e-003 
-3.746278e-003 
-5.614480e-003 
-8.307455e-003 
-9.579733e-003 
-1.021308e-002 
-9.409746e-003 
-7.909580e-003 
-8.807788e-003 
-1.245402e-002 
-2.031874e-002 
-3.884268e-002 
-6.797280e-002 
-1.079185e-001 
-1.598173e-001 
-2.228566e-001 
-2.954318e-001 
-3.778461e-001 
-4.683341e-001 
-5.683117e-001 
-6.767685e-001 
-7.860650e-001 
-8.936324e-001 
-1.000820e+000 
-1.106331e+000 
-1.207029e+000 
-1.301251e+000 
-1.385423e+000 
-1.457101e+000 
-1.512167e+000 
-1.552067e+000 
-1.580067e+000 
-1.596507e+000 
-1.596179e+000 
-1.577129e+000 
-1.544139e+000 
-1.501886e+000 
-1.452451e+000 
-1.398935e+000 
-1.342179e+000 
-1.279730e+000 
-1.211081e+000 
-1.135353e+000 
-1.057940e+000 
-9.807904e-001 
-9.005672e-001 
-8.154274e-001 
-7.270303e-001 
-6.350067e-001 
-5.438262e-001 
-4.538882e-001 
-3.637368e-001 
-2.738461e-001 
-1.832084e-001 
-9.480850e-002 
-1.340563e-002 
5.936928e-002 
1.265812e-001 
1.887508e-001 
2.478124e-001 
3.023511e-001 
3.494056e-001 
3.875402e-001 
4.173532e-001 
4.406969e-001 
4.613928e-001 
4.814384e-001 
4.969106e-001 
5.073701e-001 
5.138021e-001 
5.176620e-001 
5.226282e-001 
5.293170e-001 
5.364905e-001 
5.431952e-001 
5.480402e-001 
5.528985e-001 
5.596223e-001 
5.651888e-001 
5.709290e-001 
5.771771e-001 
5.816530e-001 
5.869856e-001 
5.935032e-001 
6.009209e-001 
6.100703e-001 
6.168498e-001 
6.204201e-001 
6.256674e-001 
6.302980e-001 
6.353485e-001 
6.413910e-001 
6.463189e-001 
6.509132e-001 
6.561454e-001 
6.607226e-001 
6.640502e-001 
6.666314e-001 
6.684112e-001 
6.712069e-001 
6.748705e-001 
6.810760e-001 
6.869078e-001 
6.912568e-001 
6.925961e-001 
6.922673e-001 
6.947187e-001 
6.997216e-001 
7.045355e-001 
7.083660e-001 
7.095196e-001 
7.069394e-001 
7.046943e-001 
7.023127e-001 
7.009566e-001 
6.996611e-001 
6.936495e-001 
6.836746e-001 
6.732634e-001 
6.617040e-001 
6.481968e-001 
6.325367e-001 
6.121876e-001 
5.895362e-001 
5.644721e-001 
5.368037e-001 
5.102440e-001 
4.835003e-001 
4.528070e-001 
4.187064e-001 
3.840821e-001 
3.491303e-001 
3.146375e-001 
2.794689e-001 
2.438791e-001 
2.102318e-001 
1.788446e-001 
1.494017e-001 
1.222876e-001 
9.798242e-002 
7.396986e-002 
5.231637e-002 
3.486611e-002 
2.056141e-002 
9.475408e-003 
2.778066e-004 
-9.483882e-003 
-1.841512e-002 
-2.460174e-002 
-2.875320e-002 
-2.897936e-002 
-2.793940e-002 
-2.914005e-002 
-2.917305e-002 
-2.825816e-002 
-2.832929e-002 
-2.790914e-002 
-2.888476e-002 
-3.183634e-002 
-3.399147e-002 
-3.600441e-002 
-3.700429e-002 
-3.589149e-002 
-3.668465e-002 
-3.889484e-002 
-4.045837e-002 
-4.163089e-002 
-4.089725e-002 
-3.822698e-002 
-3.651415e-002 
-3.602898e-002 
-3.690465e-002 
-3.740751e-002 
-3.458042e-002 
-3.063954e-002 
-2.751163e-002 
-2.500803e-002 
-2.321870e-002 
-2.026710e-002 
-1.599409e-002 
-1.248729e-002 
-8.266400e-003 
-5.659033e-003 
-6.107945e-003 
-4.906931e-003 
-3.315713e-003 
-1.435693e-003 
1.942358e-003 
1.559778e-003 
1.560193e-004 
1.461224e-003 
2.109928e-003 
4.507009e-003 
7.958140e-003 
8.189372e-003 
1.013311e-002 
1.250190e-002 
1.344562e-002 
1.853072e-002 
2.366365e-002 
2.538727e-002 
2.567944e-002 
2.495099e-002 
2.621182e-002 
3.108870e-002 
3.368951e-002 
3.428934e-002 
3.470752e-002 
3.173069e-002 
2.649857e-002 
2.119526e-002 
1.742250e-002 
1.594516e-002 
1.435835e-002 
1.054846e-002 
6.877260e-003 
3.234595e-003 
-2.749608e-003 
-9.172568e-003 
-1.396287e-002 
-1.638881e-002 
-1.720273e-002 
-1.940185e-002 
-2.364180e-002 
-2.785097e-002 
-3.229127e-002 
-3.569265e-002 
-3.533918e-002 
-3.317211e-002 
-3.098640e-002 
-3.031092e-002 
-3.133632e-002 
-3.292049e-002 
-3.461733e-002 
-3.739013e-002 
-3.794268e-002 
-3.617701e-002 
-3.422819e-002 
-3.144977e-002 
-2.816379e-002 
-2.473674e-002 
-2.182732e-002 
-1.918447e-002 
-1.596650e-002 
-1.061235e-002 
-7.187820e-003 
-5.762454e-003 
-5.213193e-003 
-6.059047e-003 
-5.126308e-003 
-1.030801e-003 
4.092607e-003 
7.853191e-003 
8.600310e-003 
6.631622e-003 
5.454624e-003 
4.029246e-003 
2.323863e-003 
1.497829e-003 
-2.333550e-003 
-8.947468e-003 
-1.634338e-002 
-2.280810e-002 
-2.832253e-002 
-3.492955e-002 
-4.340997e-002 
-5.221681e-002 
-6.052355e-002 
-6.884677e-002 
-7.602234e-002 
-8.456961e-002 
-9.476676e-002 
-1.055402e-001 
-1.145410e-001 
-1.212449e-001 
-1.256780e-001 
-1.290240e-001 
-1.342134e-001 
-1.403140e-001 
-1.460670e-001 
-1.497079e-001 
-1.498431e-001 
-1.478737e-001 
-1.463265e-001 
-1.429960e-001 
-1.392982e-001 
-1.351656e-001 
-1.291709e-001 
-1.234149e-001 
-1.179837e-001 
-1.112823e-001 
-1.046441e-001 
-9.737704e-002 
-8.858118e-002 
-8.182007e-002 
-7.628348e-002 
-7.088341e-002 
-6.471004e-002 
-5.737043e-002 
-5.055660e-002 
-4.619948e-002 
-4.306713e-002 
-4.167768e-002 
-4.102096e-002 
-3.848648e-002 
-3.514577e-002 
-3.276206e-002 
-3.203157e-002 
-3.194498e-002 
-3.049662e-002 
-2.777546e-002 
-2.557908e-002 
-2.344769e-002 
-2.290821e-002 
-2.466384e-002 
-2.573633e-002 
-2.507429e-002 
-2.446742e-002 
-2.512089e-002 
-2.796177e-002 
-3.037982e-002 
-3.137151e-002 
-3.303440e-002 
-3.385237e-002 
-3.402266e-002 
-3.623978e-002 
-4.142302e-002 
-4.580653e-002 
-4.657415e-002 
-4.407939e-002 
-4.355859e-002 
-4.723656e-002 
-5.384267e-002 
-6.540308e-002 
-8.446435e-002 
-1.130210e-001 
-1.508129e-001 
-1.998223e-001 
-2.611962e-001 
-3.359731e-001 
-4.218870e-001 
-5.156146e-001 
-6.160972e-001 
-7.236040e-001 
-8.339474e-001 
-9.432409e-001 
-1.052563e+000 
-1.161360e+000 
-1.267960e+000 
-1.368528e+000 
-1.456345e+000 
-1.530280e+000 
-1.589832e+000 
-1.632380e+000 
-1.661333e+000 
-1.679938e+000 
-1.684376e+000 
-1.671520e+000 
-1.644092e+000 
-1.603685e+000 
-1.556682e+000 
-1.505005e+000 
-1.447451e+000 
-1.385602e+000 
-1.319585e+000 
-1.246079e+000 
-1.168587e+000 
-1.091324e+000 
-1.011528e+000 
-9.296331e-001 
-8.427838e-001 
-7.517068e-001 
-6.609004e-001 
-5.709928e-001 
-4.794484e-001 
-3.885110e-001 
-2.977322e-001 
-2.077285e-001 
-1.216695e-001 
-4.009851e-002 
3.581604e-002 
1.045587e-001 
1.682294e-001 
2.274525e-001 
2.783168e-001 
3.224100e-001 
3.607224e-001 
3.949180e-001 
4.258004e-001 
4.513715e-001 
4.697728e-001 
4.836814e-001 
4.932114e-001 
5.008206e-001 
5.089862e-001 
5.175158e-001 
5.254708e-001 
5.300223e-001 
5.325826e-001 
5.367369e-001 
5.416525e-001 
5.469217e-001 
5.517918e-001 
5.544208e-001 
5.572298e-001 
5.592784e-001 
5.624054e-001 
5.678588e-001 
5.723102e-001 
5.745010e-001 
5.768064e-001 
5.799517e-001 
5.858668e-001 
5.920930e-001 
5.970550e-001 
6.021036e-001 
6.046352e-001 
6.074843e-001 
6.127575e-001 
6.198356e-001 
6.276971e-001 
6.332279e-001 
6.361006e-001 
6.414621e-001 
6.485428e-001 
6.539550e-001 
6.589540e-001 
6.635836e-001 
6.673195e-001 
6.698338e-001 
6.722226e-001 
6.769529e-001 
6.822784e-001 
6.829587e-001 
6.804399e-001 
6.794321e-001 
6.798712e-001 
6.786071e-001 
6.754696e-001 
6.703811e-001 
6.633011e-001 
6.533918e-001 
6.416426e-001 
6.301886e-001 
6.175857e-001 
6.014010e-001 
5.817766e-001 
5.599922e-001 
5.362907e-001 
5.120192e-001 
4.846775e-001 
4.540493e-001 
4.225938e-001 
3.907210e-001 
3.583852e-001 
3.255901e-001 
2.915031e-001 
2.573472e-001 
2.240259e-001 
1.915441e-001 
1.638219e-001 
1.388737e-001 
1.134769e-001 
8.862379e-002 
6.593568e-002 
4.694645e-002 
3.156938e-002 
1.884938e-002 
9.822419e-003 
8.620353e-004 
-1.112941e-002 
-2.056104e-002 
-2.595305e-002 
-2.855311e-002 
-3.065049e-002 
-3.428218e-002 
-3.724573e-002 
-3.842813e-002 
-4.124826e-002 
-4.349558e-002 
-4.321766e-002 
-4.410940e-002 
-4.587100e-002 
-4.792967e-002 
-4.899621e-002 
-4.797931e-002 
-4.698051e-002 
-4.873219e-002 
-4.928783e-002 
-4.786703e-002 
-4.683547e-002 
-4.537591e-002 
-4.415287e-002 
-4.325031e-002 
-4.258508e-002 
-4.163609e-002 
-3.962936e-002 
-3.611221e-002 
-3.527923e-002 
-3.621311e-002 
-3.499379e-002 
-3.173533e-002 
-2.791989e-002 
-2.356813e-002 
-2.047063e-002 
-1.931486e-002 
-1.915849e-002 
-1.839088e-002 
-1.338301e-002 
-6.086770e-003 
-1.607907e-003 
5.711049e-004 
1.892239e-003 
2.842230e-003 
7.091360e-003 
1.213401e-002 
1.700107e-002 
2.166753e-002 
2.341481e-002 
2.430995e-002 
2.668416e-002 
2.928231e-002 
3.300967e-002 
3.609489e-002 
3.583472e-002 
3.656871e-002 
3.827410e-002 
3.934782e-002 
4.032170e-002 
4.054204e-002 
4.078551e-002 
4.196448e-002 
4.158662e-002 
4.039934e-002 
3.932792e-002 
3.586868e-002 
3.219966e-002 
3.138595e-002 
3.169051e-002 
3.211770e-002 
3.111202e-002 
2.710793e-002 
2.381429e-002 
2.220050e-002 
2.208052e-002 
2.387202e-002 
2.472009e-002 
2.207988e-002 
1.996958e-002 
1.887232e-002 
1.880425e-002 
2.208678e-002 
2.453007e-002 
2.420801e-002 
2.391515e-002 
2.427468e-002 
2.676343e-002 
3.161076e-002 
3.454732e-002 
3.612930e-002 
3.887085e-002 
4.121485e-002 
4.574224e-002 
5.270240e-002 
5.912308e-002 
6.413739e-002 
6.695800e-002 
7.024521e-002 
7.608605e-002 
8.275190e-002 
8.657470e-002 
8.719939e-002 
8.419626e-002 
8.020994e-002 
7.622410e-002 
7.382537e-002 
7.112552e-002 
6.414052e-002 
5.351184e-002 
4.088607e-002 
2.894259e-002 
1.785070e-002 
8.005183e-003 
-1.310803e-003 
-1.248215e-002 
-2.652109e-002 
-4.007741e-002 
-5.289009e-002 
-6.314799e-002 
-7.173065e-002 
-7.915733e-002 
-8.382135e-002 
-8.614209e-002 
-8.827527e-002 
-8.911584e-002 
-8.894098e-002 
-8.703259e-002 
-8.069837e-002 
-7.261618e-002 
-6.435290e-002 
-5.571502e-002 
-4.505341e-002 
-3.417547e-002 
-2.380918e-002 
-1.418096e-002 
-5.595190e-003 
1.170042e-003 
4.543195e-003 
5.526763e-003 
8.596486e-003 
1.461585e-002 
1.661444e-002 
1.423291e-002 
9.236911e-003 
4.389479e-003 
2.207282e-003 
4.926051e-004 
5.331346e-004 
1.308374e-003 
-1.817021e-003 
-7.903247e-003 
-9.750564e-003 
-7.748395e-003 
-2.483318e-003 
1.910145e-003 
4.487328e-003 
7.740951e-003 
9.862097e-003 
1.162565e-002 
1.634678e-002 
1.983582e-002 
1.898891e-002 
1.660299e-002 
1.359499e-002 
1.199185e-002 
7.999772e-003 
-3.837933e-003 
-2.459575e-002 
-5.538644e-002 
-9.814242e-002 
-1.497532e-001 
-2.110975e-001 
-2.831657e-001 
-3.662979e-001 
-4.594396e-001 
-5.572677e-001 
-6.547980e-001 
-7.513263e-001 
-8.502613e-001 
-9.523243e-001 
-1.055039e+000 
-1.152760e+000 
-1.240696e+000 
-1.314564e+000 
-1.374206e+000 
-1.421766e+000 
-1.459384e+000 
-1.488984e+000 
-1.503052e+000 
-1.498523e+000 
-1.477102e+000 
-1.442017e+000 
-1.395970e+000 
-1.344361e+000 
-1.288585e+000 
-1.229317e+000 
-1.165975e+000 
-1.096218e+000 
-1.021537e+000 
-9.412158e-001 
-8.561077e-001 
-7.674970e-001 
-6.793532e-001 
-5.894081e-001 
-4.977490e-001 
-4.059308e-001 
-3.146309e-001 
-2.236587e-001 
-1.355533e-001 
-5.218376e-002 
2.533182e-002 
9.909514e-002 
1.705659e-001 
2.350124e-001 
2.909594e-001 
3.390526e-001 
3.807095e-001 
4.167473e-001 
4.474772e-001 
4.750420e-001 
4.994652e-001 
5.150786e-001 
5.235172e-001 
5.309046e-001 
5.390001e-001 
5.465893e-001 
5.527210e-001 
5.589011e-001 
5.676048e-001 
5.763405e-001 
5.843304e-001 
5.945419e-001 
6.047181e-001 
6.085359e-001 
6.075328e-001 
6.073848e-001 
6.099540e-001 
6.155426e-001 
6.214247e-001 
6.249722e-001 
6.277933e-001 
6.279322e-001 
6.262359e-001 
6.263476e-001 
6.278968e-001 
6.301910e-001 
6.328749e-001 
6.344999e-001 
6.359860e-001 
6.389811e-001 
6.418473e-001 
6.453913e-001 
6.500566e-001 
6.600102e-001 
6.728294e-001 
6.855599e-001 
6.966436e-001 
7.045518e-001 
7.105666e-001 
7.151678e-001 
7.190848e-001 
7.255746e-001 
7.336548e-001 
7.385865e-001 
7.418616e-001 
7.444369e-001 
7.476602e-001 
7.506605e-001 
7.504000e-001 
7.459254e-001 
7.388335e-001 
7.299977e-001 
7.198122e-001 
7.071017e-001 
6.918949e-001 
6.736764e-001 
6.521677e-001 
6.263735e-001 
5.972984e-001 
5.688313e-001 
5.393678e-001 
5.055907e-001 
4.688823e-001 
4.325533e-001 
3.976991e-001 
3.629529e-001 
3.264258e-001 
2.906123e-001 
2.571841e-001 
2.256768e-001 
1.972009e-001 
1.712088e-001 
1.474586e-001 
1.249583e-001 
1.022995e-001 
8.190935e-002 
6.510140e-002 
5.248951e-002 
4.373713e-002 
3.502523e-002 
2.686946e-002 
2.180992e-002 
1.710446e-002 
1.301929e-002 
9.078035e-003 
4.871547e-003 
1.664396e-003 
-1.020933e-003 
-2.649195e-003 
-2.254752e-003 
-1.714451e-003 
-2.885629e-003 
-4.921974e-003 
-7.286940e-003 
-9.294994e-003 
-1.276827e-002 
-1.755286e-002 
-2.274140e-002 
-2.739842e-002 
-2.991235e-002 
-3.390124e-002 
-3.788994e-002 
-4.229854e-002 
-4.804890e-002 
-5.286112e-002 
-5.422515e-002 
-5.190275e-002 
-4.827944e-002 
-4.757825e-002 
-5.030883e-002 
-5.122283e-002 
-5.133978e-002 
-4.770707e-002 
-4.158958e-002 
-3.514877e-002 
-3.099327e-002 
-2.978743e-002 
-2.790518e-002 
-2.364545e-002 
-1.861401e-002 
-1.516164e-002 
-1.369137e-002 
-1.372181e-002 
-1.257405e-002 
-1.005273e-002 
-5.348996e-003 
-7.005053e-004 
1.230129e-003 
5.210361e-004 
-1.001469e-003 
-1.603843e-003 
-4.734547e-005 
3.023166e-003 
4.939521e-003 
5.218165e-003 
4.567835e-003 
3.630282e-003 
3.389288e-003 
4.048701e-003 
3.866462e-003 
3.963090e-003 
3.905768e-003 
3.088384e-003 
2.458678e-003 
-2.697252e-004 
-4.454112e-003 
-7.085258e-003 
-7.955767e-003 
-8.122023e-003 
-7.701563e-003 
-8.638716e-003 
-1.043308e-002 
-1.281867e-002 
-1.565248e-002 
-1.557836e-002 
-1.312226e-002 
-1.237495e-002 
-1.513049e-002 
-1.846835e-002 
-2.079222e-002 
-1.992601e-002 
-1.781351e-002 
-1.718509e-002 
-1.683244e-002 
-1.721162e-002 
-1.774880e-002 
-1.627317e-002 
-1.404847e-002 
-1.268471e-002 
-1.084752e-002 
-1.134585e-002 
-1.113211e-002 
-7.210317e-003 
-2.019153e-003 
3.526803e-003 
7.852361e-003 
9.938137e-003 
1.355254e-002 
1.928891e-002 
2.523776e-002 
3.320269e-002 
3.990186e-002 
4.401178e-002 
4.812249e-002 
5.326383e-002 
5.791307e-002 
6.221847e-002 
6.347326e-002 
6.235355e-002 
6.194866e-002 
6.061732e-002 
5.902247e-002 
5.659553e-002 
5.214493e-002 
4.480061e-002 
3.569855e-002 
2.662465e-002 
2.038973e-002 
1.428908e-002 
5.544564e-003 
-6.479917e-003 
-2.053540e-002 
-3.411322e-002 
-4.743527e-002 
-5.896652e-002 
-6.796172e-002 
-7.620954e-002 
-8.391882e-002 
-9.170181e-002 
-9.931976e-002 
-1.052780e-001 
-1.106670e-001 
-1.130461e-001 
-1.129704e-001 
-1.112187e-001 
-1.072326e-001 
-1.030750e-001 
-1.001361e-001 
-9.416096e-002 
-8.694317e-002 
-7.854840e-002 
-6.744993e-002 
-5.779243e-002 
-4.830686e-002 
-3.965146e-002 
-3.256831e-002 
-2.504856e-002 
-1.599953e-002 
-1.015579e-002 
-5.859924e-003 
-1.416759e-003 
2.269128e-003 
5.899378e-003 
9.438510e-003 
1.152154e-002 
1.240533e-002 
1.250744e-002 
1.219653e-002 
1.404567e-002 
1.641050e-002 
1.730092e-002 
1.769681e-002 
1.728284e-002 
1.560944e-002 
1.435578e-002 
1.307917e-002 
1.293397e-002 
1.204721e-002 
1.018433e-002 
9.927520e-003 
1.057309e-002 
1.004312e-002 
8.296646e-003 
4.714365e-003 
6.378258e-004 
-2.195937e-003 
-8.045905e-003 
-2.066777e-002 
-4.389894e-002 
-8.183182e-002 
-1.339998e-001 
-1.988757e-001 
-2.748703e-001 
-3.593407e-001 
-4.524217e-001 
-5.553575e-001 
-6.634045e-001 
-7.739200e-001 
-8.862970e-001 
-9.986265e-001 
-1.110146e+000 
-1.216997e+000 
-1.314468e+000 
-1.399619e+000 
-1.470167e+000 
-1.525762e+000 
-1.570422e+000 
-1.604397e+000 
-1.623035e+000 
-1.622643e+000 
-1.601106e+000 
-1.560461e+000 
-1.506449e+000 
-1.444143e+000 
-1.377177e+000 
-1.307252e+000 
-1.232547e+000 
-1.150413e+000 
-1.062878e+000 
-9.707863e-001 
-8.738567e-001 
-7.731227e-001 
-6.699016e-001 
-5.666747e-001 
-4.657060e-001 
-3.676562e-001 
-2.712052e-001 
-1.755382e-001 
-7.908086e-002 
1.405884e-002 
1.000534e-001 
1.763494e-001 
2.433581e-001 
3.036134e-001 
3.576136e-001 
4.067186e-001 
4.502001e-001 
4.851919e-001 
5.111328e-001 
5.321740e-001 
5.485156e-001 
5.628909e-001 
5.732094e-001 
5.789605e-001 
5.835462e-001 
5.872098e-001 
5.903499e-001 
5.950427e-001 
6.001444e-001 
6.034966e-001 
6.066613e-001 
6.079194e-001 
6.120767e-001 
6.183986e-001 
6.233116e-001 
6.276758e-001 
6.331784e-001 
6.384952e-001 
6.448171e-001 
6.526584e-001 
6.599000e-001 
6.675644e-001 
6.740001e-001 
6.804938e-001 
6.894330e-001 
6.996075e-001 
7.077007e-001 
7.158170e-001 
7.233311e-001 
7.305110e-001 
7.397968e-001 
7.495589e-001 
7.574702e-001 
7.642010e-001 
7.687804e-001 
7.746051e-001 
7.820295e-001 
7.875096e-001 
7.926412e-001 
7.954188e-001 
7.947107e-001 
7.930316e-001 
7.925111e-001 
7.910893e-001 
7.887530e-001 
7.795704e-001 
7.672192e-001 
7.557828e-001 
7.411708e-001 
7.240526e-001 
7.059082e-001 
6.839012e-001 
6.565944e-001 
6.265938e-001 
5.943835e-001 
5.647271e-001 
5.325347e-001 
4.950431e-001 
4.571066e-001 
4.207786e-001 
3.843385e-001 
3.488505e-001 
3.146026e-001 
2.804420e-001 
2.472614e-001 
2.148643e-001 
1.866734e-001 
1.620627e-001 
1.389086e-001 
1.164548e-001 
9.568384e-002 
7.798063e-002 
6.404733e-002 
5.328166e-002 
4.423261e-002 
3.526112e-002 
2.572980e-002 
1.865228e-002 
1.416989e-002 
1.023884e-002 
7.452933e-003 
3.931878e-003 
-9.780062e-004 
-4.789675e-003 
-6.657347e-003 
-7.281766e-003 
-5.714784e-003 
-6.339976e-003 
-7.948026e-003 
-7.104994e-003 
-6.972213e-003 
-6.655855e-003 
-4.645718e-003 
-3.745632e-003 
-3.503761e-003 
-2.146392e-003 
-1.570872e-003 
1.486957e-003 
3.509747e-003 
2.532996e-003 
2.431553e-003 
4.786029e-003 
7.693021e-003 
1.062473e-002 
1.244093e-002 
1.364736e-002 
1.459503e-002 
1.435213e-002 
1.631808e-002 
1.971195e-002 
2.174870e-002 
2.297068e-002 
2.405054e-002 
2.660954e-002 
3.133704e-002 
3.529143e-002 
3.838265e-002 
4.038236e-002 
3.989471e-002 
4.139329e-002 
4.635954e-002 
4.972350e-002 
5.293778e-002 
5.386371e-002 
5.374766e-002 
5.526825e-002 
5.805784e-002 
6.189164e-002 
6.520882e-002 
6.483091e-002 
6.233368e-002 
6.201952e-002 
6.170558e-002 
6.275825e-002 
6.349903e-002 
6.213869e-002 
5.851238e-002 
5.470172e-002 
5.437000e-002 
5.708125e-002 
5.865045e-002 
5.565765e-002 
5.130525e-002 
4.768034e-002 
4.504393e-002 
4.274350e-002 
4.174071e-002 
4.210053e-002 
4.068020e-002 
3.786568e-002 
3.572658e-002 
3.632286e-002 
3.678030e-002 
3.533729e-002 
3.288305e-002 
3.125699e-002 
3.120280e-002 
3.119272e-002 
3.038967e-002 
2.877139e-002 
2.649910e-002 
2.446626e-002 
2.486717e-002 
2.619181e-002 
2.773871e-002 
3.023667e-002 
3.142275e-002 
3.241705e-002 
3.612415e-002 
4.104023e-002 
4.638311e-002 
5.050526e-002 
5.315872e-002 
5.797811e-002 
6.481645e-002 
7.167457e-002 
7.895135e-002 
8.386213e-002 
8.616726e-002 
8.719797e-002 
8.770348e-002 
8.840711e-002 
8.815599e-002 
8.491995e-002 
7.895366e-002 
7.144771e-002 
6.254619e-002 
5.368373e-002 
4.411307e-002 
3.234846e-002 
1.902732e-002 
6.336671e-003 
-5.160000e-003 
-1.497365e-002 
-2.503120e-002 
-3.714739e-002 
-4.892325e-002 
-5.900921e-002 
-6.817850e-002 
-7.451621e-002 
-7.797301e-002 
-8.124454e-002 
-8.497208e-002 
-8.873086e-002 
-9.221384e-002 
-9.192250e-002 
-8.953885e-002 
-8.791185e-002 
-8.537878e-002 
-8.133582e-002 
-7.678356e-002 
-7.128488e-002 
-6.662890e-002 
-6.299511e-002 
-5.659669e-002 
-5.040478e-002 
-4.514403e-002 
-3.844828e-002 
-3.223095e-002 
-2.728082e-002 
-2.269803e-002 
-1.955636e-002 
-1.408392e-002 
-7.357389e-003 
-3.718956e-003 
-1.830635e-003 
-3.278663e-004 
1.467389e-003 
5.206087e-003 
7.435667e-003 
8.341931e-003 
9.685907e-003 
8.759023e-003 
7.828744e-003 
8.485261e-003 
9.727174e-003 
1.091021e-002 
9.865334e-003 
6.067279e-003 
5.290309e-003 
5.396227e-003 
5.201715e-003 
5.301392e-003 
1.961468e-003 
-3.091980e-003 
-6.375872e-003 
-7.976760e-003 
-9.674333e-003 
-1.465419e-002 
-2.874576e-002 
-5.223699e-002 
-8.753067e-002 
-1.356825e-001 
-1.944349e-001 
-2.650099e-001 
-3.488173e-001 
-4.457028e-001 
-5.491836e-001 
-6.544394e-001 
-7.626316e-001 
-8.752268e-001 
-9.896867e-001 
-1.102753e+000 
-1.209916e+000 
-1.307284e+000 
-1.394073e+000 
-1.465763e+000 
-1.526791e+000 
-1.578817e+000 
-1.616277e+000 
-1.636064e+000 
-1.635021e+000 
-1.614636e+000 
-1.578505e+000 
-1.529001e+000 
-1.468217e+000 
-1.401293e+000 
-1.327697e+000 
-1.248815e+000 
-1.165117e+000 
-1.076442e+000 
-9.832541e-001 
-8.825946e-001 
-7.774007e-001 
-6.722790e-001 
-5.693709e-001 
-4.688208e-001 
-3.694329e-001 
-2.701804e-001 
-1.731154e-001 
-7.786079e-002 
1.342667e-002 
9.581121e-002 
1.696490e-001 
2.363333e-001 
2.961210e-001 
3.493766e-001 
3.942444e-001 
4.319182e-001 
4.657216e-001 
4.946072e-001 
5.172107e-001 
5.336559e-001 
5.443479e-001 
5.517904e-001 
5.581738e-001 
5.658316e-001 
5.752966e-001 
5.843654e-001 
5.906159e-001 
5.945278e-001 
5.980513e-001 
6.020570e-001 
6.071903e-001 
6.132227e-001 
6.201404e-001 
6.254544e-001 
6.315276e-001 
6.383598e-001 
6.455263e-001 
6.532072e-001 
6.592429e-001 
6.665099e-001 
6.764625e-001 
6.869907e-001 
6.982328e-001 
7.094594e-001 
7.172232e-001 
7.257556e-001 
7.349706e-001 
7.441992e-001 
7.558324e-001 
7.653133e-001 
7.720054e-001 
7.785609e-001 
7.832576e-001 
7.886041e-001 
7.942920e-001 
7.959792e-001 
7.953822e-001 
7.937674e-001 
7.909827e-001 
7.887855e-001 
7.852640e-001 
7.779027e-001 
7.672216e-001 
7.509189e-001 
7.332453e-001 
7.168158e-001 
6.986029e-001 
6.761656e-001 
6.491846e-001 
6.197143e-001 
5.882997e-001 
5.556252e-001 
5.217144e-001 
4.889638e-001 
4.532787e-001 
4.132146e-001 
3.744622e-001 
3.395337e-001 
3.059927e-001 
2.709828e-001 
2.369524e-001 
2.044860e-001 
1.757596e-001 
1.493280e-001 
1.270648e-001 
1.089237e-001 
9.086890e-002 
7.273251e-002 
5.793484e-002 
4.770017e-002 
3.878890e-002 
3.070698e-002 
2.178123e-002 
1.422055e-002 
8.610543e-003 
4.640807e-003 
3.300446e-003 
2.702298e-003 
9.992603e-004 
-3.855462e-003 
-8.715835e-003 
-1.017894e-002 
-9.133132e-003 
-9.395197e-003 
-1.196044e-002 
-1.422139e-002 
-1.505452e-002 
-1.488383e-002 
-1.509615e-002 
-1.291513e-002 
-1.036677e-002 
-9.922363e-003 
-1.011559e-002 
-8.065266e-003 
-3.077308e-003 
9.213199e-004 
1.340753e-003 
6.142490e-004 
2.229831e-003 
5.181874e-003 
8.347586e-003 
1.121089e-002 
1.425119e-002 
1.708238e-002 
1.823327e-002 
1.993677e-002 
2.343769e-002 
2.744673e-002 
2.863972e-002 
2.839672e-002 
3.089015e-002 
3.490214e-002 
3.854124e-002 
4.110759e-002 
4.247766e-002 
4.343974e-002 
4.373895e-002 
4.446878e-002 
4.861162e-002 
5.199924e-002 
5.161425e-002 
5.101873e-002 
5.050368e-002 
5.132807e-002 
5.374215e-002 
5.497145e-002 
5.570457e-002 
5.430326e-002 
5.101159e-002 
5.113274e-002 
5.231897e-002 
5.137853e-002 
5.015161e-002 
4.664464e-002 
4.414025e-002 
4.368463e-002 
4.276222e-002 
4.353798e-002 
4.320837e-002 
3.866216e-002 
3.508665e-002 
3.243446e-002 
3.030037e-002 
2.965325e-002 
2.723950e-002 
2.376455e-002 
2.192628e-002 
1.977929e-002 
1.797925e-002 
1.786870e-002 
1.684699e-002 
1.643218e-002 
1.629630e-002 
1.698689e-002 
1.808759e-002 
1.902853e-002 
1.719498e-002 
1.366905e-002 
1.174345e-002 
1.285700e-002 
1.527167e-002 
1.628768e-002 
1.641727e-002 
1.626890e-002 
1.643972e-002 
1.612835e-002 
1.822691e-002 
2.356435e-002 
2.842867e-002 
3.021386e-002 
3.164873e-002 
3.665333e-002 
4.345684e-002 
4.873846e-002 
5.336200e-002 
5.948113e-002 
6.627275e-002 
7.132637e-002 
7.490725e-002 
7.656967e-002 
7.689041e-002 
7.450531e-002 
7.096211e-002 
6.791438e-002 
6.512823e-002 
5.959964e-002 
4.982748e-002 
3.752178e-002 
2.491981e-002 
1.468883e-002 
4.947603e-003 
-5.201474e-003 
-1.616749e-002 
-2.770116e-002 
-4.073582e-002 
-5.175958e-002 
-6.066168e-002 
-6.809682e-002 
-7.525290e-002 
-8.326825e-002 
-8.977515e-002 
-9.416294e-002 
-9.696708e-002 
-9.891153e-002 
-9.974206e-002 
-9.990384e-002 
-9.783245e-002 
-9.333057e-002 
-8.738926e-002 
-8.133825e-002 
-7.540422e-002 
-6.918640e-002 
-6.312750e-002 
-5.496114e-002 
-4.565167e-002 
-3.692621e-002 
-2.946347e-002 
-2.387695e-002 
-1.841313e-002 
-1.103069e-002 
-3.690350e-003 
2.278326e-003 
6.733368e-003 
8.249976e-003 
8.849673e-003 
9.624826e-003 
1.043895e-002 
1.099478e-002 
1.149761e-002 
1.130766e-002 
1.161286e-002 
1.266453e-002 
1.393028e-002 
1.445010e-002 
1.369815e-002 
1.229899e-002 
1.226832e-002 
1.385720e-002 
1.574871e-002 
1.717281e-002 
1.567498e-002 
1.319710e-002 
1.133087e-002 
9.630272e-003 
9.742270e-003 
1.084952e-002 
9.436917e-003 
7.315668e-003 
3.299189e-003 
-5.142194e-003 
-1.897713e-002 
-4.411242e-002 
-8.436996e-002 
-1.362821e-001 
-2.012444e-001 
-2.780734e-001 
-3.639535e-001 
-4.605327e-001 
-5.660454e-001 
-6.750626e-001 
-7.884459e-001 
-9.044953e-001 
-1.017451e+000 
-1.127169e+000 
-1.230913e+000 
-1.326692e+000 
-1.411832e+000 
-1.481146e+000 
-1.535083e+000 
-1.579945e+000 
-1.611306e+000 
-1.623771e+000 
-1.616771e+000 
-1.591445e+000 
-1.549984e+000 
-1.495352e+000 
-1.432047e+000 
-1.364131e+000 
-1.290747e+000 
-1.210482e+000 
-1.123505e+000 
-1.032810e+000 
-9.401857e-001 
-8.431508e-001 
-7.420088e-001 
-6.390367e-001 
-5.350521e-001 
-4.338375e-001 
-3.364526e-001 
-2.396620e-001 
-1.447189e-001 
-5.009467e-002 
4.240353e-002 
1.266509e-001 
2.001680e-001 
2.635009e-001 
3.202331e-001 
3.727762e-001 
4.196858e-001 
4.591694e-001 
4.918238e-001 
5.162722e-001 
5.338229e-001 
5.477784e-001 
5.599351e-001 
5.714697e-001 
5.793034e-001 
5.849553e-001 
5.902377e-001 
5.972247e-001 
6.041017e-001 
6.104227e-001 
6.152499e-001 
6.190481e-001 
6.238076e-001 
6.289721e-001 
6.351090e-001 
6.418077e-001 
6.487877e-001 
6.538703e-001 
6.589645e-001 
6.655792e-001 
6.752158e-001 
6.845811e-001 
6.913565e-001 
6.985795e-001 
7.072917e-001 
7.159127e-001 
7.239664e-001 
7.319977e-001 
7.405273e-001 
7.488944e-001 
7.547577e-001 
7.616726e-001 
7.696433e-001 
7.753186e-001 
7.776609e-001 
7.784107e-001 
7.785260e-001 
7.793581e-001 
7.786151e-001 
7.735939e-001 
7.668112e-001 
7.570157e-001 
7.452781e-001 
7.321783e-001 
7.163325e-001 
6.975023e-001 
6.761737e-001 
6.497781e-001 
6.206712e-001 
5.915309e-001 
5.600546e-001 
5.267734e-001 
4.903924e-001 
4.517445e-001 
4.154593e-001 
3.809846e-001 
3.446932e-001 
3.090630e-001 
2.729767e-001 
2.371362e-001 
2.068542e-001 
1.799276e-001 
1.557072e-001 
1.354554e-001 
1.132673e-001 
9.079949e-002 
7.454135e-002 
6.232276e-002 
5.402950e-002 
4.885751e-002 
4.174604e-002 
3.371930e-002 
2.710168e-002 
2.040872e-002 
1.824787e-002 
1.924022e-002 
1.639135e-002 
1.252660e-002 
1.059749e-002 
8.553675e-003 
7.164074e-003 
6.518478e-003 
5.278953e-003 
4.707670e-003 
2.449219e-003 
4.469979e-004 
2.646209e-003 
4.481856e-003 
3.717901e-003 
3.423301e-003 
3.954165e-003 
4.898085e-003 
6.639230e-003 
8.296807e-003 
1.104335e-002 
1.286809e-002 
1.319666e-002 
1.547966e-002 
1.936391e-002 
2.099776e-002 
2.123940e-002 
2.307366e-002 
2.504861e-002 
2.763983e-002 
3.062572e-002 
3.296072e-002 
3.472948e-002 
3.502731e-002 
3.427252e-002 
3.669248e-002 
3.961106e-002 
4.102707e-002 
4.298203e-002 
4.392932e-002 
4.440743e-002 
4.548379e-002 
4.683054e-002 
4.765838e-002 
4.726947e-002 
4.560135e-002 
4.587838e-002 
4.658929e-002 
4.698841e-002 
4.620783e-002 
4.420722e-002 
4.180394e-002 
3.935821e-002 
3.878341e-002 
3.937284e-002 
3.886221e-002 
3.566515e-002 
3.312518e-002 
3.041207e-002 
2.888321e-002 
2.857410e-002 
2.864609e-002 
2.701244e-002 
2.415708e-002 
2.194941e-002 
2.228400e-002 
2.428046e-002 
2.255567e-002 
2.013900e-002 
1.774718e-002 
1.509895e-002 
1.339956e-002 
1.328443e-002 
1.291492e-002 
1.228481e-002 
9.498296e-003 
6.747563e-003 
7.741057e-003 
9.160756e-003 
1.171331e-002 
1.415245e-002 
1.500732e-002 
1.835099e-002 
2.356736e-002 
2.902768e-002 
3.592284e-002 
4.047315e-002 
4.444405e-002 
5.013939e-002 
5.504041e-002 
6.100052e-002 
6.750594e-002 
6.923953e-002 
6.921369e-002 
6.690348e-002 
6.375784e-002 
6.312284e-002 
5.997765e-002 
5.360659e-002 
4.576319e-002 
3.569622e-002 
2.431714e-002 
1.388683e-002 
1.511012e-003 
-9.853600e-003 
-2.178463e-002 
-3.458499e-002 
-4.615450e-002 
-5.714224e-002 
-6.886296e-002 
-8.058413e-002 
-9.183318e-002 
-1.022838e-001 
-1.090287e-001 
-1.150220e-001 
-1.209065e-001 
-1.277780e-001 
-1.345757e-001 
-1.396456e-001 
-1.409969e-001 
-1.402140e-001 
-1.381904e-001 
-1.359577e-001 
-1.340852e-001 
-1.309362e-001 
-1.269539e-001 
-1.214311e-001 
-1.149891e-001 
-1.084772e-001 
-1.033201e-001 
-9.760257e-002 
-9.105695e-002 
-8.339144e-002 
-7.656840e-002 
-7.256481e-002 
-6.949351e-002 
-6.551547e-002 
-6.119547e-002 
-5.647019e-002 
-5.295702e-002 
-5.221902e-002 
-5.159608e-002 
-5.132652e-002 
-5.082485e-002 
-4.762923e-002 
-4.460246e-002 
-4.407491e-002 
-4.412167e-002 
-4.515806e-002 
-4.475552e-002 
-4.269693e-002 
-4.111072e-002 
-4.004936e-002 
-3.966308e-002 
-4.024855e-002 
-3.995205e-002 
-3.796216e-002 
-3.670836e-002 
-3.814567e-002 
-4.020202e-002 
-4.056779e-002 
-4.156815e-002 
-4.238490e-002 
-4.359576e-002 
-4.633634e-002 
-4.841463e-002 
-5.209705e-002 
-5.760384e-002 
-6.599802e-002 
-8.240529e-002 
-1.110794e-001 
-1.510406e-001 
-2.021169e-001 
-2.638635e-001 
-3.346563e-001 
-4.172127e-001 
-5.107334e-001 
-6.113779e-001 
-7.138681e-001 
-8.176638e-001 
-9.213960e-001 
-1.026540e+000 
-1.132084e+000 
-1.232400e+000 
-1.325881e+000 
-1.407058e+000 
-1.472556e+000 
-1.525508e+000 
-1.568741e+000 
-1.600839e+000 
-1.619311e+000 
-1.618930e+000 
-1.600668e+000 
-1.570277e+000 
-1.529488e+000 
-1.482937e+000 
-1.431136e+000 
-1.373746e+000 
-1.310069e+000 
-1.239861e+000 
-1.166230e+000 
-1.091139e+000 
-1.013371e+000 
-9.316244e-001 
-8.449145e-001 
-7.540316e-001 
-6.621127e-001 
-5.686042e-001 
-4.753236e-001 
-3.826101e-001 
-2.908967e-001 
-2.017471e-001 
-1.152595e-001 
-3.141139e-002 
4.622038e-002 
1.182396e-001 
1.847327e-001 
2.429267e-001 
2.934208e-001 
3.371056e-001 
3.761600e-001 
4.123623e-001 
4.431934e-001 
4.667783e-001 
4.845869e-001 
4.972195e-001 
5.063805e-001 
5.153817e-001 
5.242739e-001 
5.316779e-001 
5.379014e-001 
5.425504e-001 
5.461418e-001 
5.508329e-001 
5.577996e-001 
5.630004e-001 
5.667495e-001 
5.692286e-001 
5.714709e-001 
5.755940e-001 
5.806443e-001 
5.851372e-001 
5.896033e-001 
5.938080e-001 
5.966008e-001 
6.022840e-001 
6.091336e-001 
6.147348e-001 
6.210241e-001 
6.281237e-001 
6.343220e-001 
6.410853e-001 
6.493765e-001 
6.573560e-001 
6.656115e-001 
6.721567e-001 
6.791774e-001 
6.899922e-001 
6.999087e-001 
7.065253e-001 
7.132066e-001 
7.196702e-001 
7.256917e-001 
7.324210e-001 
7.388502e-001 
7.452157e-001 
7.488940e-001 
7.484541e-001 
7.486606e-001 
7.498566e-001 
7.493479e-001 
7.467489e-001 
7.405955e-001 
7.317417e-001 
7.217623e-001 
7.103123e-001 
6.974447e-001 
6.819213e-001 
6.614311e-001 
6.386123e-001 
6.136629e-001 
5.860974e-001 
5.584851e-001 
5.288997e-001 
4.951176e-001 
4.573677e-001 
4.188787e-001 
3.833875e-001 
3.499770e-001 
3.149959e-001 
2.787113e-001 
2.437169e-001 
2.101834e-001 
1.775876e-001 
1.468831e-001 
1.205349e-001 
9.631487e-002 
7.324078e-002 
5.168225e-002 
3.256444e-002 
1.807663e-002 
5.423106e-003 
-7.775830e-003 
-1.962822e-002 
-2.833881e-002 
-3.537238e-002 
-3.997946e-002 
-4.489372e-002 
-5.127280e-002 
-5.603134e-002 
-5.887727e-002 
-6.122782e-002 
-6.247809e-002 
-6.302331e-002 
-6.479802e-002 
-6.561104e-002 
-6.663600e-002 
-6.686302e-002 
-6.367987e-002 
-6.174811e-002 
-6.278869e-002 
-6.344163e-002 
-6.330448e-002 
-6.167783e-002 
-5.816864e-002 
-5.585072e-002 
-5.482209e-002 
-5.472897e-002 
-5.502650e-002 
-5.276583e-002 
-4.960086e-002 
-4.682238e-002 
-4.559480e-002 
-4.462199e-002 
-4.382446e-002 
-4.298265e-002 
-4.029571e-002 
-3.650341e-002 
-3.386673e-002 
-3.291371e-002 
-3.092086e-002 
-2.860975e-002 
-2.430754e-002 
-2.162242e-002 
-2.020573e-002 
-1.795672e-002 
-1.582619e-002 
-1.375199e-002 
-1.134548e-002 
-8.764609e-003 
-8.196896e-003 
-7.263592e-003 
-6.708023e-003 
-4.424607e-003 
-3.296162e-004 
1.420561e-003 
5.451784e-004 
-5.455275e-004 
-1.069334e-003 
-7.804956e-004 
1.630190e-003 
1.935904e-003 
2.210514e-003 
2.100559e-003 
1.142455e-004 
4.412553e-004 
1.946530e-003 
2.573207e-003 
1.805528e-003 
-6.523279e-004 
-3.026722e-003 
-1.574631e-003 
2.601749e-004 
4.622157e-004 
-3.560056e-004 
-2.361707e-003 
-3.467355e-003 
-4.353260e-003 
-4.709149e-003 
-3.877175e-003 
-3.951155e-003 
-6.291749e-003 
-1.036593e-002 
-1.253898e-002 
-1.246432e-002 
-1.264414e-002 
-1.455808e-002 
-1.733890e-002 
-1.849645e-002 
-1.904367e-002 
-2.006501e-002 
-2.164244e-002 
-2.273183e-002 
-2.409094e-002 
-2.468769e-002 
-2.419987e-002 
-2.146066e-002 
-1.762797e-002 
-1.573609e-002 
-1.363577e-002 
-1.062055e-002 
-6.429596e-003 
-5.761512e-004 
5.124934e-003 
9.244048e-003 
1.307803e-002 
1.666057e-002 
2.193307e-002 
2.949064e-002 
3.479900e-002 
3.831538e-002 
4.258774e-002 
4.453750e-002 
4.550339e-002 
4.606794e-002 
4.470239e-002 
4.152212e-002 
3.559521e-002 
2.832267e-002 
2.318165e-002 
1.802479e-002 
9.376815e-003 
2.276371e-004 
-9.408264e-003 
-1.891454e-002 
-2.856904e-002 
-3.805498e-002 
-4.692590e-002 
-5.774808e-002 
-6.990692e-002 
-8.011818e-002 
-8.722208e-002 
-9.259021e-002 
-9.841948e-002 
-1.056734e-001 
-1.105302e-001 
-1.133261e-001 
-1.153862e-001 
-1.155625e-001 
-1.149334e-001 
-1.145359e-001 
-1.138998e-001 
-1.126146e-001 
-1.073904e-001 
-9.925226e-002 
-9.217954e-002 
-8.672602e-002 
-8.111783e-002 
-7.473124e-002 
-6.651644e-002 
-5.717388e-002 
-4.902068e-002 
-4.229832e-002 
-3.727974e-002 
-3.164242e-002 
-2.541154e-002 
-1.890010e-002 
-1.303243e-002 
-8.293999e-003 
-6.369237e-003 
-5.759536e-003 
-3.940863e-003 
-1.027094e-003 
7.740019e-004 
3.875883e-004 
-1.946489e-004 
-4.999101e-004 
5.792478e-004 
2.699743e-003 
4.276519e-003 
4.218328e-003 
2.755341e-003 
2.136876e-003 
3.588785e-003 
4.455380e-003 
4.731906e-003 
5.443159e-003 
4.838986e-003 
2.943569e-003 
2.959724e-003 
5.145324e-003 
7.237204e-003 
7.244409e-003 
4.858960e-003 
3.693518e-003 
4.653305e-003 
4.922009e-003 
2.925179e-003 
-2.846753e-003 
-1.648953e-002 
-3.834409e-002 
-7.016783e-002 
-1.139551e-001 
-1.694756e-001 
-2.369754e-001 
-3.178632e-001 
-4.095398e-001 
-5.084248e-001 
-6.120721e-001 
-7.185460e-001 
-8.294366e-001 
-9.426242e-001 
-1.054608e+000 
-1.162043e+000 
-1.263928e+000 
-1.355446e+000 
-1.434829e+000 
-1.501305e+000 
-1.554084e+000 
-1.593490e+000 
-1.619108e+000 
-1.628788e+000 
-1.622447e+000 
-1.601586e+000 
-1.565310e+000 
-1.518914e+000 
-1.465690e+000 
-1.408430e+000 
-1.348696e+000 
-1.284952e+000 
-1.214767e+000 
-1.140111e+000 
-1.061102e+000 
-9.795352e-001 
-8.977900e-001 
-8.128709e-001 
-7.240716e-001 
-6.313472e-001 
-5.362368e-001 
-4.413181e-001 
-3.486912e-001 
-2.567223e-001 
-1.665259e-001 
-7.733708e-002 
9.077281e-003 
8.897863e-002 
1.611976e-001 
2.258868e-001 
2.850348e-001 
3.396123e-001 
3.894685e-001 
4.329630e-001 
4.685795e-001 
4.969022e-001 
5.203456e-001 
5.401260e-001 
5.569832e-001 
5.697576e-001 
5.778882e-001 
5.833292e-001 
5.886300e-001 
5.943381e-001 
6.016500e-001 
6.087695e-001 
6.144936e-001 
6.173781e-001 
6.195905e-001 
6.234760e-001 
6.283827e-001 
6.328503e-001 
6.360256e-001 
6.385378e-001 
6.415126e-001 
6.463253e-001 
6.512790e-001 
6.568382e-001 
6.622020e-001 
6.654845e-001 
6.689953e-001 
6.746996e-001 
6.811459e-001 
6.878933e-001 
6.939964e-001 
6.979420e-001 
7.036632e-001 
7.115015e-001 
7.185291e-001 
7.263621e-001 
7.330326e-001 
7.383688e-001 
7.436776e-001 
7.500010e-001 
7.571501e-001 
7.641232e-001 
7.677994e-001 
7.697778e-001 
7.720837e-001 
7.746858e-001 
7.782123e-001 
7.806910e-001 
7.820099e-001 
7.799862e-001 
7.760070e-001 
7.722229e-001 
7.679858e-001 
7.616309e-001 
7.527526e-001 
7.410201e-001 
7.269148e-001 
7.115244e-001 
6.933558e-001 
6.738843e-001 
6.514956e-001 
6.248498e-001 
5.968465e-001 
5.680653e-001 
5.378861e-001 
5.053793e-001 
4.703195e-001 
4.333313e-001 
3.974340e-001 
3.620696e-001 
3.272877e-001 
2.938483e-001 
2.599758e-001 
2.256496e-001 
1.936428e-001 
1.666167e-001 
1.421437e-001 
1.197618e-001 
9.867706e-002 
7.831460e-002 
6.011175e-002 
4.380601e-002 
3.096064e-002 
2.232808e-002 
1.463400e-002 
4.897838e-003 
-2.548048e-003 
-6.546430e-003 
-1.023634e-002 
-1.339035e-002 
-1.647048e-002 
-1.825341e-002 
-1.961536e-002 
-2.172621e-002 
-2.355728e-002 
-2.387027e-002 
-2.496099e-002 
-2.834287e-002 
-2.990604e-002 
-2.877771e-002 
-2.622415e-002 
-2.527038e-002 
-2.554997e-002 
-2.652042e-002 
-2.634752e-002 
-2.503598e-002 
-2.320352e-002 
-2.092077e-002 
-1.961068e-002 
-1.897532e-002 
-1.953037e-002 
-1.810209e-002 
-1.479801e-002 
-1.058158e-002 
-8.361241e-003 
-7.632353e-003 
-7.018480e-003 
-4.537054e-003 
-1.302099e-003 
1.638775e-003 
4.072527e-003 
5.439895e-003 
7.431299e-003 
9.191748e-003 
1.193527e-002 
1.541883e-002 
1.830189e-002 
2.011497e-002 
2.137818e-002 
2.319982e-002 
2.771404e-002 
3.220206e-002 
3.323835e-002 
3.504174e-002 
3.726523e-002 
3.876699e-002 
4.115210e-002 
4.248804e-002 
4.281914e-002 
4.268874e-002 
4.199649e-002 
4.263922e-002 
4.456059e-002 
4.359949e-002 
4.206149e-002 
4.032534e-002 
3.689823e-002 
3.479239e-002 
3.476292e-002 
3.376437e-002 
3.066487e-002 
2.557509e-002 
2.120118e-002 
2.034265e-002 
1.950728e-002 
1.771538e-002 
1.690171e-002 
1.501725e-002 
1.191379e-002 
1.095143e-002 
1.119298e-002 
1.113008e-002 
1.044550e-002 
8.029883e-003 
6.216117e-003 
6.141097e-003 
6.702561e-003 
7.667751e-003 
8.159088e-003 
6.123679e-003 
3.583585e-003 
4.110255e-003 
5.231699e-003 
4.943495e-003 
3.455187e-003 
2.929283e-003 
3.010596e-003 
4.083374e-003 
6.378767e-003 
1.037331e-002 
1.507620e-002 
1.718431e-002 
1.944353e-002 
2.458716e-002 
3.189011e-002 
3.805086e-002 
4.324634e-002 
4.794836e-002 
5.307371e-002 
5.835866e-002 
6.321784e-002 
6.723028e-002 
6.896805e-002 
6.925014e-002 
6.717117e-002 
6.503157e-002 
6.289509e-002 
5.815588e-002 
5.032994e-002 
4.101365e-002 
2.962225e-002 
1.916326e-002 
9.983607e-003 
-9.500016e-004 
-1.195787e-002 
-2.435768e-002 
-3.728946e-002 
-4.752915e-002 
-5.679784e-002 
-6.754676e-002 
-7.723776e-002 
-8.626269e-002 
-9.318026e-002 
-9.685635e-002 
-9.894065e-002 
-1.001846e-001 
-1.025986e-001 
-1.055539e-001 
-1.063133e-001 
-1.026948e-001 
-9.600770e-002 
-8.862277e-002 
-8.349008e-002 
-8.050260e-002 
-7.796672e-002 
-7.370826e-002 
-6.569573e-002 
-5.647404e-002 
-4.843785e-002 
-4.221840e-002 
-3.795614e-002 
-3.482606e-002 
-3.012699e-002 
-2.522204e-002 
-2.091658e-002 
-1.642018e-002 
-1.366661e-002 
-1.135139e-002 
-7.881166e-003 
-6.261212e-003 
-5.006165e-003 
-4.047319e-003 
-3.815012e-003 
-8.101017e-004 
2.794597e-003 
4.053243e-003 
5.146543e-003 
5.868690e-003 
5.026678e-003 
5.443141e-003 
6.724703e-003 
9.092925e-003 
9.342174e-003 
6.547134e-003 
3.783176e-003 
3.248998e-003 
3.650509e-003 
1.871658e-003 
-6.854310e-004 
-2.881206e-003 
-5.831638e-003 
-8.531756e-003 
-9.323811e-003 
-1.248637e-002 
-2.123815e-002 
-3.836792e-002 
-6.545199e-002 
-1.011043e-001 
-1.472657e-001 
-2.051534e-001 
-2.735398e-001 
-3.537824e-001 
-4.449506e-001 
-5.431326e-001 
-6.455172e-001 
-7.507787e-001 
-8.598420e-001 
-9.711565e-001 
-1.079871e+000 
-1.183615e+000 
-1.281092e+000 
-1.369477e+000 
-1.446779e+000 
-1.510976e+000 
-1.561076e+000 
-1.597435e+000 
-1.618506e+000 
-1.622992e+000 
-1.612338e+000 
-1.589105e+000 
-1.552822e+000 
-1.505064e+000 
-1.448701e+000 
-1.385889e+000 
-1.320755e+000 
-1.251713e+000 
-1.175867e+000 
-1.094810e+000 
-1.009101e+000 
-9.179250e-001 
-8.254958e-001 
-7.317007e-001 
-6.361899e-001 
-5.397645e-001 
-4.415503e-001 
-3.447657e-001 
-2.511405e-001 
-1.588609e-001 
-6.969916e-002 
1.380889e-002 
9.289834e-002 
1.659639e-001 
2.310450e-001 
2.877236e-001 
3.383057e-001 
3.855847e-001 
4.286378e-001 
4.629892e-001 
4.890844e-001 
5.107043e-001 
5.282047e-001 
5.409940e-001 
5.527008e-001 
5.640387e-001 
5.735618e-001 
5.800568e-001 
5.852591e-001 
5.919528e-001 
6.008424e-001 
6.077480e-001 
6.120900e-001 
6.169451e-001 
6.212245e-001 
6.249606e-001 
6.293421e-001 
6.345418e-001 
6.384414e-001 
6.417674e-001 
6.439287e-001 
6.478030e-001 
6.536567e-001 
6.589241e-001 
6.628468e-001 
6.669046e-001 
6.712084e-001 
6.754848e-001 
6.811573e-001 
6.862227e-001 
6.913311e-001 
6.971610e-001 
7.031234e-001 
7.095716e-001 
7.169501e-001 
7.239350e-001 
7.297411e-001 
7.350576e-001 
7.411202e-001 
7.491660e-001 
7.568217e-001 
7.620290e-001 
7.660723e-001 
7.694639e-001 
7.726181e-001 
7.759464e-001 
7.802558e-001 
7.839997e-001 
7.832766e-001 
7.790454e-001 
7.749194e-001 
7.718104e-001 
7.667018e-001 
7.589245e-001 
7.491804e-001 
7.365533e-001 
7.196813e-001 
7.011371e-001 
6.828807e-001 
6.633831e-001 
6.395721e-001 
6.096850e-001 
5.782927e-001 
5.478090e-001 
5.151198e-001 
4.816604e-001 
4.480005e-001 
4.124207e-001 
3.760949e-001 
3.394156e-001 
3.037241e-001 
2.720054e-001 
2.414572e-001 
2.103587e-001 
1.821248e-001 
1.561339e-001 
1.322856e-001 
1.111869e-001 
9.186124e-002 
7.570393e-002 
6.248347e-002 
5.056566e-002 
3.998176e-002 
3.097098e-002 
2.342775e-002 
1.756572e-002 
1.350228e-002 
1.062729e-002 
8.517145e-003 
5.304086e-003 
1.161456e-003 
-3.385349e-003 
-4.658946e-003 
-2.672160e-003 
-5.260312e-004 
-1.139012e-003 
-3.421646e-003 
-6.408179e-003 
-9.601874e-003 
-9.887730e-003 
-6.926720e-003 
-2.503707e-003 
-1.781712e-003 
-4.872953e-003 
-7.440509e-003 
-7.544952e-003 
-7.344335e-003 
-5.889957e-003 
-1.793375e-003 
1.013696e-003 
1.109925e-003 
6.816319e-004 
3.636279e-003 
7.699693e-003 
1.052853e-002 
1.296531e-002 
1.693520e-002 
2.215636e-002 
2.575415e-002 
2.797645e-002 
2.981448e-002 
3.231039e-002 
3.367951e-002 
3.676304e-002 
4.070820e-002 
4.418840e-002 
4.680930e-002 
4.671326e-002 
4.639969e-002 
4.852949e-002 
5.186211e-002 
5.462130e-002 
5.674999e-002 
5.710689e-002 
5.887607e-002 
6.067720e-002 
6.214882e-002 
6.461369e-002 
6.457965e-002 
6.406802e-002 
6.416289e-002 
6.360068e-002 
6.464991e-002 
6.573379e-002 
6.316991e-002 
6.102035e-002 
5.853400e-002 
5.617101e-002 
5.693863e-002 
5.530840e-002 
5.220453e-002 
4.971433e-002 
4.702461e-002 
4.656699e-002 
4.769396e-002 
4.718297e-002 
4.487189e-002 
4.113092e-002 
3.760661e-002 
3.754127e-002 
3.917262e-002 
4.062613e-002 
3.985812e-002 
3.694451e-002 
3.359560e-002 
3.112967e-002 
3.116589e-002 
3.300492e-002 
3.388872e-002 
3.226013e-002 
3.014486e-002 
2.965479e-002 
3.175739e-002 
3.485885e-002 
3.826061e-002 
4.210073e-002 
4.719746e-002 
5.257619e-002 
5.812543e-002 
6.342826e-002 
6.807023e-002 
7.241830e-002 
7.660160e-002 
8.093495e-002 
8.714254e-002 
9.205681e-002 
9.201478e-002 
8.957450e-002 
8.671725e-002 
8.580826e-002 
8.573328e-002 
8.165903e-002 
7.414176e-002 
6.423249e-002 
5.078215e-002 
3.800271e-002 
2.635209e-002 
1.536068e-002 
4.678493e-003 
-8.163902e-003 
-2.281106e-002 
-3.458978e-002 
-4.505438e-002 
-5.476113e-002 
-6.491535e-002 
-7.509951e-002 
-8.173448e-002 
-8.759070e-002 
-9.275733e-002 
-9.605360e-002 
-9.877552e-002 
-1.018647e-001 
-1.030909e-001 
-1.012623e-001 
-9.590786e-002 
-9.122019e-002 
-8.792589e-002 
-8.407943e-002 
-8.035564e-002 
-7.506269e-002 
-6.838478e-002 
-6.111662e-002 
-5.530431e-002 
-5.220354e-002 
-4.810123e-002 
-4.152666e-002 
-3.532376e-002 
-2.928061e-002 
-2.503760e-002 
-2.361461e-002 
-2.220506e-002 
-2.064321e-002 
-1.763177e-002 
-1.400386e-002 
-1.359783e-002 
-1.485687e-002 
-1.556937e-002 
-1.648165e-002 
-1.471455e-002 
-1.324607e-002 
-1.413749e-002 
-1.605528e-002 
-1.846109e-002 
-2.033043e-002 
-2.061521e-002 
-2.152600e-002 
-2.455882e-002 
-3.118710e-002 
-4.541027e-002 
-6.670761e-002 
-9.637402e-002 
-1.394749e-001 
-1.970487e-001 
-2.672118e-001 
-3.489563e-001 
-4.370225e-001 
-5.311124e-001 
-6.292425e-001 
-7.296596e-001 
-8.350120e-001 
-9.439222e-001 
-1.049106e+000 
-1.147823e+000 
-1.238326e+000 
-1.319313e+000 
-1.390381e+000 
-1.447615e+000 
-1.493431e+000 
-1.527998e+000 
-1.547499e+000 
-1.548589e+000 
-1.533171e+000 
-1.502479e+000 
-1.457834e+000 
-1.402450e+000 
-1.341919e+000 
-1.280078e+000 
-1.214647e+000 
-1.143901e+000 
-1.066420e+000 
-9.838988e-001 
-8.979239e-001 
-8.093089e-001 
-7.198973e-001 
-6.299472e-001 
-5.376868e-001 
-4.446437e-001 
-3.526078e-001 
-2.618769e-001 
-1.745135e-001 
-9.060292e-002 
-7.583572e-003 
7.036153e-002 
1.406161e-001 
2.040694e-001 
2.599505e-001 
3.096309e-001 
3.543196e-001 
3.944274e-001 
4.307197e-001 
4.602425e-001 
4.800695e-001 
4.959197e-001 
5.103327e-001 
5.219733e-001 
5.307775e-001 
5.384401e-001 
5.455361e-001 
5.507925e-001 
5.545165e-001 
5.591677e-001 
5.645126e-001 
5.676017e-001 
5.692793e-001 
5.717340e-001 
5.752699e-001 
5.795210e-001 
5.833434e-001 
5.854847e-001 
5.875123e-001 
5.903712e-001 
5.956744e-001 
6.024336e-001 
6.076641e-001 
6.117479e-001 
6.161920e-001 
6.199328e-001 
6.245067e-001 
6.331163e-001 
6.424547e-001 
6.497375e-001 
6.544055e-001 
6.599121e-001 
6.675827e-001 
6.759127e-001 
6.831359e-001 
6.908054e-001 
6.979360e-001 
7.031543e-001 
7.088477e-001 
7.151632e-001 
7.212352e-001 
7.250004e-001 
7.263660e-001 
7.284681e-001 
7.315817e-001 
7.340468e-001 
7.358766e-001 
7.343644e-001 
7.287470e-001 
7.213898e-001 
7.128770e-001 
7.036920e-001 
6.935298e-001 
6.793298e-001 
6.618557e-001 
6.406334e-001 
6.175947e-001 
5.931836e-001 
5.667281e-001 
5.381094e-001 
5.074970e-001 
4.752322e-001 
4.422366e-001 
4.083377e-001 
3.743598e-001 
3.405415e-001 
3.050067e-001 
2.723929e-001 
2.439205e-001 
2.171688e-001 
1.908890e-001 
1.645931e-001 
1.392711e-001 
1.169660e-001 
9.717574e-002 
8.115196e-002 
6.847029e-002 
5.623891e-002 
4.348938e-002 
3.246271e-002 
2.393262e-002 
1.800133e-002 
1.366514e-002 
9.017712e-003 
5.412873e-003 
2.416183e-003 
2.604686e-005 
-2.019919e-003 
-4.270867e-003 
-6.588614e-003 
-7.858315e-003 
-9.787303e-003 
-1.032824e-002 
-8.440490e-003 
-9.113799e-003 
-1.135860e-002 
-1.503932e-002 
-1.722592e-002 
-1.590951e-002 
-1.556413e-002 
-1.760386e-002 
-1.915021e-002 
-2.199895e-002 
-2.547204e-002 
-2.599022e-002 
-2.469528e-002 
-2.175011e-002 
-2.116026e-002 
-2.373621e-002 
-2.533324e-002 
-2.385779e-002 
-2.037282e-002 
-1.661190e-002 
-1.407777e-002 
-1.305401e-002 
-1.242780e-002 
-1.138192e-002 
-8.792488e-003 
-5.633314e-003 
-2.629785e-003 
-1.268806e-003 
-1.105455e-003 
-3.930445e-004 
1.158746e-003 
3.641830e-003 
4.022424e-003 
2.662162e-003 
1.309650e-003 
4.776150e-004 
4.274463e-004 
-2.603268e-004 
-1.986058e-003 
-3.240067e-003 
-4.683767e-003 
-7.145984e-003 
-8.042574e-003 
-9.005453e-003 
-1.075644e-002 
-1.338106e-002 
-1.579186e-002 
-1.564736e-002 
-1.618284e-002 
-1.791270e-002 
-2.010044e-002 
-2.279306e-002 
-2.576692e-002 
-2.677859e-002 
-2.582993e-002 
-2.498343e-002 
-2.697212e-002 
-3.181841e-002 
-3.353598e-002 
-3.426456e-002 
-3.459054e-002 
-3.454243e-002 
-3.456143e-002 
-3.609561e-002 
-3.929458e-002 
-4.117522e-002 
-4.022994e-002 
-3.817747e-002 
-3.926878e-002 
-4.060151e-002 
-4.123142e-002 
-4.092796e-002 
-4.005339e-002 
-3.884659e-002 
-3.778772e-002 
-3.730192e-002 
-3.694115e-002 
-3.463500e-002 
-2.954491e-002 
-2.518876e-002 
-2.157389e-002 
-1.857160e-002 
-1.551067e-002 
-1.131202e-002 
-6.200494e-003 
4.352620e-005 
5.142910e-003 
7.301085e-003 
1.007894e-002 
1.356940e-002 
1.547726e-002 
1.597324e-002 
1.435233e-002 
1.140391e-002 
7.091477e-003 
3.881218e-005 
-6.287866e-003 
-1.258226e-002 
-2.372459e-002 
-3.658332e-002 
-4.808833e-002 
-5.854500e-002 
-6.786724e-002 
-7.891583e-002 
-9.170918e-002 
-1.037386e-001 
-1.159894e-001 
-1.269153e-001 
-1.336054e-001 
-1.396776e-001 
-1.478889e-001 
-1.550574e-001 
-1.621586e-001 
-1.661963e-001 
-1.664258e-001 
-1.664622e-001 
-1.659248e-001 
-1.637858e-001 
-1.625007e-001 
-1.600093e-001 
-1.548472e-001 
-1.508083e-001 
-1.465430e-001 
-1.434414e-001 
-1.403250e-001 
-1.350971e-001 
-1.281047e-001 
-1.227226e-001 
-1.187364e-001 
-1.147375e-001 
-1.104184e-001 
-1.048063e-001 
-9.939517e-002 
-9.435779e-002 
-9.105503e-002 
-8.930524e-002 
-8.877538e-002 
-8.508262e-002 
-7.970220e-002 
-7.564927e-002 
-7.366554e-002 
-7.255033e-002 
-7.044728e-002 
-6.812327e-002 
-6.512505e-002 
-6.115019e-002 
-5.827641e-002 
-5.934817e-002 
-6.046216e-002 
-5.923371e-002 
-5.580622e-002 
-5.395173e-002 
-5.411968e-002 
-5.453726e-002 
-5.527051e-002 
-5.531959e-002 
-5.387317e-002 
-5.171437e-002 
-4.944787e-002 
-4.986273e-002 
-5.357132e-002 
-5.960157e-002 
-7.170655e-002 
-9.392104e-002 
-1.270542e-001 
-1.731857e-001 
-2.308493e-001 
-2.981850e-001 
-3.762111e-001 
-4.624940e-001 
-5.564635e-001 
-6.559671e-001 
-7.574830e-001 
-8.594878e-001 
-9.628105e-001 
-1.063988e+000 
-1.161963e+000 
-1.253080e+000 
-1.334003e+000 
-1.402486e+000 
-1.455701e+000 
-1.497173e+000 
-1.529202e+000 
-1.547056e+000 
-1.546904e+000 
-1.530461e+000 
-1.498668e+000 
-1.457199e+000 
-1.407585e+000 
-1.352433e+000 
-1.294397e+000 
-1.229448e+000 
-1.155902e+000 
-1.077552e+000 
-9.965346e-001 
-9.116303e-001 
-8.228072e-001 
-7.288353e-001 
-6.340471e-001 
-5.406199e-001 
-4.486429e-001 
-3.596180e-001 
-2.718859e-001 
-1.838117e-001 
-9.557773e-002 
-1.187540e-002 
6.458777e-002 
1.316069e-001 
1.914855e-001 
2.465663e-001 
2.972541e-001 
3.422518e-001 
3.787048e-001 
4.070183e-001 
4.292802e-001 
4.483100e-001 
4.627953e-001 
4.750733e-001 
4.858737e-001 
4.941043e-001 
4.988033e-001 
5.028213e-001 
5.103209e-001 
5.177819e-001 
5.224141e-001 
5.246571e-001 
5.268874e-001 
5.301486e-001 
5.340965e-001 
5.368314e-001 
5.414904e-001 
5.464186e-001 
5.490803e-001 
5.541815e-001 
5.598576e-001 
5.646944e-001 
5.703678e-001 
5.738681e-001 
5.760461e-001 
5.810483e-001 
5.868379e-001 
5.938143e-001 
5.999773e-001 
6.031001e-001 
6.077561e-001 
6.140133e-001 
6.196256e-001 
6.257112e-001 
6.312908e-001 
6.368243e-001 
6.418326e-001 
6.462797e-001 
6.523020e-001 
6.588258e-001 
6.628022e-001 
6.644646e-001 
6.649578e-001 
6.663321e-001 
6.690512e-001 
6.697866e-001 
6.681079e-001 
6.640765e-001 
6.589201e-001 
6.519679e-001 
6.440696e-001 
6.349241e-001 
6.229462e-001 
6.077739e-001 
5.897481e-001 
5.684538e-001 
5.461227e-001 
5.216401e-001 
4.921769e-001 
4.611044e-001 
4.290284e-001 
3.964246e-001 
3.652927e-001 
3.329646e-001 
2.978474e-001 
2.638550e-001 
2.298946e-001 
1.977281e-001 
1.690602e-001 
1.426204e-001 
1.175388e-001 
9.416734e-002 
7.166014e-002 
5.320852e-002 
3.938787e-002 
2.627586e-002 
1.409301e-002 
3.214669e-003 
-4.738362e-003 
-1.075477e-002 
-1.640608e-002 
-2.224650e-002 
-2.706379e-002 
-3.337640e-002 
-3.990419e-002 
-4.300217e-002 
-4.365659e-002 
-4.484983e-002 
-4.887455e-002 
-5.346729e-002 
-5.598639e-002 
-5.635922e-002 
-5.685972e-002 
-5.683008e-002 
-5.537970e-002 
-5.671682e-002 
-6.035892e-002 
-5.993528e-002 
-5.622104e-002 
-5.367330e-002 
-5.252618e-002 
-5.287258e-002 
-5.207689e-002 
-4.900364e-002 
-4.836895e-002 
-4.683593e-002 
-4.339482e-002 
-4.322373e-002 
-4.406856e-002 
-4.219141e-002 
-3.879636e-002 
-3.482841e-002 
-3.317861e-002 
-3.421870e-002 
-3.297255e-002 
-3.009157e-002 
-2.726027e-002 
-2.420716e-002 
-2.125171e-002 
-2.032769e-002 
-2.083129e-002 
-2.066040e-002 
-1.923281e-002 
-1.645141e-002 
-1.479763e-002 
-1.457247e-002 
-1.379512e-002 
-1.194505e-002 
-1.032507e-002 
-9.005568e-003 
-8.378395e-003 
-9.434708e-003 
-9.491125e-003 
-8.260228e-003 
-6.584314e-003 
-5.085407e-003 
-5.064319e-003 
-7.003885e-003 
-9.393454e-003 
-1.122923e-002 
-1.240810e-002 
-1.129149e-002 
-1.231419e-002 
-1.552439e-002 
-1.858736e-002 
-2.145602e-002 
-2.389493e-002 
-2.699396e-002 
-3.038766e-002 
-3.292485e-002 
-3.515818e-002 
-3.825526e-002 
-3.935466e-002 
-4.088741e-002 
-4.334158e-002 
-4.723484e-002 
-5.089782e-002 
-5.159326e-002 
-5.170287e-002 
-5.313867e-002 
-5.531188e-002 
-5.830066e-002 
-6.169335e-002 
-6.375346e-002 
-6.517773e-002 
-6.500376e-002 
-6.522373e-002 
-6.692475e-002 
-6.791820e-002 
-6.724839e-002 
-6.522716e-002 
-6.274815e-002 
-6.060693e-002 
-5.806604e-002 
-5.408629e-002 
-4.927231e-002 
-4.395039e-002 
-3.875338e-002 
-3.448316e-002 
-3.099982e-002 
-2.717090e-002 
-2.066677e-002 
-1.410448e-002 
-9.589871e-003 
-8.987757e-003 
-1.142107e-002 
-1.412282e-002 
-1.567270e-002 
-1.723838e-002 
-1.958561e-002 
-2.453695e-002 
-3.423178e-002 
-4.511284e-002 
-5.656642e-002 
-6.653975e-002 
-7.523728e-002 
-8.507670e-002 
-9.667326e-002 
-1.091654e-001 
-1.212952e-001 
-1.309300e-001 
-1.399082e-001 
-1.506042e-001 
-1.595519e-001 
-1.676293e-001 
-1.737276e-001 
-1.780222e-001 
-1.824312e-001 
-1.855252e-001 
-1.872250e-001 
-1.896637e-001 
-1.896237e-001 
-1.848890e-001 
-1.798807e-001 
-1.757149e-001 
-1.731134e-001 
-1.697408e-001 
-1.635890e-001 
-1.562777e-001 
-1.496591e-001 
-1.428164e-001 
-1.360803e-001 
-1.305990e-001 
-1.248788e-001 
-1.168694e-001 
-1.090925e-001 
-1.035130e-001 
-9.841088e-002 
-9.459763e-002 
-9.101138e-002 
-8.647487e-002 
-8.400325e-002 
-8.272902e-002 
-8.206026e-002 
-8.328088e-002 
-8.090762e-002 
-7.704991e-002 
-7.674462e-002 
-7.685366e-002 
-7.768181e-002 
-8.007205e-002 
-8.107075e-002 
-8.129552e-002 
-8.095153e-002 
-8.068842e-002 
-8.461366e-002 
-8.896655e-002 
-9.010915e-002 
-9.088549e-002 
-9.306039e-002 
-9.576581e-002 
-9.806558e-002 
-1.009553e-001 
-1.034867e-001 
-1.062307e-001 
-1.121725e-001 
-1.261330e-001 
-1.505657e-001 
-1.865273e-001 
-2.302086e-001 
-2.840101e-001 
-3.498115e-001 
-4.241445e-001 
-5.084230e-001 
-6.009450e-001 
-6.965484e-001 
-7.946372e-001 
-8.959036e-001 
-9.986754e-001 
-1.103516e+000 
-1.202001e+000 
-1.290032e+000 
-1.369959e+000 
-1.438333e+000 
-1.494216e+000 
-1.540942e+000 
-1.577265e+000 
-1.598161e+000 
-1.601088e+000 
-1.585978e+000 
-1.560400e+000 
-1.526582e+000 
-1.480783e+000 
-1.427435e+000 
-1.369826e+000 
-1.307064e+000 
-1.237032e+000 
-1.162138e+000 
-1.083003e+000 
-9.993487e-001 
-9.084235e-001 
-8.140883e-001 
-7.215776e-001 
-6.299556e-001 
-5.390028e-001 
-4.463871e-001 
-3.529025e-001 
-2.599618e-001 
-1.696558e-001 
-8.554143e-002 
-9.565641e-003 
6.081451e-002 
1.251649e-001 
1.830675e-001 
2.351320e-001 
2.789950e-001 
3.160751e-001 
3.466972e-001 
3.712521e-001 
3.921160e-001 
4.079194e-001 
4.194344e-001 
4.285675e-001 
4.351429e-001 
4.409324e-001 
4.465255e-001 
4.504435e-001 
4.550750e-001 
4.603608e-001 
4.652188e-001 
4.704957e-001 
4.745493e-001 
4.777075e-001 
4.798106e-001 
4.820046e-001 
4.871669e-001 
4.928768e-001 
4.971900e-001 
5.005202e-001 
5.038589e-001 
5.090472e-001 
5.147859e-001 
5.201892e-001 
5.281686e-001 
5.355691e-001 
5.399022e-001 
5.448875e-001 
5.513904e-001 
5.593210e-001 
5.669764e-001 
5.719662e-001 
5.767407e-001 
5.834603e-001 
5.901493e-001 
5.966679e-001 
6.028091e-001 
6.079343e-001 
6.115516e-001 
6.135152e-001 
6.160605e-001 
6.186796e-001 
6.195912e-001 
6.173223e-001 
6.125606e-001 
6.080206e-001 
6.024425e-001 
5.938824e-001 
5.837371e-001 
5.701906e-001 
5.506811e-001 
5.301719e-001 
5.102443e-001 
4.890618e-001 
4.645572e-001 
4.353606e-001 
4.038561e-001 
3.724591e-001 
3.395127e-001 
3.068490e-001 
2.774647e-001 
2.454852e-001 
2.111875e-001 
1.785634e-001 
1.498099e-001 
1.232775e-001 
9.747266e-002 
7.167253e-002 
4.731736e-002 
2.632392e-002 
7.136886e-003 
-8.049671e-003 
-1.925810e-002 
-3.120909e-002 
-4.545185e-002 
-5.634060e-002 
-6.372763e-002 
-6.814919e-002 
-7.022036e-002 
-7.353604e-002 
-7.773215e-002 
-8.208279e-002 
-8.677687e-002 
-8.830298e-002 
-8.691105e-002 
-8.790741e-002 
-8.936852e-002 
-8.991540e-002 
-9.058846e-002 
-8.996794e-002 
-8.795207e-002 
-8.694024e-002 
-8.696214e-002 
-8.834135e-002 
-8.858922e-002 
-8.621689e-002 
-8.382631e-002 
-8.300523e-002 
-8.268512e-002 
-8.179050e-002 
-8.115062e-002 
-7.882247e-002 
-7.651051e-002 
-7.442900e-002 
-7.301022e-002 
-7.197779e-002 
-7.060009e-002 
-6.784510e-002 
-6.467056e-002 
-6.283459e-002 
-6.243708e-002 
-6.214130e-002 
-5.941094e-002 
-5.573878e-002 
-5.280622e-002 
-5.121839e-002 
-4.967462e-002 
-4.803139e-002 
-4.580624e-002 
-4.314888e-002 
-3.971887e-002 
-3.711888e-002 
-3.659917e-002 
-3.741663e-002 
-3.732615e-002 
-3.504585e-002 
-3.252823e-002 
-3.261302e-002 
-3.514462e-002 
-3.746820e-002 
-3.880579e-002 
-3.900428e-002 
-3.982891e-002 
-4.115810e-002 
-4.250283e-002 
-4.541745e-002 
-4.838069e-002 
-4.943015e-002 
-5.035173e-002 
-5.157214e-002 
-5.364391e-002 
-5.735260e-002 
-5.868633e-002 
-5.787475e-002 
-5.860068e-002 
-6.017392e-002 
-6.246561e-002 
-6.497892e-002 
-6.616096e-002 
-6.730906e-002 
-6.860942e-002 
-6.929680e-002 
-7.170488e-002 
-7.484491e-002 
-7.697557e-002 
-7.708530e-002 
-7.784162e-002 
-7.969052e-002 
-8.156932e-002 
-8.383090e-002 
-8.494976e-002 
-8.375234e-002 
-8.230475e-002 
-8.209716e-002 
-8.029371e-002 
-7.930581e-002 
-7.659611e-002 
-7.243523e-002 
-6.790248e-002 
-6.270007e-002 
-5.783984e-002 
-5.392331e-002 
-4.836586e-002 
-4.059226e-002 
-3.595738e-002 
-3.426063e-002 
-3.383482e-002 
-3.304450e-002 
-3.300097e-002 
-3.188135e-002 
-3.215890e-002 
-3.661177e-002 
-4.360667e-002 
-5.372734e-002 
-6.358873e-002 
-7.097178e-002 
-7.952610e-002 
-9.058613e-002 
-1.019204e-001 
-1.159608e-001 
-1.295461e-001 
-1.404829e-001 
-1.508294e-001 
-1.603740e-001 
-1.700109e-001 
-1.789411e-001 
-1.859386e-001 
-1.904540e-001 
-1.952542e-001 
-1.995618e-001 
-2.024289e-001 
-2.032830e-001 
-2.020081e-001 
-1.976814e-001 
-1.915330e-001 
-1.875199e-001 
-1.844439e-001 
-1.816156e-001 
-1.761950e-001 
-1.673212e-001 
-1.576113e-001 
-1.496518e-001 
-1.435070e-001 
-1.402157e-001 
-1.371662e-001 
-1.310183e-001 
-1.246953e-001 
-1.189517e-001 
-1.130903e-001 
-1.086687e-001 
-1.065035e-001 
-1.056356e-001 
-1.049965e-001 
-1.036566e-001 
-1.030209e-001 
-1.025780e-001 
-1.008436e-001 
-9.774807e-002 
-9.639908e-002 
-9.757404e-002 
-9.940971e-002 
-9.950004e-002 
-9.900125e-002 
-9.646769e-002 
-9.321398e-002 
-9.282207e-002 
-9.373257e-002 
-9.554955e-002 
-9.689479e-002 
-9.636339e-002 
-9.527314e-002 
-9.457174e-002 
-9.388182e-002 
-9.494019e-002 
-9.733472e-002 
-1.017604e-001 
-1.122183e-001 
-1.328169e-001 
-1.650217e-001 
-2.083771e-001 
-2.613141e-001 
-3.253799e-001 
-4.000302e-001 
-4.856019e-001 
-5.804504e-001 
-6.814115e-001 
-7.844793e-001 
-8.882479e-001 
-9.942190e-001 
-1.101002e+000 
-1.205003e+000 
-1.300715e+000 
-1.386541e+000 
-1.459990e+000 
-1.519985e+000 
-1.567560e+000 
-1.605653e+000 
-1.631351e+000 
-1.637525e+000 
-1.624591e+000 
-1.597747e+000 
-1.560148e+000 
-1.512935e+000 
-1.458068e+000 
-1.396914e+000 
-1.328609e+000 
-1.253876e+000 
-1.173762e+000 
-1.092266e+000 
-1.009060e+000 
-9.199534e-001 
-8.269610e-001 
-7.328984e-001 
-6.389523e-001 
-5.466736e-001 
-4.565867e-001 
-3.656758e-001 
-2.759618e-001 
-1.881210e-001 
-1.033397e-001 
-2.569691e-002 
4.479232e-002 
1.082474e-001 
1.664848e-001 
2.193120e-001 
2.639336e-001 
3.008401e-001 
3.338804e-001 
3.631538e-001 
3.870122e-001 
4.059836e-001 
4.198896e-001 
4.314678e-001 
4.395226e-001 
4.462076e-001 
4.548798e-001 
4.629552e-001 
4.682746e-001 
4.725859e-001 
4.767501e-001 
4.818734e-001 
4.885166e-001 
4.942519e-001 
4.988584e-001 
5.021989e-001 
5.056811e-001 
5.112564e-001 
5.181887e-001 
5.253192e-001 
5.324933e-001 
5.378477e-001 
5.421107e-001 
5.473610e-001 
5.558033e-001 
5.650507e-001 
5.721144e-001 
5.771657e-001 
5.823884e-001 
5.877780e-001 
5.934834e-001 
5.997061e-001 
6.056276e-001 
6.108061e-001 
6.146947e-001 
6.186916e-001 
6.235362e-001 
6.274509e-001 
6.292923e-001 
6.299424e-001 
6.290495e-001 
6.272322e-001 
6.257599e-001 
6.226310e-001 
6.163582e-001 
6.076818e-001 
5.960158e-001 
5.842282e-001 
5.714641e-001 
5.543858e-001 
5.336067e-001 
5.095813e-001 
4.820973e-001 
4.543432e-001 
4.260716e-001 
3.952795e-001 
3.634149e-001 
3.285571e-001 
2.924512e-001 
2.582730e-001 
2.257942e-001 
1.947724e-001 
1.647191e-001 
1.337302e-001 
1.033378e-001 
7.644691e-002 
5.286822e-002 
3.215899e-002 
1.250912e-002 
-6.052282e-003 
-2.238721e-002 
-3.606066e-002 
-4.714035e-002 
-5.661652e-002 
-6.557808e-002 
-7.387064e-002 
-8.212348e-002 
-8.897047e-002 
-9.274946e-002 
-9.580316e-002 
-9.968689e-002 
-1.032346e-001 
-1.074377e-001 
-1.102477e-001 
-1.096661e-001 
-1.093136e-001 
-1.099012e-001 
-1.107777e-001 
-1.121775e-001 
-1.110808e-001 
-1.076217e-001 
-1.063279e-001 
-1.053338e-001 
-1.044423e-001 
-1.046352e-001 
-1.038484e-001 
-1.007415e-001 
-9.721803e-002 
-9.494960e-002 
-9.599276e-002 
-9.891559e-002 
-9.936101e-002 
-9.640849e-002 
-9.206191e-002 
-8.910609e-002 
-8.683577e-002 
-8.572982e-002 
-8.538088e-002 
-8.429472e-002 
-8.211853e-002 
-7.886954e-002 
-7.539429e-002 
-7.386006e-002 
-7.347480e-002 
-7.097236e-002 
-6.799446e-002 
-6.676756e-002 
-6.563107e-002 
-6.375843e-002 
-6.036128e-002 
-5.733100e-002 
-5.620534e-002 
-5.566372e-002 
-5.519906e-002 
-5.690985e-002 
-5.830485e-002 
-5.622550e-002 
-5.424432e-002 
-5.450916e-002 
-5.753227e-002 
-6.027095e-002 
-6.149014e-002 
-6.252643e-002 
-6.423505e-002 
-6.459247e-002 
-6.646442e-002 
-7.122248e-002 
-7.499365e-002 
-7.759354e-002 
-7.967505e-002 
-8.193154e-002 
-8.477305e-002 
-8.682734e-002 
-8.725041e-002 
-8.859940e-002 
-8.945420e-002 
-8.960354e-002 
-9.109577e-002 
-9.171820e-002 
-9.037362e-002 
-8.904505e-002 
-8.750770e-002 
-8.725026e-002 
-8.796254e-002 
-8.700138e-002 
-8.353386e-002 
-7.874157e-002 
-7.380313e-002 
-7.000638e-002 
-6.718453e-002 
-6.415230e-002 
-5.870480e-002 
-5.068594e-002 
-4.257610e-002 
-3.562033e-002 
-3.180542e-002 
-2.804844e-002 
-2.213039e-002 
-1.633640e-002 
-1.182619e-002 
-8.394735e-003 
-9.545230e-003 
-1.332144e-002 
-1.727289e-002 
-2.161361e-002 
-2.536614e-002 
-3.305617e-002 
-4.472680e-002 
-5.617114e-002 
-6.735827e-002 
-7.871340e-002 
-8.981903e-002 
-1.019582e-001 
-1.144456e-001 
-1.282246e-001 
-1.417829e-001 
-1.508203e-001 
-1.576909e-001 
-1.651837e-001 
-1.722124e-001 
-1.782794e-001 
-1.811682e-001 
-1.825154e-001 
-1.838874e-001 
-1.833550e-001 
-1.814568e-001 
-1.797649e-001 
-1.756036e-001 
-1.689274e-001 
-1.628103e-001 
-1.579755e-001 
-1.554228e-001 
-1.511762e-001 
-1.445984e-001 
-1.364623e-001 
-1.280966e-001 
-1.220449e-001 
-1.194725e-001 
-1.182748e-001 
-1.158313e-001 
-1.100929e-001 
-1.028056e-001 
-9.900000e-002 
-9.735253e-002 
-9.786991e-002 
-9.983597e-002 
-9.917889e-002 
-9.731377e-002 
-9.542620e-002 
-9.344548e-002 
-9.389082e-002 
-9.460141e-002 
-9.286551e-002 
-9.112622e-002 
-8.994595e-002 
-8.967558e-002 
-9.011104e-002 
-8.883869e-002 
-8.686088e-002 
-8.566169e-002 
-8.445827e-002 
-8.409174e-002 
-8.517946e-002 
-8.627730e-002 
-8.552212e-002 
-8.424289e-002 
-8.396168e-002 
-8.691908e-002 
-9.393635e-002 
-1.052669e-001 
-1.253023e-001 
-1.556577e-001 
-1.972002e-001 
-2.529592e-001 
-3.213448e-001 
-3.983425e-001 
-4.848770e-001 
-5.783541e-001 
-6.785035e-001 
-7.832612e-001 
-8.890784e-001 
-9.976419e-001 
-1.105996e+000 
-1.207118e+000 
-1.302196e+000 
-1.390049e+000 
-1.466065e+000 
-1.527846e+000 
-1.575129e+000 
-1.612115e+000 
-1.636939e+000 
-1.644864e+000 
-1.635116e+000 
-1.610806e+000 
-1.572197e+000 
-1.521974e+000 
-1.464640e+000 
-1.405235e+000 
-1.341364e+000 
-1.269480e+000 
-1.191764e+000 
-1.109188e+000 
-1.023336e+000 
-9.351130e-001 
-8.442752e-001 
-7.502668e-001 
-6.541432e-001 
-5.575466e-001 
-4.625798e-001 
-3.687705e-001 
-2.758650e-001 
-1.847414e-001 
-9.694111e-002 
-1.303136e-002 
6.490791e-002 
1.330261e-001 
1.926077e-001 
2.489120e-001 
3.001871e-001 
3.438079e-001 
3.814321e-001 
4.124565e-001 
4.379345e-001 
4.579467e-001 
4.737077e-001 
4.876991e-001 
4.992772e-001 
5.052157e-001 
5.102942e-001 
5.168703e-001 
5.223949e-001 
5.276714e-001 
5.319606e-001 
5.356802e-001 
5.385544e-001 
5.409647e-001 
5.440503e-001 
5.482516e-001 
5.512603e-001 
5.531538e-001 
5.548100e-001 
5.582785e-001 
5.629316e-001 
5.679055e-001 
5.726688e-001 
5.769512e-001 
5.817136e-001 
5.874726e-001 
5.940881e-001 
6.009939e-001 
6.083001e-001 
6.137545e-001 
6.191551e-001 
6.260202e-001 
6.360992e-001 
6.450306e-001 
6.522773e-001 
6.587863e-001 
6.643716e-001 
6.709294e-001 
6.778348e-001 
6.853624e-001 
6.937538e-001 
6.997636e-001 
7.018124e-001 
7.051149e-001 
7.079343e-001 
7.099751e-001 
7.107721e-001 
7.095802e-001 
7.077780e-001 
7.043676e-001 
6.986381e-001 
6.908606e-001 
6.805009e-001 
6.668196e-001 
6.511774e-001 
6.353249e-001 
6.183339e-001 
5.977900e-001 
5.739036e-001 
5.460377e-001 
5.157465e-001 
4.860391e-001 
4.554833e-001 
4.247890e-001 
3.925524e-001 
3.566737e-001 
3.208908e-001 
2.864025e-001 
2.536191e-001 
2.240378e-001 
1.947347e-001 
1.652984e-001 
1.375437e-001 
1.120431e-001 
8.979707e-002 
7.018205e-002 
5.241857e-002 
3.575673e-002 
2.072348e-002 
8.928990e-003 
-1.328124e-004 
-8.365465e-003 
-1.529481e-002 
-2.295285e-002 
-2.852203e-002 
-3.192774e-002 
-3.429200e-002 
-3.484478e-002 
-3.694561e-002 
-4.161590e-002 
-4.591974e-002 
-4.746914e-002 
-4.771644e-002 
-4.688164e-002 
-4.804609e-002 
-4.955479e-002 
-5.153823e-002 
-5.461585e-002 
-5.546437e-002 
-5.402475e-002 
-5.335383e-002 
-5.502527e-002 
-5.606555e-002 
-5.609904e-002 
-5.431441e-002 
-5.298787e-002 
-5.316852e-002 
-5.317943e-002 
-5.259967e-002 
-5.117717e-002 
-4.816952e-002 
-4.413126e-002 
-4.197539e-002 
-4.136716e-002 
-4.067230e-002 
-3.843258e-002 
-3.373657e-002 
-2.787353e-002 
-2.299022e-002 
-2.065163e-002 
-1.910303e-002 
-1.750078e-002 
-1.516271e-002 
-1.032704e-002 
-5.706628e-003 
-3.544728e-003 
-2.653688e-003 
-3.909930e-004 
1.912757e-003 
4.350874e-003 
5.602586e-003 
6.127890e-003 
8.115705e-003 
8.913131e-003 
8.305723e-003 
8.726189e-003 
9.855575e-003 
8.389589e-003 
7.027093e-003 
6.164127e-003 
6.416748e-003 
8.022719e-003 
6.817019e-003 
3.669069e-003 
2.101945e-003 
2.767146e-003 
3.171914e-003 
2.477950e-003 
6.686523e-004 
-8.460625e-004 
-3.139688e-003 
-5.533017e-003 
-5.637272e-003 
-4.719310e-003 
-5.054367e-003 
-8.781464e-003 
-1.269077e-002 
-1.342069e-002 
-1.422585e-002 
-1.572769e-002 
-1.666860e-002 
-1.931389e-002 
-2.296500e-002 
-2.540693e-002 
-2.613391e-002 
-2.631721e-002 
-2.756777e-002 
-3.134734e-002 
-3.436396e-002 
-3.548845e-002 
-3.562682e-002 
-3.520245e-002 
-3.470844e-002 
-3.510607e-002 
-3.554705e-002 
-3.387345e-002 
-3.102902e-002 
-2.576021e-002 
-2.028921e-002 
-1.664338e-002 
-1.386645e-002 
-1.012759e-002 
-3.501488e-003 
4.179162e-003 
9.962755e-003 
1.569454e-002 
2.181437e-002 
2.595343e-002 
2.955398e-002 
3.159499e-002 
3.137781e-002 
3.025708e-002 
2.652445e-002 
2.303572e-002 
2.078363e-002 
1.554780e-002 
6.678337e-003 
-3.606876e-003 
-1.502759e-002 
-2.521704e-002 
-3.304986e-002 
-4.199060e-002 
-5.216114e-002 
-6.386971e-002 
-7.673191e-002 
-8.792865e-002 
-9.546602e-002 
-1.019802e-001 
-1.080806e-001 
-1.146240e-001 
-1.216146e-001 
-1.266761e-001 
-1.302402e-001 
-1.328078e-001 
-1.351074e-001 
-1.376188e-001 
-1.399550e-001 
-1.385510e-001 
-1.344765e-001 
-1.304037e-001 
-1.266900e-001 
-1.228725e-001 
-1.191907e-001 
-1.146220e-001 
-1.084242e-001 
-1.011939e-001 
-9.321626e-002 
-8.874763e-002 
-8.604793e-002 
-7.978273e-002 
-7.224028e-002 
-6.542885e-002 
-5.836535e-002 
-5.412803e-002 
-5.174398e-002 
-4.874326e-002 
-4.731650e-002 
-4.529693e-002 
-4.225892e-002 
-4.175421e-002 
-4.063068e-002 
-3.884478e-002 
-3.779674e-002 
-3.554960e-002 
-3.436856e-002 
-3.522086e-002 
-3.480027e-002 
-3.341948e-002 
-3.207413e-002 
-3.107850e-002 
-3.255208e-002 
-3.416623e-002 
-3.598867e-002 
-3.726698e-002 
-3.612718e-002 
-3.526968e-002 
-3.636236e-002 
-3.880933e-002 
-4.231294e-002 
-4.453693e-002 
-4.539435e-002 
-4.997710e-002 
-6.152657e-002 
-8.339859e-002 
-1.174156e-001 
-1.609522e-001 
-2.159321e-001 
-2.830821e-001 
-3.615882e-001 
-4.524624e-001 
-5.531466e-001 
-6.594020e-001 
-7.680299e-001 
-8.775524e-001 
-9.896427e-001 
-1.105253e+000 
-1.218184e+000 
-1.323472e+000 
-1.416444e+000 
-1.495573e+000 
-1.562866e+000 
-1.617047e+000 
-1.658070e+000 
-1.685746e+000 
-1.696747e+000 
-1.688212e+000 
-1.660870e+000 
-1.619970e+000 
-1.570129e+000 
-1.511631e+000 
-1.444881e+000 
-1.374180e+000 
-1.300237e+000 
-1.221057e+000 
-1.134419e+000 
-1.043497e+000 
-9.499216e-001 
-8.519894e-001 
-7.524541e-001 
-6.539136e-001 
-5.571318e-001 
-4.591083e-001 
-3.592701e-001 
-2.615475e-001 
-1.683260e-001 
-7.773737e-002 
6.679596e-003 
8.459124e-002 
1.568918e-001 
2.223636e-001 
2.804749e-001 
3.299981e-001 
3.723235e-001 
4.113375e-001 
4.459719e-001 
4.734391e-001 
4.950019e-001 
5.107146e-001 
5.213776e-001 
5.304182e-001 
5.399901e-001 
5.490506e-001 
5.566330e-001 
5.620869e-001 
5.656593e-001 
5.701201e-001 
5.768707e-001 
5.828822e-001 
5.883520e-001 
5.924317e-001 
5.949401e-001 
5.984699e-001 
6.030022e-001 
6.077633e-001 
6.137520e-001 
6.183564e-001 
6.213294e-001 
6.266305e-001 
6.334044e-001 
6.403137e-001 
6.464207e-001 
6.520510e-001 
6.579613e-001 
6.640866e-001 
6.708725e-001 
6.788154e-001 
6.867546e-001 
6.929199e-001 
6.962114e-001 
7.005439e-001 
7.080026e-001 
7.151687e-001 
7.213962e-001 
7.269152e-001 
7.325851e-001 
7.395604e-001 
7.454267e-001 
7.492556e-001 
7.551042e-001 
7.600835e-001 
7.619848e-001 
7.632464e-001 
7.649959e-001 
7.664391e-001 
7.648726e-001 
7.584761e-001 
7.502532e-001 
7.431334e-001 
7.340182e-001 
7.212730e-001 
7.056704e-001 
6.862486e-001 
6.632066e-001 
6.378141e-001 
6.098480e-001 
5.804290e-001 
5.485919e-001 
5.131914e-001 
4.772308e-001 
4.414125e-001 
4.048360e-001 
3.695949e-001 
3.335783e-001 
2.965994e-001 
2.607673e-001 
2.263467e-001 
1.966145e-001 
1.695067e-001 
1.405785e-001 
1.135421e-001 
9.020439e-002 
6.858419e-002 
5.118167e-002 
3.619783e-002 
2.230328e-002 
1.117535e-002 
-7.646645e-004 
-1.070987e-002 
-1.652300e-002 
-2.295849e-002 
-2.901013e-002 
-3.395815e-002 
-4.093235e-002 
-4.556489e-002 
-4.837168e-002 
-5.131027e-002 
-5.274325e-002 
-5.657779e-002 
-6.143230e-002 
-6.237143e-002 
-6.256710e-002 
-6.357516e-002 
-6.338562e-002 
-6.531931e-002 
-6.571805e-002 
-6.499086e-002 
-6.536261e-002 
-6.322942e-002 
-6.058120e-002 
-6.026942e-002 
-5.973809e-002 
-5.762439e-002 
-5.480664e-002 
-5.048263e-002 
-4.930164e-002 
-4.949583e-002 
-4.898182e-002 
-4.819940e-002 
-4.558714e-002 
-4.236708e-002 
-4.053609e-002 
-4.049970e-002 
-4.023820e-002 
-3.964219e-002 
-3.707849e-002 
-3.435525e-002 
-3.163409e-002 
-2.966201e-002 
-2.940033e-002 
-2.780096e-002 
-2.522889e-002 
-2.125935e-002 
-1.741340e-002 
-1.582065e-002 
-1.371048e-002 
-1.064586e-002 
-8.307547e-003 
-4.823865e-003 
-1.590768e-003 
-1.629498e-003 
-7.491615e-005 
1.051793e-003 
2.497556e-003 
5.611502e-003 
5.036761e-003 
3.666640e-003 
3.463170e-003 
1.559320e-003 
9.794537e-004 
2.972960e-003 
1.863332e-003 
3.583051e-004 
-2.976953e-003 
-6.041569e-003 
-5.011561e-003 
-4.737176e-003 
-6.437530e-003 
-7.679308e-003 
-9.160961e-003 
-1.084558e-002 
-1.151235e-002 
-1.219688e-002 
-1.237769e-002 
-1.385241e-002 
-1.646764e-002 
-1.784730e-002 
-1.640604e-002 
-1.481453e-002 
-1.557951e-002 
-1.792451e-002 
-1.991095e-002 
-2.084306e-002 
-2.001451e-002 
-1.913608e-002 
-1.949920e-002 
-2.093019e-002 
-2.394913e-002 
-2.546943e-002 
-2.414727e-002 
-2.154050e-002 
-1.974751e-002 
-1.995022e-002 
-2.051860e-002 
-1.920478e-002 
-1.585255e-002 
-9.792938e-003 
-3.963724e-003 
-6.555120e-005 
3.054777e-003 
5.558405e-003 
1.023206e-002 
1.824708e-002 
2.573515e-002 
3.240508e-002 
3.845398e-002 
4.242634e-002 
4.667057e-002 
5.009343e-002 
5.092840e-002 
5.105989e-002 
5.020170e-002 
4.772236e-002 
4.483447e-002 
4.053928e-002 
3.414940e-002 
2.577252e-002 
1.536206e-002 
4.187492e-003 
-3.970104e-003 
-1.199993e-002 
-2.296746e-002 
-3.561407e-002 
-4.819914e-002 
-5.901670e-002 
-6.842571e-002 
-7.782986e-002 
-8.591543e-002 
-9.186520e-002 
-9.993076e-002 
-1.066750e-001 
-1.098567e-001 
-1.118785e-001 
-1.138259e-001 
-1.170916e-001 
-1.192438e-001 
-1.170322e-001 
-1.123927e-001 
-1.079155e-001 
-1.020658e-001 
-9.741339e-002 
-9.325206e-002 
-8.809163e-002 
-8.225307e-002 
-7.443278e-002 
-6.730630e-002 
-6.242673e-002 
-5.726691e-002 
-5.111359e-002 
-4.435773e-002 
-3.640551e-002 
-3.046249e-002 
-2.569157e-002 
-2.210087e-002 
-1.947835e-002 
-1.563193e-002 
-1.120334e-002 
-9.310469e-003 
-9.069054e-003 
-9.455479e-003 
-8.941020e-003 
-6.618010e-003 
-5.063574e-003 
-4.434565e-003 
-4.597928e-003 
-5.316186e-003 
-6.031250e-003 
-6.199299e-003 
-5.540023e-003 
-5.023295e-003 
-6.588902e-003 
-9.368227e-003 
-1.078468e-002 
-1.038741e-002 
-9.641610e-003 
-1.050841e-002 
-1.218685e-002 
-1.248821e-002 
-1.353928e-002 
-1.720690e-002 
-2.609428e-002 
-4.492834e-002 
-7.538989e-002 
-1.190324e-001 
-1.750788e-001 
-2.399220e-001 
-3.162855e-001 
-4.052881e-001 
-5.051978e-001 
-6.117122e-001 
-7.198631e-001 
-8.295831e-001 
-9.433157e-001 
-1.057102e+000 
-1.166981e+000 
-1.270986e+000 
-1.365838e+000 
-1.448332e+000 
-1.513692e+000 
-1.566911e+000 
-1.612518e+000 
-1.645638e+000 
-1.658836e+000 
-1.650627e+000 
-1.626687e+000 
-1.592419e+000 
-1.547413e+000 
-1.494877e+000 
-1.438196e+000 
-1.376291e+000 
-1.307360e+000 
-1.232014e+000 
-1.153667e+000 
-1.073672e+000 
-9.895431e-001 
-9.006533e-001 
-8.079464e-001 
-7.117987e-001 
-6.157812e-001 
-5.196743e-001 
-4.236415e-001 
-3.259543e-001 
-2.285589e-001 
-1.352506e-001 
-4.790677e-002 
3.525885e-002 
1.136948e-001 
1.850084e-001 
2.490583e-001 
3.054112e-001 
3.557730e-001 
3.983095e-001 
4.350067e-001 
4.676922e-001 
4.955876e-001 
5.161458e-001 
5.302013e-001 
5.395192e-001 
5.486262e-001 
5.581469e-001 
5.661846e-001 
5.739305e-001 
5.786822e-001 
5.814427e-001 
5.852493e-001 
5.902874e-001 
5.957674e-001 
6.016941e-001 
6.045975e-001 
6.064596e-001 
6.096568e-001 
6.134574e-001 
6.186805e-001 
6.242503e-001 
6.277552e-001 
6.316268e-001 
6.364464e-001 
6.407725e-001 
6.469200e-001 
6.540959e-001 
6.590843e-001 
6.644631e-001 
6.715572e-001 
6.791282e-001 
6.892296e-001 
6.969356e-001 
7.019654e-001 
7.080672e-001 
7.149256e-001 
7.216921e-001 
7.307373e-001 
7.382664e-001 
7.426420e-001 
7.465971e-001 
7.505802e-001 
7.564156e-001 
7.621297e-001 
7.663336e-001 
7.675745e-001 
7.673555e-001 
7.649606e-001 
7.616838e-001 
7.595375e-001 
7.561795e-001 
7.481803e-001 
7.371634e-001 
7.256897e-001 
7.123878e-001 
6.971095e-001 
6.787521e-001 
6.577953e-001 
6.337269e-001 
6.077396e-001 
5.793173e-001 
5.486266e-001 
5.154308e-001 
4.792499e-001 
4.423874e-001 
4.069867e-001 
3.728824e-001 
3.386573e-001 
3.049559e-001 
2.693955e-001 
2.341202e-001 
2.020971e-001 
1.740449e-001 
1.486073e-001 
1.248233e-001 
1.016162e-001 
7.949968e-002 
6.121794e-002 
4.597369e-002 
3.384014e-002 
2.356974e-002 
1.399373e-002 
5.248204e-003 
-1.327114e-003 
-6.182174e-003 
-1.109655e-002 
-1.654256e-002 
-2.305137e-002 
-2.819377e-002 
-3.072836e-002 
-3.161876e-002 
-3.188476e-002 
-3.312793e-002 
-3.703077e-002 
-4.217853e-002 
-4.520080e-002 
-4.376986e-002 
-4.026428e-002 
-3.829039e-002 
-3.879181e-002 
-4.021111e-002 
-4.092058e-002 
-4.046311e-002 
-3.765800e-002 
-3.494647e-002 
-3.357159e-002 
-3.415366e-002 
-3.406084e-002 
-3.253952e-002 
-2.920649e-002 
-2.697797e-002 
-2.584452e-002 
-2.475580e-002 
-2.514145e-002 
-2.347459e-002 
-2.013523e-002 
-1.737196e-002 
-1.566959e-002 
-1.411009e-002 
-1.309336e-002 
-9.731729e-003 
-7.019031e-003 
-4.988873e-003 
-1.775849e-003 
1.102357e-003 
3.930262e-003 
7.605972e-003 
1.096305e-002 
1.315512e-002 
1.284680e-002 
1.144451e-002 
1.269318e-002 
1.483824e-002 
1.715352e-002 
1.811424e-002 
1.683449e-002 
1.554907e-002 
1.492784e-002 
1.451400e-002 
1.629404e-002 
1.718639e-002 
1.575103e-002 
1.409148e-002 
1.210177e-002 
1.208919e-002 
1.353897e-002 
1.216000e-002 
9.620897e-003 
6.806109e-003 
4.250383e-003 
3.564143e-003 
2.761585e-003 
1.246081e-003 
-9.715709e-004 
-5.874194e-003 
-9.382978e-003 
-1.068529e-002 
-1.324543e-002 
-1.485516e-002 
-1.771804e-002 
-2.149449e-002 
-2.281949e-002 
-2.358130e-002 
-2.333651e-002 
-2.223379e-002 
-2.511479e-002 
-2.808847e-002 
-2.843027e-002 
-2.767605e-002 
-2.546740e-002 
-2.309453e-002 
-2.386239e-002 
-2.527690e-002 
-2.541839e-002 
-2.387779e-002 
-1.970488e-002 
-1.561224e-002 
-1.213792e-002 
-9.175535e-003 
-6.616839e-003 
-4.768793e-003 
-3.031532e-004 
5.646043e-003 
1.032500e-002 
1.385068e-002 
1.805833e-002 
2.290195e-002 
2.475812e-002 
2.322969e-002 
2.044731e-002 
1.741739e-002 
1.523559e-002 
1.343627e-002 
1.018176e-002 
5.160872e-003 
-3.482039e-003 
-1.530932e-002 
-2.481606e-002 
-3.303113e-002 
-4.148383e-002 
-4.909966e-002 
-6.009790e-002 
-7.300564e-002 
-8.443178e-002 
-9.480553e-002 
-1.027352e-001 
-1.098322e-001 
-1.183735e-001 
-1.251913e-001 
-1.304459e-001 
-1.354488e-001 
-1.387389e-001 
-1.427483e-001 
-1.475242e-001 
-1.506204e-001 
-1.517268e-001 
-1.476349e-001 
-1.412704e-001 
-1.374491e-001 
-1.350083e-001 
-1.330656e-001 
-1.294562e-001 
-1.222557e-001 
-1.135489e-001 
-1.050974e-001 
-9.797262e-002 
-9.512201e-002 
-9.230221e-002 
-8.759765e-002 
-8.161877e-002 
-7.368209e-002 
-6.753274e-002 
-6.410709e-002 
-6.090606e-002 
-5.819135e-002 
-5.592538e-002 
-5.392780e-002 
-5.427901e-002 
-5.355385e-002 
-5.033800e-002 
-4.782905e-002 
-4.461091e-002 
-4.188546e-002 
-4.147658e-002 
-4.243289e-002 
-4.324511e-002 
-4.246988e-002 
-3.985803e-002 
-3.826438e-002 
-3.962597e-002 
-4.181792e-002 
-4.499078e-002 
-4.680073e-002 
-4.713446e-002 
-4.802966e-002 
-5.588512e-002 
-7.348231e-002 
-1.026596e-001 
-1.456928e-001 
-2.033939e-001 
-2.757193e-001 
-3.591873e-001 
-4.509859e-001 
-5.484118e-001 
-6.515307e-001 
-7.583609e-001 
-8.711309e-001 
-9.888277e-001 
-1.105043e+000 
-1.213921e+000 
-1.311426e+000 
-1.396992e+000 
-1.472053e+000 
-1.539094e+000 
-1.595872e+000 
-1.640494e+000 
-1.666670e+000 
-1.669738e+000 
-1.652109e+000 
-1.619035e+000 
-1.574398e+000 
-1.519584e+000 
-1.458300e+000 
-1.392619e+000 
-1.322356e+000 
-1.245698e+000 
-1.163224e+000 
-1.076631e+000 
-9.866406e-001 
-8.918671e-001 
-7.936243e-001 
-6.978592e-001 
-6.029891e-001 
-5.049567e-001 
-4.069337e-001 
-3.099561e-001 
-2.152427e-001 
-1.247438e-001 
-3.916011e-002 
4.029953e-002 
1.125251e-001 
1.806679e-001 
2.411116e-001 
2.910562e-001 
3.353978e-001 
3.747395e-001 
4.099382e-001 
4.389519e-001 
4.616062e-001 
4.789078e-001 
4.906977e-001 
4.976414e-001 
5.053518e-001 
5.149769e-001 
5.239505e-001 
5.306393e-001 
5.341287e-001 
5.381536e-001 
5.419173e-001 
5.456899e-001 
5.506144e-001 
5.547515e-001 
5.577585e-001 
5.616440e-001 
5.657759e-001 
5.696129e-001 
5.728280e-001 
5.763568e-001 
5.817460e-001 
5.860629e-001 
5.897095e-001 
5.961424e-001 
6.034524e-001 
6.085352e-001 
6.119702e-001 
6.174979e-001 
6.260478e-001 
6.334720e-001 
6.383456e-001 
6.434727e-001 
6.501750e-001 
6.564358e-001 
6.620470e-001 
6.686310e-001 
6.752493e-001 
6.791058e-001 
6.818266e-001 
6.857485e-001 
6.923353e-001 
6.985700e-001 
7.012977e-001 
7.030518e-001 
7.050207e-001 
7.049223e-001 
7.052047e-001 
7.059686e-001 
7.048617e-001 
7.003511e-001 
6.911592e-001 
6.820742e-001 
6.740167e-001 
6.624232e-001 
6.465726e-001 
6.276479e-001 
6.047018e-001 
5.801145e-001 
5.528536e-001 
5.251461e-001 
4.968189e-001 
4.625178e-001 
4.251915e-001 
3.887681e-001 
3.540544e-001 
3.201135e-001 
2.853721e-001 
2.495955e-001 
2.154194e-001 
1.809749e-001 
1.481516e-001 
1.195123e-001 
9.352638e-002 
6.929420e-002 
4.523327e-002 
2.495119e-002 
8.853420e-003 
-5.393191e-003 
-1.844992e-002 
-3.058066e-002 
-4.116431e-002 
-4.828602e-002 
-5.330988e-002 
-5.730612e-002 
-6.033062e-002 
-6.507470e-002 
-6.868115e-002 
-7.020153e-002 
-6.983945e-002 
-6.653938e-002 
-6.355900e-002 
-6.335981e-002 
-6.505613e-002 
-6.660741e-002 
-6.646744e-002 
-6.472019e-002 
-6.386661e-002 
-6.388124e-002 
-6.464144e-002 
-6.587110e-002 
-6.576149e-002 
-6.442994e-002 
-6.308675e-002 
-6.262189e-002 
-6.291546e-002 
-6.280807e-002 
-6.143971e-002 
-6.039735e-002 
-6.020624e-002 
-5.951528e-002 
-5.967935e-002 
-5.985038e-002 
-5.705437e-002 
-5.308306e-002 
-5.045191e-002 
-4.910055e-002 
-4.870687e-002 
-4.642303e-002 
-4.243271e-002 
-4.024414e-002 
-3.735694e-002 
-3.393579e-002 
-3.291818e-002 
-3.166830e-002 
-2.782806e-002 
-2.270548e-002 
-1.928263e-002 
-1.894222e-002 
-1.840926e-002 
-1.512449e-002 
-1.276623e-002 
-1.161935e-002 
-9.966146e-003 
-9.839657e-003 
-1.200373e-002 
-1.496660e-002 
-1.483341e-002 
-1.187750e-002 
-1.107013e-002 
-1.392720e-002 
-1.656510e-002 
-1.774377e-002 
-1.911914e-002 
-2.003930e-002 
-2.051217e-002 
-2.054313e-002 
-2.190839e-002 
-2.473287e-002 
-2.617803e-002 
-2.574410e-002 
-2.642874e-002 
-2.855969e-002 
-2.994742e-002 
-3.132132e-002 
-3.170426e-002 
-3.264948e-002 
-3.459397e-002 
-3.681082e-002 
-3.966353e-002 
-4.128920e-002 
-4.099028e-002 
-4.193306e-002 
-4.443776e-002 
-4.670949e-002 
-4.955709e-002 
-5.132935e-002 
-5.123739e-002 
-5.033787e-002 
-5.044732e-002 
-5.371249e-002 
-5.741465e-002 
-5.743960e-002 
-5.538532e-002 
-5.260944e-002 
-4.958036e-002 
-4.753580e-002 
-4.609149e-002 
-4.315589e-002 
-3.770675e-002 
-3.066539e-002 
-2.470424e-002 
-2.144256e-002 
-1.802537e-002 
-1.309949e-002 
-6.425759e-003 
1.775148e-003 
8.080636e-003 
1.133081e-002 
1.184024e-002 
1.084961e-002 
1.029542e-002 
1.028948e-002 
8.664661e-003 
4.684929e-003 
-3.178396e-003 
-1.220994e-002 
-2.008639e-002 
-2.945190e-002 
-3.985516e-002 
-5.094022e-002 
-6.276936e-002 
-7.363138e-002 
-8.527040e-002 
-9.723796e-002 
-1.073557e-001 
-1.196791e-001 
-1.331138e-001 
-1.427240e-001 
-1.479022e-001 
-1.509092e-001 
-1.552691e-001 
-1.625385e-001 
-1.681125e-001 
-1.724255e-001 
-1.748369e-001 
-1.742775e-001 
-1.715063e-001 
-1.692800e-001 
-1.684389e-001 
-1.670267e-001 
-1.629258e-001 
-1.561423e-001 
-1.490316e-001 
-1.424209e-001 
-1.376383e-001 
-1.320825e-001 
-1.253837e-001 
-1.179701e-001 
-1.122397e-001 
-1.074954e-001 
-1.018890e-001 
-9.640807e-002 
-9.117965e-002 
-8.515916e-002 
-7.942170e-002 
-7.659012e-002 
-7.453500e-002 
-7.387774e-002 
-7.172835e-002 
-6.826996e-002 
-6.734527e-002 
-6.652136e-002 
-6.553045e-002 
-6.585207e-002 
-6.413827e-002 
-6.112452e-002 
-6.172732e-002 
-6.187484e-002 
-6.197704e-002 
-6.154691e-002 
-5.973603e-002 
-5.930728e-002 
-5.900645e-002 
-5.951256e-002 
-6.275804e-002 
-6.442874e-002 
-6.298011e-002 
-6.107703e-002 
-6.097110e-002 
-6.422255e-002 
-6.676818e-002 
-6.710221e-002 
-6.823523e-002 
-6.878049e-002 
-7.284362e-002 
-8.675950e-002 
-1.107095e-001 
-1.450909e-001 
-1.890353e-001 
-2.439409e-001 
-3.116262e-001 
-3.911727e-001 
-4.813893e-001 
-5.803074e-001 
-6.832348e-001 
-7.880347e-001 
-8.960702e-001 
-1.009636e+000 
-1.124831e+000 
-1.233053e+000 
-1.333423e+000 
-1.424066e+000 
-1.501825e+000 
-1.568162e+000 
-1.622765e+000 
-1.666180e+000 
-1.694292e+000 
-1.703176e+000 
-1.694559e+000 
-1.673448e+000 
-1.640180e+000 
-1.596440e+000 
-1.544123e+000 
-1.486084e+000 
-1.423187e+000 
-1.353220e+000 
-1.278775e+000 
-1.198289e+000 
-1.112418e+000 
-1.021222e+000 
-9.259434e-001 
-8.297480e-001 
-7.330956e-001 
-6.331857e-001 
-5.320835e-001 
-4.311327e-001 
-3.304254e-001 
-2.329795e-001 
-1.390610e-001 
-5.083244e-002 
3.184366e-002 
1.094730e-001 
1.789782e-001 
2.392869e-001 
2.928449e-001 
3.402469e-001 
3.822398e-001 
4.180047e-001 
4.463087e-001 
4.686526e-001 
4.846913e-001 
4.963373e-001 
5.066705e-001 
5.150837e-001 
5.216893e-001 
5.268930e-001 
5.304051e-001 
5.350801e-001 
5.410631e-001 
5.471001e-001 
5.532204e-001 
5.567536e-001 
5.589651e-001 
5.629618e-001 
5.675344e-001 
5.731769e-001 
5.784745e-001 
5.818633e-001 
5.856290e-001 
5.912148e-001 
5.974779e-001 
6.054086e-001 
6.138115e-001 
6.201777e-001 
6.259768e-001 
6.315508e-001 
6.388931e-001 
6.481152e-001 
6.566375e-001 
6.627826e-001 
6.692293e-001 
6.765736e-001 
6.846180e-001 
6.931589e-001 
6.999940e-001 
7.050312e-001 
7.081389e-001 
7.109068e-001 
7.153810e-001 
7.206300e-001 
7.243260e-001 
7.252746e-001 
7.225104e-001 
7.179748e-001 
7.129491e-001 
7.087832e-001 
7.039343e-001 
6.954211e-001 
6.829750e-001 
6.675526e-001 
6.495147e-001 
6.294877e-001 
6.062972e-001 
5.809184e-001 
5.555761e-001 
5.262159e-001 
4.947801e-001 
4.627235e-001 
4.281886e-001 
3.914395e-001 
3.533399e-001 
3.163916e-001 
2.840517e-001 
2.526866e-001 
2.182528e-001 
1.846500e-001 
1.532154e-001 
1.238782e-001 
9.789768e-002 
7.656141e-002 
5.951690e-002 
4.242665e-002 
2.552739e-002 
1.040055e-002 
-5.136008e-004 
-7.677766e-003 
-1.486561e-002 
-2.174565e-002 
-2.650111e-002 
-3.188421e-002 
-3.615542e-002 
-3.661050e-002 
-3.792076e-002 
-3.836562e-002 
-3.958362e-002 
-4.179822e-002 
-4.171975e-002 
-4.133270e-002 
-4.186200e-002 
-4.115169e-002 
-4.181356e-002 
-4.258644e-002 
-4.135296e-002 
-4.044016e-002 
-3.917118e-002 
-3.805173e-002 
-3.695180e-002 
-3.422235e-002 
-3.089303e-002 
-2.864724e-002 
-2.794860e-002 
-2.859728e-002 
-2.871405e-002 
-2.659631e-002 
-2.192971e-002 
-1.667538e-002 
-1.259484e-002 
-1.069052e-002 
-1.080081e-002 
-9.554737e-003 
-5.529058e-003 
-4.642062e-004 
3.835471e-003 
6.669760e-003 
8.424741e-003 
1.017873e-002 
1.160240e-002 
1.365062e-002 
1.597932e-002 
1.670571e-002 
1.787276e-002 
1.975407e-002 
2.259096e-002 
2.550967e-002 
2.587559e-002 
2.413389e-002 
2.295168e-002 
2.253443e-002 
2.490175e-002 
2.778727e-002 
2.792379e-002 
2.646093e-002 
2.381796e-002 
2.054340e-002 
2.070877e-002 
2.267984e-002 
2.250773e-002 
2.006732e-002 
1.573496e-002 
1.345803e-002 
1.373398e-002 
1.366686e-002 
1.249229e-002 
1.134309e-002 
7.072913e-003 
1.924980e-003 
1.255604e-003 
3.357306e-003 
4.588051e-003 
2.644562e-003 
-1.459334e-003 
-3.773933e-003 
-4.132968e-003 
-5.095047e-003 
-5.407477e-003 
-4.428868e-003 
-6.091512e-003 
-8.356167e-003 
-8.759922e-003 
-6.120262e-003 
-1.699486e-003 
9.331510e-004 
2.846690e-003 
6.586022e-003 
1.265873e-002 
1.834840e-002 
2.369202e-002 
2.853845e-002 
3.373930e-002 
3.853758e-002 
4.346619e-002 
4.922427e-002 
5.289147e-002 
5.330492e-002 
5.125211e-002 
4.895889e-002 
4.709205e-002 
4.498502e-002 
3.984383e-002 
3.115853e-002 
2.004887e-002 
7.532668e-003 
-3.607888e-003 
-1.294656e-002 
-2.294437e-002 
-3.446965e-002 
-4.674468e-002 
-5.919943e-002 
-6.971526e-002 
-7.836603e-002 
-8.660168e-002 
-9.463546e-002 
-1.027253e-001 
-1.101446e-001 
-1.145228e-001 
-1.168263e-001 
-1.183746e-001 
-1.188248e-001 
-1.186359e-001 
-1.155004e-001 
-1.099150e-001 
-1.042152e-001 
-9.717276e-002 
-9.079348e-002 
-8.591812e-002 
-7.913725e-002 
-7.093324e-002 
-6.226301e-002 
-5.342396e-002 
-4.856582e-002 
-4.511721e-002 
-3.852015e-002 
-3.167523e-002 
-2.453601e-002 
-1.871991e-002 
-1.620970e-002 
-1.457873e-002 
-1.358828e-002 
-1.348114e-002 
-1.114331e-002 
-7.847589e-003 
-7.643413e-003 
-9.048688e-003 
-1.001841e-002 
-8.434399e-003 
-5.915270e-003 
-5.333374e-003 
-6.142917e-003 
-6.521180e-003 
-5.703586e-003 
-4.997413e-003 
-4.791029e-003 
-5.197448e-003 
-5.874154e-003 
-8.893412e-003 
-1.213752e-002 
-1.337489e-002 
-1.330961e-002 
-1.303528e-002 
-1.562766e-002 
-1.979511e-002 
-2.144681e-002 
-2.321514e-002 
-2.978415e-002 
-4.264904e-002 
-6.537310e-002 
-9.991701e-002 
-1.449618e-001 
-2.005091e-001 
-2.666182e-001 
-3.440295e-001 
-4.357224e-001 
-5.363250e-001 
-6.380382e-001 
-7.407587e-001 
-8.478087e-001 
-9.559897e-001 
-1.065036e+000 
-1.172279e+000 
-1.271335e+000 
-1.359659e+000 
-1.431385e+000 
-1.488114e+000 
-1.538034e+000 
-1.578153e+000 
-1.598760e+000 
-1.599877e+000 
-1.581733e+000 
-1.547564e+000 
-1.501871e+000 
-1.445109e+000 
-1.382177e+000 
-1.314169e+000 
-1.237399e+000 
-1.152915e+000 
-1.064646e+000 
-9.732208e-001 
-8.789778e-001 
-7.808618e-001 
-6.794466e-001 
-5.795209e-001 
-4.814464e-001 
-3.858416e-001 
-2.930724e-001 
-2.011656e-001 
-1.106036e-001 
-2.418892e-002 
5.642100e-002 
1.296262e-001 
1.951301e-001 
2.551418e-001 
3.078519e-001 
3.526234e-001 
3.907602e-001 
4.241487e-001 
4.519228e-001 
4.742264e-001 
4.921153e-001 
5.054097e-001 
5.138912e-001 
5.196617e-001 
5.261935e-001 
5.357572e-001 
5.461655e-001 
5.511475e-001 
5.525363e-001 
5.538779e-001 
5.564463e-001 
5.598128e-001 
5.651143e-001 
5.704846e-001 
5.742434e-001 
5.755448e-001 
5.769692e-001 
5.814872e-001 
5.887547e-001 
5.962203e-001 
6.005613e-001 
6.046693e-001 
6.099213e-001 
6.159229e-001 
6.234555e-001 
6.325322e-001 
6.396657e-001 
6.462382e-001 
6.531071e-001 
6.607424e-001 
6.708562e-001 
6.798923e-001 
6.852456e-001 
6.898551e-001 
6.940493e-001 
6.982846e-001 
7.030313e-001 
7.062775e-001 
7.078937e-001 
7.070766e-001 
7.048617e-001 
7.037296e-001 
7.026930e-001 
6.996732e-001 
6.926996e-001 
6.812015e-001 
6.688756e-001 
6.559653e-001 
6.408984e-001 
6.240991e-001 
6.037009e-001 
5.781084e-001 
5.506335e-001 
5.216672e-001 
4.917014e-001 
4.613628e-001 
4.279206e-001 
3.920294e-001 
3.565998e-001 
3.209942e-001 
2.854720e-001 
2.522813e-001 
2.176532e-001 
1.841967e-001 
1.551387e-001 
1.282779e-001 
1.045695e-001 
8.344535e-002 
6.289850e-002 
4.436091e-002 
2.876011e-002 
1.547212e-002 
7.998696e-003 
1.837456e-003 
-6.448141e-003 
-1.410932e-002 
-2.031732e-002 
-2.328816e-002 
-2.459092e-002 
-2.635056e-002 
-2.817636e-002 
-3.037897e-002 
-3.325979e-002 
-3.479584e-002 
-3.527607e-002 
-3.468877e-002 
-3.444435e-002 
-3.629213e-002 
-3.745426e-002 
-3.740799e-002 
-3.683167e-002 
-3.618986e-002 
-3.681639e-002 
-3.715719e-002 
-3.600458e-002 
-3.496026e-002 
-3.276172e-002 
-3.158220e-002 
-3.226758e-002 
-3.264994e-002 
-3.221891e-002 
-3.019198e-002 
-2.671319e-002 
-2.495004e-002 
-2.400046e-002 
-2.360953e-002 
-2.380949e-002 
-2.080401e-002 
-1.715116e-002 
-1.468096e-002 
-1.332427e-002 
-1.287785e-002 
-1.140009e-002 
-8.005333e-003 
-4.451890e-003 
-1.846489e-003 
-9.243885e-004 
-7.664498e-004 
6.271081e-004 
2.906616e-003 
6.092831e-003 
8.464661e-003 
8.635305e-003 
7.499510e-003 
5.853734e-003 
7.187358e-003 
9.385585e-003 
1.012489e-002 
8.703245e-003 
6.644866e-003 
5.343761e-003 
5.818938e-003 
7.207748e-003 
8.446273e-003 
7.744940e-003 
4.662375e-003 
3.930733e-003 
3.514072e-003 
4.691365e-003 
6.409055e-003 
5.304391e-003 
3.146398e-003 
1.788871e-003 
2.022205e-004 
1.733030e-003 
3.430699e-003 
1.386613e-003 
-9.877518e-004 
-3.629446e-003 
-5.421574e-003 
-4.094516e-003 
-4.000477e-003 
-6.191597e-003 
-8.189716e-003 
-1.028099e-002 
-1.135632e-002 
-1.133140e-002 
-9.925370e-003 
-7.789210e-003 
-6.608668e-003 
-6.149889e-003 
-3.337094e-003 
2.594005e-003 
8.942731e-003 
1.239647e-002 
1.638302e-002 
2.299801e-002 
3.017614e-002 
3.726635e-002 
4.499753e-002 
5.244217e-002 
5.870050e-002 
6.074171e-002 
6.160339e-002 
6.430625e-002 
6.526816e-002 
6.389299e-002 
6.091018e-002 
5.670498e-002 
5.106849e-002 
4.284427e-002 
3.074327e-002 
1.903314e-002 
7.713138e-003 
-3.420290e-003 
-1.292823e-002 
-2.324867e-002 
-3.539816e-002 
-4.863838e-002 
-6.255160e-002 
-7.443545e-002 
-8.299933e-002 
-8.952533e-002 
-9.480080e-002 
-1.015698e-001 
-1.093856e-001 
-1.138452e-001 
-1.155477e-001 
-1.148573e-001 
-1.123356e-001 
-1.102150e-001 
-1.067761e-001 
-1.028972e-001 
-9.866226e-002 
-9.278781e-002 
-8.607683e-002 
-8.128530e-002 
-7.539095e-002 
-6.798272e-002 
-5.996979e-002 
-5.144221e-002 
-4.382969e-002 
-3.882969e-002 
-3.549270e-002 
-3.076681e-002 
-2.612140e-002 
-2.035284e-002 
-1.740424e-002 
-1.735971e-002 
-1.746753e-002 
-1.701027e-002 
-1.681305e-002 
-1.481212e-002 
-1.319332e-002 
-1.393294e-002 
-1.517665e-002 
-1.750176e-002 
-1.721924e-002 
-1.662087e-002 
-1.705532e-002 
-1.916252e-002 
-2.189997e-002 
-2.373780e-002 
-2.314969e-002 
-2.217758e-002 
-2.237208e-002 
-2.409867e-002 
-2.779718e-002 
-3.032513e-002 
-3.236128e-002 
-3.291419e-002 
-3.520054e-002 
-4.503362e-002 
-6.670690e-002 
-9.986788e-002 
-1.446950e-001 
-2.016469e-001 
-2.721524e-001 
-3.541180e-001 
-4.440040e-001 
-5.408854e-001 
-6.420396e-001 
-7.459283e-001 
-8.538111e-001 
-9.659834e-001 
-1.078329e+000 
-1.184321e+000 
-1.278312e+000 
-1.361544e+000 
-1.433926e+000 
-1.494866e+000 
-1.545868e+000 
-1.586624e+000 
-1.610514e+000 
-1.612967e+000 
-1.595617e+000 
-1.565119e+000 
-1.523191e+000 
-1.469945e+000 
-1.409944e+000 
-1.346309e+000 
-1.278221e+000 
-1.204280e+000 
-1.124018e+000 
-1.038301e+000 
-9.471385e-001 
-8.479024e-001 
-7.477121e-001 
-6.500411e-001 
-5.524508e-001 
-4.552744e-001 
-3.583892e-001 
-2.607016e-001 
-1.647125e-001 
-7.134793e-002 
1.610053e-002 
9.441903e-002 
1.673871e-001 
2.338855e-001 
2.913831e-001 
3.405443e-001 
3.831157e-001 
4.203684e-001 
4.527489e-001 
4.789069e-001 
4.985483e-001 
5.122917e-001 
5.206875e-001 
5.267994e-001 
5.341222e-001 
5.427361e-001 
5.500929e-001 
5.557207e-001 
5.595715e-001 
5.629388e-001 
5.678310e-001 
5.730643e-001 
5.784974e-001 
5.851156e-001 
5.904256e-001 
5.956932e-001 
6.029032e-001 
6.107374e-001 
6.187881e-001 
6.251161e-001 
6.302587e-001 
6.381363e-001 
6.480955e-001 
6.566466e-001 
6.650726e-001 
6.732696e-001 
6.806278e-001 
6.884246e-001 
6.971623e-001 
7.065750e-001 
7.161369e-001 
7.222756e-001 
7.261448e-001 
7.327824e-001 
7.395823e-001 
7.455065e-001 
7.510405e-001 
7.538550e-001 
7.553326e-001 
7.565201e-001 
7.553884e-001 
7.539458e-001 
7.508664e-001 
7.416271e-001 
7.299048e-001 
7.173086e-001 
7.015185e-001 
6.839361e-001 
6.621698e-001 
6.347462e-001 
6.051929e-001 
5.743484e-001 
5.415655e-001 
5.088759e-001 
4.727664e-001 
4.319691e-001 
3.919733e-001 
3.529169e-001 
3.154354e-001 
2.816891e-001 
2.488522e-001 
2.146979e-001 
1.825740e-001 
1.532118e-001 
1.291897e-001 
1.094260e-001 
9.003712e-002 
7.198823e-002 
5.642266e-002 
4.244353e-002 
3.190778e-002 
2.574021e-002 
2.110397e-002 
1.545237e-002 
8.307328e-003 
2.930031e-003 
1.095281e-003 
6.373354e-004 
-1.883657e-003 
-4.866408e-003 
-7.973198e-003 
-1.007977e-002 
-1.252882e-002 
-1.486119e-002 
-1.534878e-002 
-1.522001e-002 
-1.823144e-002 
-2.099176e-002 
-2.016620e-002 
-1.797465e-002 
-1.566358e-002 
-1.649788e-002 
-1.723908e-002 
-1.522505e-002 
-1.299561e-002 
-1.177971e-002 
-8.387394e-003 
-6.642066e-003 
-5.423868e-003 
-2.642584e-003 
4.675864e-004 
5.470735e-003 
1.106622e-002 
1.419179e-002 
1.554233e-002 
1.786287e-002 
2.120892e-002 
2.670562e-002 
3.049124e-002 
3.119415e-002 
3.215384e-002 
3.512100e-002 
3.702155e-002 
3.894747e-002 
4.232774e-002 
4.437710e-002 
4.418374e-002 
4.255614e-002 
4.145733e-002 
4.357622e-002 
4.511096e-002 
4.104835e-002 
3.775877e-002 
3.685775e-002 
3.580384e-002 
3.569913e-002 
3.457306e-002 
3.299585e-002 
3.249257e-002 
2.842228e-002 
2.391957e-002 
2.443443e-002 
2.363431e-002 
2.028795e-002 
1.815454e-002 
1.584447e-002 
1.491462e-002 
1.428165e-002 
1.192839e-002 
1.071219e-002 
9.731201e-003 
6.650774e-003 
6.107994e-003 
7.307779e-003 
6.183010e-003 
3.756584e-003 
9.674768e-004 
-5.811012e-004 
3.128267e-004 
2.668270e-003 
3.363258e-003 
2.856716e-003 
1.951560e-003 
2.295767e-003 
4.280248e-003 
7.561690e-003 
1.110014e-002 
1.459801e-002 
1.716626e-002 
1.873121e-002 
2.315610e-002 
3.065778e-002 
3.779955e-002 
4.182158e-002 
4.378973e-002 
4.689492e-002 
5.281775e-002 
5.761800e-002 
6.050238e-002 
6.222984e-002 
6.167605e-002 
5.948158e-002 
5.611625e-002 
5.277252e-002 
5.065499e-002 
4.559309e-002 
3.607969e-002 
2.631744e-002 
1.664436e-002 
6.914107e-003 
-3.284603e-003 
-1.535736e-002 
-2.807927e-002 
-3.934007e-002 
-4.948906e-002 
-5.851319e-002 
-6.738251e-002 
-7.797498e-002 
-8.777473e-002 
-9.637456e-002 
-1.031892e-001 
-1.078065e-001 
-1.105624e-001 
-1.133257e-001 
-1.174050e-001 
-1.193567e-001 
-1.174370e-001 
-1.127790e-001 
-1.073782e-001 
-1.022673e-001 
-9.750952e-002 
-9.164466e-002 
-8.540045e-002 
-7.808028e-002 
-6.859297e-002 
-6.174278e-002 
-5.641227e-002 
-4.932771e-002 
-4.196013e-002 
-3.451477e-002 
-2.731481e-002 
-2.237075e-002 
-1.785531e-002 
-1.421855e-002 
-1.225958e-002 
-8.144715e-003 
-4.773069e-003 
-4.286411e-003 
-4.800589e-003 
-4.808557e-003 
-3.909451e-003 
-2.271800e-003 
-2.285179e-003 
-3.068765e-003 
-3.882549e-003 
-4.925530e-003 
-5.291376e-003 
-5.498685e-003 
-5.493885e-003 
-7.367213e-003 
-9.423295e-003 
-1.066815e-002 
-1.066797e-002 
-9.572590e-003 
-9.436597e-003 
-1.264323e-002 
-1.666425e-002 
-1.901729e-002 
-1.970121e-002 
-1.790150e-002 
-1.836481e-002 
-2.099384e-002 
-2.806353e-002 
-4.284242e-002 
-6.594820e-002 
-9.790480e-002 
-1.410808e-001 
-1.969832e-001 
-2.661451e-001 
-3.459320e-001 
-4.342379e-001 
-5.316014e-001 
-6.343234e-001 
-7.414452e-001 
-8.511659e-001 
-9.615266e-001 
-1.070282e+000 
-1.174715e+000 
-1.272620e+000 
-1.363689e+000 
-1.442246e+000 
-1.505150e+000 
-1.555427e+000 
-1.592338e+000 
-1.615027e+000 
-1.623163e+000 
-1.615840e+000 
-1.593040e+000 
-1.555690e+000 
-1.505734e+000 
-1.450505e+000 
-1.392973e+000 
-1.328816e+000 
-1.259192e+000 
-1.184387e+000 
-1.103064e+000 
-1.017850e+000 
-9.309726e-001 
-8.418263e-001 
-7.498679e-001 
-6.539333e-001 
-5.563909e-001 
-4.613479e-001 
-3.671364e-001 
-2.735415e-001 
-1.817003e-001 
-9.226114e-002 
-5.135350e-003 
7.556843e-002 
1.460966e-001 
2.089362e-001 
2.658089e-001 
3.175689e-001 
3.642253e-001 
4.051464e-001 
4.381013e-001 
4.642364e-001 
4.843767e-001 
5.016131e-001 
5.177718e-001 
5.295058e-001 
5.371995e-001 
5.441152e-001 
5.508233e-001 
5.563267e-001 
5.633274e-001 
5.702799e-001 
5.748530e-001 
5.770306e-001 
5.779614e-001 
5.809702e-001 
5.866006e-001 
5.905214e-001 
5.919765e-001 
5.938314e-001 
5.958425e-001 
5.984638e-001 
6.022829e-001 
6.064746e-001 
6.116412e-001 
6.156761e-001 
6.182779e-001 
6.236010e-001 
6.316776e-001 
6.388826e-001 
6.450587e-001 
6.509328e-001 
6.585446e-001 
6.670879e-001 
6.745848e-001 
6.820114e-001 
6.898968e-001 
6.959720e-001 
7.014330e-001 
7.091185e-001 
7.169108e-001 
7.233080e-001 
7.270896e-001 
7.287658e-001 
7.299516e-001 
7.332165e-001 
7.357035e-001 
7.359893e-001 
7.342918e-001 
7.288468e-001 
7.234563e-001 
7.185876e-001 
7.107887e-001 
7.016743e-001 
6.915618e-001 
6.764739e-001 
6.596352e-001 
6.423059e-001 
6.218701e-001 
5.995008e-001 
5.720527e-001 
5.408523e-001 
5.107980e-001 
4.816029e-001 
4.499814e-001 
4.158896e-001 
3.787407e-001 
3.403715e-001 
3.036551e-001 
2.686146e-001 
2.359092e-001 
2.053215e-001 
1.747843e-001 
1.424292e-001 
1.128719e-001 
8.916962e-002 
6.929793e-002 
5.086616e-002 
3.326504e-002 
1.656081e-002 
3.622348e-003 
-7.111424e-003 
-1.624280e-002 
-2.179435e-002 
-2.734543e-002 
-3.451928e-002 
-3.954653e-002 
-4.233005e-002 
-4.358912e-002 
-4.404255e-002 
-4.699071e-002 
-5.036858e-002 
-5.243314e-002 
-5.342305e-002 
-5.295867e-002 
-5.198810e-002 
-5.231998e-002 
-5.383399e-002 
-5.618816e-002 
-5.726976e-002 
-5.761872e-002 
-5.743178e-002 
-5.752018e-002 
-5.875677e-002 
-5.877909e-002 
-5.819966e-002 
-5.915849e-002 
-5.972504e-002 
-5.960008e-002 
-5.988487e-002 
-5.759433e-002 
-5.416441e-002 
-5.003643e-002 
-4.713503e-002 
-4.739601e-002 
-4.702591e-002 
-4.330829e-002 
-3.724955e-002 
-3.123308e-002 
-2.608011e-002 
-2.269913e-002 
-2.055118e-002 
-1.910423e-002 
-1.559120e-002 
-9.500129e-003 
-4.190983e-003 
-2.190377e-003 
-2.130847e-003 
-4.792302e-005 
3.722990e-003 
7.139038e-003 
9.243094e-003 
1.057339e-002 
1.076202e-002 
9.607408e-003 
9.511740e-003 
1.242144e-002 
1.555419e-002 
1.615692e-002 
1.374551e-002 
1.195090e-002 
1.271115e-002 
1.356520e-002 
1.346824e-002 
1.425517e-002 
1.382693e-002 
1.220767e-002 
1.076524e-002 
9.615752e-003 
1.032613e-002 
1.013360e-002 
7.562981e-003 
6.236936e-003 
7.501712e-003 
7.032632e-003 
5.675773e-003 
3.395474e-003 
4.332099e-004 
-2.028108e-003 
-3.747294e-003 
-5.160977e-003 
-6.253526e-003 
-9.078518e-003 
-1.416440e-002 
-1.710165e-002 
-1.832343e-002 
-1.879884e-002 
-1.953318e-002 
-2.085661e-002 
-2.328789e-002 
-2.552646e-002 
-2.666102e-002 
-2.665834e-002 
-2.606031e-002 
-2.700188e-002 
-2.841321e-002 
-2.967797e-002 
-2.930205e-002 
-2.754118e-002 
-2.549978e-002 
-2.394071e-002 
-2.281123e-002 
-2.026630e-002 
-1.626622e-002 
-1.209307e-002 
-8.459932e-003 
-4.466610e-003 
-1.152058e-003 
2.291358e-003 
7.020949e-003 
1.316839e-002 
2.040070e-002 
2.458877e-002 
2.635196e-002 
2.831043e-002 
3.078124e-002 
3.223023e-002 
3.150659e-002 
2.772641e-002 
2.280229e-002 
1.771686e-002 
1.093740e-002 
4.171891e-003 
-3.173058e-003 
-1.186851e-002 
-2.278588e-002 
-3.448522e-002 
-4.507733e-002 
-5.322227e-002 
-6.217082e-002 
-7.402819e-002 
-8.564459e-002 
-9.562035e-002 
-1.033876e-001 
-1.096592e-001 
-1.150037e-001 
-1.199556e-001 
-1.239726e-001 
-1.287106e-001 
-1.325670e-001 
-1.349604e-001 
-1.369034e-001 
-1.396969e-001 
-1.424645e-001 
-1.417520e-001 
-1.385992e-001 
-1.337100e-001 
-1.288205e-001 
-1.250161e-001 
-1.210690e-001 
-1.149589e-001 
-1.077083e-001 
-9.783635e-002 
-8.815326e-002 
-8.189543e-002 
-7.696675e-002 
-7.215773e-002 
-6.666143e-002 
-5.873491e-002 
-5.051849e-002 
-4.433009e-002 
-4.011587e-002 
-3.743843e-002 
-3.439393e-002 
-3.200939e-002 
-3.070241e-002 
-3.069359e-002 
-3.050521e-002 
-2.970939e-002 
-2.879386e-002 
-2.761323e-002 
-2.547237e-002 
-2.546157e-002 
-2.702763e-002 
-2.723439e-002 
-2.548151e-002 
-2.175724e-002 
-1.973998e-002 
-2.071549e-002 
-2.203421e-002 
-2.293636e-002 
-2.353090e-002 
-2.263993e-002 
-2.162229e-002 
-2.216969e-002 
-2.350144e-002 
-2.640318e-002 
-2.849984e-002 
-2.869141e-002 
-2.969738e-002 
-3.141044e-002 
-3.342650e-002 
-3.574321e-002 
-3.894629e-002 
-4.513056e-002 
-5.907997e-002 
-8.230158e-002 
-1.169278e-001 
-1.620238e-001 
-2.166402e-001 
-2.834430e-001 
-3.625128e-001 
-4.526053e-001 
-5.515636e-001 
-6.552211e-001 
-7.600821e-001 
-8.668475e-001 
-9.747594e-001 
-1.085421e+000 
-1.195875e+000 
-1.297246e+000 
-1.387066e+000 
