52
0.6771
1.4581e+003
4.0157
-7.863298e-002 
-2.087257e-001 
-3.302299e-001 
-4.539180e-001 
-5.762275e-001 
-6.971652e-001 
-8.202897e-001 
-9.411548e-001 
-1.123713e+000 
-1.395690e+000 
-1.601784e+000 
-1.767273e+000 
-1.943686e+000 
-2.108896e+000 
-2.256345e+000 
-2.386993e+000 
-2.503045e+000 
-2.611533e+000 
-2.655921e+000 
-2.613072e+000 
-2.555117e+000 
-2.470342e+000 
-2.354935e+000 
-2.213913e+000 
-2.057715e+000 
-1.889495e+000 
-1.710072e+000 
-1.522665e+000 
-1.323815e+000 
-1.106981e+000 
-8.728680e-001 
-6.355484e-001 
-4.089348e-001 
-2.032176e-001 
-2.206275e-002 
1.380337e-001 
2.832599e-001 
4.188287e-001 
5.495976e-001 
6.732060e-001 
7.849324e-001 
8.857257e-001 
9.746774e-001 
1.055059e+000 
1.129878e+000 
1.198004e+000 
1.259658e+000 
1.315699e+000 
1.365161e+000 
1.410724e+000 
1.452735e+000 
1.488287e+000 
1.519627e+000 
1.546157e+000 
1.569598e+000 
1.591528e+000 
1.610877e+000 
1.627056e+000 
1.642136e+000 
1.653201e+000 
1.661134e+000 
1.667296e+000 
1.673036e+000 
1.679572e+000 
1.684378e+000 
1.689560e+000 
1.697164e+000 
1.707906e+000 
1.719620e+000 
1.729715e+000 
1.738475e+000 
1.749706e+000 
1.760200e+000 
1.770366e+000 
1.783856e+000 
1.797975e+000 
1.812302e+000 
1.825066e+000 
1.836458e+000 
1.851181e+000 
1.868314e+000 
1.883453e+000 
1.898289e+000 
1.914478e+000 
1.930188e+000 
1.944769e+000 
1.957776e+000 
1.969872e+000 
1.980615e+000 
1.990084e+000 
1.998007e+000 
2.005563e+000 
2.012914e+000 
2.016806e+000 
2.015911e+000 
2.012795e+000 
2.007281e+000 
2.000188e+000 
1.992607e+000 
1.980775e+000 
1.963460e+000 
1.942689e+000 
1.919283e+000 
1.892994e+000 
1.864634e+000 
1.832773e+000 
1.798531e+000 
1.761583e+000 
1.720476e+000 
1.676097e+000 
1.631413e+000 
1.584108e+000 
1.531768e+000 
1.478218e+000 
1.425298e+000 
1.372858e+000 
1.320519e+000 
1.266360e+000 
1.209585e+000 
1.154429e+000 
1.099387e+000 
1.045854e+000 
9.969454e-001 
9.491313e-001 
9.018924e-001 
8.564631e-001 
8.119353e-001 
7.707453e-001 
7.356591e-001 
7.019721e-001 
6.696494e-001 
6.391124e-001 
6.115824e-001 
5.882814e-001 
5.667709e-001 
5.462589e-001 
5.278106e-001 
5.115305e-001 
4.947501e-001 
4.798101e-001 
4.680795e-001 
4.587193e-001 
4.479309e-001 
4.365614e-001 
4.275168e-001 
4.205391e-001 
4.139273e-001 
4.064348e-001 
3.995035e-001 
3.926258e-001 
3.862565e-001 
3.811078e-001 
3.776208e-001 
3.741418e-001 
3.687897e-001 
3.625856e-001 
3.572275e-001 
3.525146e-001 
3.496372e-001 
3.485179e-001 
3.454660e-001 
3.409777e-001 
3.371383e-001 
3.336193e-001 
3.318784e-001 
3.293820e-001 
3.254513e-001 
3.228527e-001 
3.192593e-001 
3.151305e-001 
3.134956e-001 
3.107172e-001 
3.055659e-001 
3.013750e-001 
2.965448e-001 
2.929456e-001 
2.898775e-001 
2.855652e-001 
2.815665e-001 
2.760036e-001 
2.683883e-001 
2.620552e-001 
2.575562e-001 
2.514736e-001 
2.440729e-001 
2.358637e-001 
2.288026e-001 
2.230376e-001 
2.173328e-001 
2.111089e-001 
2.032131e-001 
1.950599e-001 
1.863068e-001 
1.786673e-001 
1.726675e-001 
1.676316e-001 
1.605941e-001 
1.510896e-001 
1.404387e-001 
1.322179e-001 
1.270554e-001 
1.208059e-001 
1.145124e-001 
1.082925e-001 
1.016151e-001 
9.334879e-002 
8.656998e-002 
8.105558e-002 
7.584132e-002 
6.969199e-002 
6.301286e-002 
5.893914e-002 
5.561248e-002 
5.064180e-002 
4.507028e-002 
4.037790e-002 
3.456803e-002 
2.980611e-002 
2.636895e-002 
2.341666e-002 
2.087923e-002 
1.667383e-002 
1.220822e-002 
8.552115e-003 
5.048207e-003 
1.311943e-003 
-1.518556e-003 
-5.232011e-003 
-8.093282e-003 
-9.212317e-003 
-1.113279e-002 
-1.352176e-002 
-1.717550e-002 
-2.159047e-002 
-2.523733e-002 
-2.754022e-002 
-2.927509e-002 
-3.033395e-002 
-3.437051e-002 
-4.002185e-002 
-4.366513e-002 
-4.747294e-002 
-5.115448e-002 
-5.375651e-002 
-5.654200e-002 
-6.002467e-002 
-6.388864e-002 
-6.803538e-002 
-7.051186e-002 
-7.381546e-002 
-7.887950e-002 
-8.189139e-002 
-8.164153e-002 
-7.670315e-002 
-6.870308e-002 
-6.138245e-002 
-5.528023e-002 
-4.929859e-002 
-4.360856e-002 
-3.841814e-002 
-4.110246e-002 
-6.681191e-002 
-1.278229e-001 
-2.112680e-001 
-2.796592e-001 
-3.170596e-001 
-3.399963e-001 
-3.661030e-001 
-4.015589e-001 
-4.542766e-001 
-5.316972e-001 
-6.157047e-001 
-6.622300e-001 
-6.647072e-001 
-6.687680e-001 
-7.028829e-001 
-7.552607e-001 
-8.064283e-001 
-8.487617e-001 
-8.758030e-001 
-8.739644e-001 
-8.468580e-001 
-8.284242e-001 
-8.407965e-001 
-8.755942e-001 
-9.173431e-001 
-9.630228e-001 
-1.015785e+000 
-1.074325e+000 
-1.134594e+000 
-1.194554e+000 
-1.255891e+000 
-1.322384e+000 
-1.397216e+000 
-1.482739e+000 
-1.584295e+000 
-1.698188e+000 
-1.818030e+000 
-1.941915e+000 
-2.071036e+000 
-2.208657e+000 
-2.357418e+000 
-2.516082e+000 
-2.683854e+000 
-2.860801e+000 
-3.037759e+000 
-3.209555e+000 
-3.375079e+000 
-3.529292e+000 
-3.665090e+000 
-3.777498e+000 
-3.861411e+000 
-3.913155e+000 
-3.933392e+000 
-3.919402e+000 
-3.873804e+000 
-3.793857e+000 
-3.675885e+000 
-3.525560e+000 
-3.350794e+000 
-3.156977e+000 
-2.949102e+000 
-2.727758e+000 
-2.491136e+000 
-2.242991e+000 
-1.984310e+000 
-1.725980e+000 
-1.481202e+000 
-1.255920e+000 
-1.050993e+000 
-8.639544e-001 
-6.906118e-001 
-5.326390e-001 
-3.914635e-001 
-2.627845e-001 
-1.455754e-001 
-4.077389e-002 
5.495921e-002 
1.438966e-001 
2.250498e-001 
2.980342e-001 
3.626852e-001 
4.209257e-001 
4.763301e-001 
5.274177e-001 
5.730181e-001 
6.158501e-001 
6.539900e-001 
6.874696e-001 
7.185119e-001 
7.470268e-001 
7.721023e-001 
7.933105e-001 
8.115885e-001 
8.289010e-001 
8.453377e-001 
8.613691e-001 
8.749063e-001 
8.865460e-001 
8.984744e-001 
9.106415e-001 
9.245869e-001 
9.408420e-001 
9.558992e-001 
9.703398e-001 
9.834556e-001 
9.953994e-001 
1.011511e+000 
1.028636e+000 
1.044948e+000 
1.061800e+000 
1.078443e+000 
1.094063e+000 
1.111079e+000 
1.127879e+000 
1.145747e+000 
1.164123e+000 
1.179544e+000 
1.195246e+000 
1.212100e+000 
1.227367e+000 
1.240389e+000 
1.253218e+000 
1.264361e+000 
1.277300e+000 
1.290041e+000 
1.299903e+000 
1.309015e+000 
1.316195e+000 
1.319678e+000 
1.322496e+000 
1.325224e+000 
1.326315e+000 
1.326046e+000 
1.318604e+000 
1.307383e+000 
1.296033e+000 
1.283291e+000 
1.267776e+000 
1.249136e+000 
1.226675e+000 
1.201041e+000 
1.170900e+000 
1.136075e+000 
1.101177e+000 
1.064229e+000 
1.022361e+000 
9.764278e-001 
9.289643e-001 
8.804973e-001 
8.300487e-001 
7.750657e-001 
7.191027e-001 
6.648541e-001 
6.096033e-001 
5.543830e-001 
5.007929e-001 
4.464058e-001 
3.910382e-001 
3.352756e-001 
2.838629e-001 
2.396401e-001 
1.972039e-001 
1.548486e-001 
1.138501e-001 
7.414552e-002 
3.772581e-002 
5.875837e-003 
-2.114995e-002 
-4.291597e-002 
-6.518379e-002 
-8.843093e-002 
-1.081879e-001 
-1.248733e-001 
-1.395905e-001 
-1.525150e-001 
-1.637781e-001 
-1.730516e-001 
-1.818711e-001 
-1.900660e-001 
-1.957414e-001 
-2.000037e-001 
-2.055277e-001 
-2.135196e-001 
-2.191912e-001 
-2.200350e-001 
-2.194137e-001 
-2.190658e-001 
-2.191437e-001 
-2.199849e-001 
-2.195190e-001 
-2.172724e-001 
-2.143017e-001 
-2.087652e-001 
-2.036044e-001 
-2.012051e-001 
-1.997665e-001 
-1.979440e-001 
-1.948399e-001 
-1.901302e-001 
-1.864795e-001 
-1.839053e-001 
-1.792406e-001 
-1.741289e-001 
-1.695542e-001 
-1.663250e-001 
-1.648457e-001 
-1.631303e-001 
-1.616125e-001 
-1.596432e-001 
-1.559637e-001 
-1.534215e-001 
-1.535602e-001 
-1.546872e-001 
-1.560574e-001 
-1.550460e-001 
-1.523508e-001 
-1.516451e-001 
-1.519105e-001 
-1.540319e-001 
-1.586962e-001 
-1.620973e-001 
-1.646281e-001 
-1.671439e-001 
-1.691880e-001 
-1.744120e-001 
-1.819850e-001 
-1.870474e-001 
-1.899473e-001 
-1.918002e-001 
-1.946624e-001 
-2.002980e-001 
-2.048206e-001 
-2.088434e-001 
-2.142205e-001 
-2.182648e-001 
-2.207584e-001 
-2.231750e-001 
-2.255719e-001 
-2.278876e-001 
-2.273442e-001 
-2.245740e-001 
-2.222535e-001 
-2.169076e-001 
-2.072943e-001 
-1.934062e-001 
-1.770541e-001 
-1.609792e-001 
-1.449491e-001 
-1.269193e-001 
-1.070913e-001 
-8.372845e-002 
-5.812772e-002 
-3.322192e-002 
-1.061705e-002 
5.481668e-003 
1.438339e-002 
1.899546e-002 
2.264143e-002 
2.409895e-002 
2.176588e-002 
1.270872e-002 
-1.912924e-003 
-2.161353e-002 
-4.810073e-002 
-7.943095e-002 
-1.098413e-001 
-1.356975e-001 
-1.601621e-001 
-1.862379e-001 
-2.146109e-001 
-2.431762e-001 
-2.723734e-001 
-3.005243e-001 
-3.221238e-001 
-3.338360e-001 
-3.393724e-001 
-3.464409e-001 
-3.561206e-001 
-3.654577e-001 
-3.719088e-001 
-3.750315e-001 
-3.746574e-001 
-3.725703e-001 
-3.710747e-001 
-3.723797e-001 
-3.759144e-001 
-3.793232e-001 
-3.823626e-001 
-3.847150e-001 
-3.887064e-001 
-3.934636e-001 
-3.974136e-001 
-4.007981e-001 
-4.049135e-001 
-4.130910e-001 
-4.272626e-001 
-4.488528e-001 
-4.891712e-001 
-5.641713e-001 
-6.671240e-001 
-7.671625e-001 
-8.406457e-001 
-8.920546e-001 
-9.366994e-001 
-9.795139e-001 
-1.027955e+000 
-1.097736e+000 
-1.183087e+000 
-1.242921e+000 
-1.250597e+000 
-1.233034e+000 
-1.229909e+000 
-1.247692e+000 
-1.270802e+000 
-1.290074e+000 
-1.297469e+000 
-1.276554e+000 
-1.222894e+000 
-1.163718e+000 
-1.131045e+000 
-1.129356e+000 
-1.145197e+000 
-1.166675e+000 
-1.195431e+000 
-1.236363e+000 
-1.287439e+000 
-1.345376e+000 
-1.407268e+000 
-1.470105e+000 
-1.537678e+000 
-1.616876e+000 
-1.708979e+000 
-1.819120e+000 
-1.943100e+000 
-2.071292e+000 
-2.201945e+000 
-2.334987e+000 
-2.473329e+000 
-2.624295e+000 
-2.786513e+000 
-2.954776e+000 
-3.127911e+000 
-3.297347e+000 
-3.462353e+000 
-3.622065e+000 
-3.768443e+000 
-3.896714e+000 
-4.004744e+000 
-4.086447e+000 
-4.139291e+000 
-4.162214e+000 
-4.152631e+000 
-4.112526e+000 
-4.036782e+000 
-3.923081e+000 
-3.778876e+000 
-3.613268e+000 
-3.427992e+000 
-3.223449e+000 
-3.001064e+000 
-2.762029e+000 
-2.508105e+000 
-2.243561e+000 
-1.977493e+000 
-1.719452e+000 
-1.475767e+000 
-1.247470e+000 
-1.033564e+000 
-8.346251e-001 
-6.499375e-001 
-4.778815e-001 
-3.216150e-001 
-1.801893e-001 
-5.127480e-002 
6.450536e-002 
1.701800e-001 
2.684304e-001 
3.576091e-001 
4.385924e-001 
5.110767e-001 
5.728422e-001 
6.292778e-001 
6.820869e-001 
7.295264e-001 
7.721490e-001 
8.088715e-001 
8.405187e-001 
8.692262e-001 
8.940823e-001 
9.161263e-001 
9.367504e-001 
9.547160e-001 
9.702952e-001 
9.830912e-001 
9.952571e-001 
1.007855e+000 
1.018613e+000 
1.027986e+000 
1.037008e+000 
1.046138e+000 
1.058593e+000 
1.071151e+000 
1.082165e+000 
1.094386e+000 
1.105879e+000 
1.116478e+000 
1.129897e+000 
1.144819e+000 
1.159641e+000 
1.174663e+000 
1.186526e+000 
1.198460e+000 
1.213742e+000 
1.228722e+000 
1.244133e+000 
1.262426e+000 
1.278872e+000 
1.293838e+000 
1.310286e+000 
1.325863e+000 
1.341965e+000 
1.357829e+000 
1.371474e+000 
1.386510e+000 
1.401710e+000 
1.413786e+000 
1.425087e+000 
1.434589e+000 
1.441741e+000 
1.448048e+000 
1.455432e+000 
1.462745e+000 
1.465971e+000 
1.464604e+000 
1.460173e+000 
1.452446e+000 
1.443195e+000 
1.432634e+000 
1.419639e+000 
1.405398e+000 
1.384146e+000 
1.357957e+000 
1.331285e+000 
1.302876e+000 
1.271446e+000 
1.237952e+000 
1.200917e+000 
1.161957e+000 
1.119355e+000 
1.071710e+000 
1.021660e+000 
9.698523e-001 
9.170158e-001 
8.637531e-001 
8.119634e-001 
7.601320e-001 
7.056122e-001 
6.480285e-001 
5.912161e-001 
5.367815e-001 
4.860341e-001 
4.370368e-001 
3.902688e-001 
3.450903e-001 
2.985417e-001 
2.524464e-001 
2.113670e-001 
1.759395e-001 
1.440181e-001 
1.135765e-001 
8.456800e-002 
5.888441e-002 
3.514011e-002 
1.226292e-002 
-8.265429e-003 
-2.580395e-002 
-4.151558e-002 
-5.532730e-002 
-6.680184e-002 
-7.685581e-002 
-8.557926e-002 
-9.400882e-002 
-1.028969e-001 
-1.084977e-001 
-1.114216e-001 
-1.133901e-001 
-1.153172e-001 
-1.179177e-001 
-1.212749e-001 
-1.229075e-001 
-1.236187e-001 
-1.229098e-001 
-1.209138e-001 
-1.210806e-001 
-1.220584e-001 
-1.216593e-001 
-1.182440e-001 
-1.141483e-001 
-1.085294e-001 
-1.009010e-001 
-9.048304e-002 
-7.811631e-002 
-6.402623e-002 
-4.797672e-002 
-3.051125e-002 
-1.172956e-002 
7.565592e-003 
3.108572e-002 
5.872805e-002 
8.698084e-002 
1.139290e-001 
1.393685e-001 
1.612987e-001 
1.814640e-001 
1.990759e-001 
2.111254e-001 
2.194234e-001 
2.219476e-001 
2.178991e-001 
2.106598e-001 
1.990197e-001 
1.819794e-001 
1.619205e-001 
1.364811e-001 
1.079922e-001 
8.042866e-002 
5.209749e-002 
2.333975e-002 
-6.271116e-003 
-3.887981e-002 
-7.075239e-002 
-9.909973e-002 
-1.243126e-001 
-1.442200e-001 
-1.615172e-001 
-1.788712e-001 
-1.937335e-001 
-2.055344e-001 
-2.146432e-001 
-2.202838e-001 
-2.238710e-001 
-2.273099e-001 
-2.311728e-001 
-2.366236e-001 
-2.403057e-001 
-2.409320e-001 
-2.418867e-001 
-2.434020e-001 
-2.441500e-001 
-2.458654e-001 
-2.499354e-001 
-2.543574e-001 
-2.585626e-001 
-2.619865e-001 
-2.656552e-001 
-2.695689e-001 
-2.729065e-001 
-2.772958e-001 
-2.854906e-001 
-2.936105e-001 
-3.000687e-001 
-3.057848e-001 
-3.092287e-001 
-3.123567e-001 
-3.166434e-001 
-3.212041e-001 
-3.265524e-001 
-3.316732e-001 
-3.335791e-001 
-3.350895e-001 
-3.357913e-001 
-3.367970e-001 
-3.401311e-001 
-3.427718e-001 
-3.428201e-001 
-3.420080e-001 
-3.421674e-001 
-3.421270e-001 
-3.420322e-001 
-3.416103e-001 
-3.409102e-001 
-3.405845e-001 
-3.401458e-001 
-3.393787e-001 
-3.387235e-001 
-3.390676e-001 
-3.371295e-001 
-3.347128e-001 
-3.333454e-001 
-3.324747e-001 
-3.326951e-001 
-3.325051e-001 
-3.298589e-001 
-3.271841e-001 
-3.271780e-001 
-3.263735e-001 
-3.264131e-001 
-3.259732e-001 
-3.248067e-001 
-3.238331e-001 
-3.223087e-001 
-3.206691e-001 
-3.204154e-001 
-3.196274e-001 
-3.165116e-001 
-3.136176e-001 
-3.128568e-001 
-3.156243e-001 
-3.197330e-001 
-3.233832e-001 
-3.264423e-001 
-3.314255e-001 
-3.461892e-001 
-3.854128e-001 
-4.606466e-001 
-5.564227e-001 
-6.386527e-001 
-6.956305e-001 
-7.382809e-001 
-7.769391e-001 
-8.199122e-001 
-8.756755e-001 
-9.499850e-001 
-1.027393e+000 
-1.067088e+000 
-1.064117e+000 
-1.055751e+000 
-1.064165e+000 
-1.084608e+000 
-1.106650e+000 
-1.122878e+000 
-1.124656e+000 
-1.099729e+000 
-1.049680e+000 
-1.004818e+000 
-9.861873e-001 
-9.889465e-001 
-1.000191e+000 
-1.015916e+000 
-1.039744e+000 
-1.073795e+000 
-1.116932e+000 
-1.167676e+000 
-1.223773e+000 
-1.281097e+000 
-1.340189e+000 
-1.402468e+000 
-1.473574e+000 
-1.558587e+000 
-1.657412e+000 
-1.765928e+000 
-1.877740e+000 
-1.987589e+000 
-2.099070e+000 
-2.218594e+000 
-2.346704e+000 
-2.482799e+000 
-2.622800e+000 
-2.762521e+000 
-2.900013e+000 
-3.035167e+000 
-3.167504e+000 
-3.295230e+000 
-3.408437e+000 
-3.498252e+000 
-3.562372e+000 
-3.601936e+000 
-3.617695e+000 
-3.610176e+000 
-3.577732e+000 
-3.516179e+000 
-3.423656e+000 
-3.300894e+000 
-3.156178e+000 
-2.997939e+000 
-2.826436e+000 
-2.637607e+000 
-2.434299e+000 
-2.218598e+000 
-1.993105e+000 
-1.763247e+000 
-1.536595e+000 
-1.320933e+000 
-1.119149e+000 
-9.299544e-001 
-7.534272e-001 
-5.930912e-001 
-4.459441e-001 
-3.069336e-001 
-1.763946e-001 
-5.637986e-002 
5.280473e-002 
1.518676e-001 
2.446763e-001 
3.328631e-001 
4.139968e-001 
4.891717e-001 
5.595659e-001 
6.226723e-001 
6.796975e-001 
7.325014e-001 
7.817232e-001 
8.271613e-001 
8.668963e-001 
9.016508e-001 
9.348537e-001 
9.661974e-001 
9.929107e-001 
1.016460e+000 
1.037176e+000 
1.055181e+000 
1.071361e+000 
1.087027e+000 
1.104026e+000 
1.119089e+000 
1.130162e+000 
1.139299e+000 
1.149924e+000 
1.162366e+000 
1.175645e+000 
1.188620e+000 
1.201915e+000 
1.214092e+000 
1.223294e+000 
1.233945e+000 
1.247110e+000 
1.261186e+000 
1.272576e+000 
1.282862e+000 
1.295794e+000 
1.310247e+000 
1.322574e+000 
1.334738e+000 
1.348672e+000 
1.362787e+000 
1.376390e+000 
1.390297e+000 
1.407680e+000 
1.426417e+000 
1.443377e+000 
1.458309e+000 
1.474020e+000 
1.490337e+000 
1.506657e+000 
1.523674e+000 
1.539665e+000 
1.555313e+000 
1.570691e+000 
1.583219e+000 
1.592804e+000 
1.602524e+000 
1.611620e+000 
1.620445e+000 
1.627395e+000 
1.630185e+000 
1.631772e+000 
1.629602e+000 
1.622636e+000 
1.614769e+000 
1.607045e+000 
1.596944e+000 
1.582952e+000 
1.564926e+000 
1.544005e+000 
1.521479e+000 
1.495865e+000 
1.468246e+000 
1.438570e+000 
1.405307e+000 
1.368144e+000 
1.330256e+000 
1.294736e+000 
1.258980e+000 
1.222411e+000 
1.184654e+000 
1.146854e+000 
1.110807e+000 
1.075631e+000 
1.040714e+000 
1.007334e+000 
9.742103e-001 
9.402849e-001 
9.091574e-001 
8.797964e-001 
8.514191e-001 
8.218192e-001 
7.874750e-001 
7.501095e-001 
7.124809e-001 
6.739494e-001 
6.352973e-001 
5.952020e-001 
5.494987e-001 
5.002578e-001 
4.489645e-001 
3.982059e-001 
3.510174e-001 
3.065026e-001 
2.627077e-001 
2.204104e-001 
1.778846e-001 
1.371623e-001 
1.012747e-001 
6.928971e-002 
4.175543e-002 
1.950246e-002 
1.037869e-003 
-1.413864e-002 
-2.558431e-002 
-3.439329e-002 
-3.934756e-002 
-4.261691e-002 
-4.422841e-002 
-4.158867e-002 
-3.722880e-002 
-3.536231e-002 
-3.495168e-002 
-3.434610e-002 
-3.168809e-002 
-2.717404e-002 
-2.319073e-002 
-1.884575e-002 
-1.595058e-002 
-1.707910e-002 
-1.891216e-002 
-1.943381e-002 
-1.850791e-002 
-1.626729e-002 
-1.462636e-002 
-1.478624e-002 
-1.647171e-002 
-1.868048e-002 
-1.928962e-002 
-1.820993e-002 
-1.737693e-002 
-1.564411e-002 
-1.354519e-002 
-1.144550e-002 
-1.093017e-002 
-1.081217e-002 
-9.572177e-003 
-7.027159e-003 
-3.616363e-003 
-5.982694e-005 
2.837729e-003 
4.127331e-003 
3.967542e-003 
3.058777e-003 
4.158346e-003 
5.136257e-003 
6.691125e-003 
5.916272e-003 
1.483549e-003 
-3.207809e-003 
-6.890473e-003 
-9.211931e-003 
-9.739687e-003 
-1.181732e-002 
-1.627784e-002 
-2.041934e-002 
-2.559834e-002 
-2.824027e-002 
-2.931653e-002 
-3.093967e-002 
-3.304677e-002 
-3.578109e-002 
-3.953615e-002 
-4.190141e-002 
-4.320971e-002 
-4.388244e-002 
-4.434851e-002 
-4.604976e-002 
-4.685961e-002 
-4.621738e-002 
-4.561019e-002 
-4.646119e-002 
-4.693931e-002 
-4.707882e-002 
-4.726632e-002 
-4.606081e-002 
-4.401979e-002 
-4.169046e-002 
-4.018321e-002 
-4.043675e-002 
-3.869986e-002 
-3.404910e-002 
-2.978803e-002 
-2.568308e-002 
-2.153636e-002 
-1.803511e-002 
-1.389920e-002 
-1.090602e-002 
-6.154129e-003 
-5.441568e-004 
3.603601e-003 
8.015658e-003 
1.304880e-002 
1.884026e-002 
2.533564e-002 
2.921469e-002 
3.205186e-002 
3.715260e-002 
4.193896e-002 
4.698802e-002 
5.220529e-002 
5.695290e-002 
6.171197e-002 
6.510271e-002 
6.849062e-002 
7.397036e-002 
7.948998e-002 
8.335792e-002 
8.528178e-002 
8.750973e-002 
9.006819e-002 
9.199795e-002 
9.444874e-002 
9.672432e-002 
9.569716e-002 
9.455498e-002 
9.428166e-002 
9.469469e-002 
9.627708e-002 
9.534098e-002 
9.353714e-002 
9.240696e-002 
8.893445e-002 
8.458514e-002 
8.327798e-002 
8.165770e-002 
7.813844e-002 
7.213218e-002 
6.286334e-002 
4.784958e-002 
1.058599e-002 
-6.569702e-002 
-1.674042e-001 
-2.578007e-001 
-3.214758e-001 
-3.666405e-001 
-4.066000e-001 
-4.496065e-001 
-5.039904e-001 
-5.810909e-001 
-6.672915e-001 
-7.175785e-001 
-7.171628e-001 
-7.038286e-001 
-7.086413e-001 
-7.313056e-001 
-7.573576e-001 
-7.763580e-001 
-7.800371e-001 
-7.558124e-001 
-7.031177e-001 
-6.502411e-001 
-6.225352e-001 
-6.201205e-001 
-6.310838e-001 
-6.502678e-001 
-6.786349e-001 
-7.172809e-001 
-7.642900e-001 
-8.122859e-001 
-8.612595e-001 
-9.151058e-001 
-9.775279e-001 
-1.052662e+000 
-1.142209e+000 
-1.241600e+000 
-1.347229e+000 
-1.453806e+000 
-1.561650e+000 
-1.677206e+000 
-1.801150e+000 
-1.936594e+000 
-2.083879e+000 
-2.237175e+000 
-2.393311e+000 
-2.549157e+000 
-2.700100e+000 
-2.841381e+000 
-2.965809e+000 
-3.072245e+000 
-3.159809e+000 
-3.221357e+000 
-3.254690e+000 
-3.261052e+000 
-3.237207e+000 
-3.182088e+000 
-3.092948e+000 
-2.975296e+000 
-2.835857e+000 
-2.673682e+000 
-2.491887e+000 
-2.293627e+000 
-2.077964e+000 
-1.846421e+000 
-1.604263e+000 
-1.356894e+000 
-1.115672e+000 
-8.865877e-001 
-6.722694e-001 
-4.752964e-001 
-2.939219e-001 
-1.253502e-001 
3.054596e-002 
1.743460e-001 
3.072147e-001 
4.280557e-001 
5.378058e-001 
6.391462e-001 
7.310604e-001 
8.138817e-001 
8.905816e-001 
9.607322e-001 
1.023975e+000 
1.081178e+000 
1.132727e+000 
1.179357e+000 
1.222140e+000 
1.259218e+000 
1.292768e+000 
1.325977e+000 
1.356196e+000 
1.380661e+000 
1.401049e+000 
1.419437e+000 
1.436056e+000 
1.452750e+000 
1.467467e+000 
1.480815e+000 
1.493486e+000 
1.504349e+000 
1.516626e+000 
1.533755e+000 
1.553716e+000 
1.575405e+000 
1.598156e+000 
1.621405e+000 
1.646129e+000 
1.671925e+000 
1.700084e+000 
1.730216e+000 
1.761251e+000 
1.792952e+000 
1.826021e+000 
1.859484e+000 
1.892109e+000 
1.919153e+000 
1.942009e+000 
1.961401e+000 
1.977267e+000 
1.992103e+000 
2.004797e+000 
2.011601e+000 
2.011730e+000 
2.006226e+000 
1.997189e+000 
1.987690e+000 
1.977079e+000 
1.966256e+000 
1.955496e+000 
1.941377e+000 
1.923842e+000 
1.908158e+000 
1.893546e+000 
1.878984e+000 
1.864531e+000 
1.852107e+000 
1.840849e+000 
1.830111e+000 
1.818856e+000 
1.807296e+000 
1.795127e+000 
1.780425e+000 
1.764094e+000 
1.747932e+000 
1.729686e+000 
1.706291e+000 
1.680117e+000 
1.649877e+000 
1.615240e+000 
1.578620e+000 
1.539174e+000 
1.495603e+000 
1.448482e+000 
1.397002e+000 
1.344300e+000 
1.291163e+000 
1.237037e+000 
1.181645e+000 
1.123797e+000 
1.063777e+000 
1.003605e+000 
9.444990e-001 
8.861036e-001 
8.286856e-001 
7.726931e-001 
7.198689e-001 
6.683526e-001 
6.196899e-001 
5.751471e-001 
5.329407e-001 
4.915584e-001 
4.520003e-001 
4.165996e-001 
3.855072e-001 
3.570965e-001 
3.294769e-001 
3.044135e-001 
2.817929e-001 
2.611383e-001 
2.426713e-001 
2.278857e-001 
2.153780e-001 
2.035104e-001 
1.919963e-001 
1.823678e-001 
1.752908e-001 
1.688316e-001 
1.629086e-001 
1.568876e-001 
1.524471e-001 
1.493669e-001 
1.483462e-001 
1.484018e-001 
1.481268e-001 
1.463364e-001 
1.443848e-001 
1.431425e-001 
1.430406e-001 
1.462476e-001 
1.495642e-001 
1.522075e-001 
1.538984e-001 
1.552285e-001 
1.574828e-001 
1.616791e-001 
1.651150e-001 
1.684162e-001 
1.723588e-001 
1.756065e-001 
1.795644e-001 
1.829698e-001 
1.848884e-001 
1.881972e-001 
1.929866e-001 
1.964002e-001 
2.011415e-001 
2.069143e-001 
2.116082e-001 
2.140095e-001 
2.150626e-001 
2.185923e-001 
2.256874e-001 
2.315576e-001 
2.353575e-001 
2.396674e-001 
2.434373e-001 
2.455076e-001 
2.470447e-001 
2.501913e-001 
2.545739e-001 
2.565932e-001 
2.548774e-001 
2.534922e-001 
2.537049e-001 
2.532807e-001 
2.508677e-001 
2.481747e-001 
2.467806e-001 
2.454506e-001 
2.413753e-001 
2.364741e-001 
2.325415e-001 
2.278848e-001 
2.216781e-001 
2.166138e-001 
2.145127e-001 
2.129362e-001 
2.083175e-001 
2.007320e-001 
1.947566e-001 
1.906225e-001 
1.865591e-001 
1.825977e-001 
1.796824e-001 
1.749083e-001 
1.683607e-001 
1.617752e-001 
1.573864e-001 
1.553513e-001 
1.523472e-001 
1.485547e-001 
1.451428e-001 
1.423899e-001 
1.383827e-001 
1.347402e-001 
1.321630e-001 
1.297126e-001 
1.257973e-001 
1.229344e-001 
1.221986e-001 
1.213125e-001 
1.193873e-001 
1.150261e-001 
1.122247e-001 
1.109175e-001 
1.088533e-001 
1.066208e-001 
1.062482e-001 
1.040971e-001 
1.003373e-001 
9.734384e-002 
9.555892e-002 
9.539504e-002 
9.388300e-002 
9.148111e-002 
8.972695e-002 
8.895857e-002 
8.711492e-002 
8.553166e-002 
8.347737e-002 
8.085405e-002 
7.866574e-002 
7.751451e-002 
7.761023e-002 
7.754826e-002 
7.547034e-002 
7.216541e-002 
6.928399e-002 
6.658450e-002 
6.577118e-002 
6.526471e-002 
6.323325e-002 
5.979474e-002 
5.499263e-002 
5.072480e-002 
4.857606e-002 
4.556116e-002 
4.041455e-002 
3.474490e-002 
2.701681e-002 
1.745873e-002 
6.825154e-003 
-8.313111e-003 
-3.932002e-002 
-1.050716e-001 
-2.084152e-001 
-3.162848e-001 
-3.979811e-001 
-4.547087e-001 
-5.014058e-001 
-5.476928e-001 
-6.014875e-001 
-6.746351e-001 
-7.677939e-001 
-8.451869e-001 
-8.698079e-001 
-8.609592e-001 
-8.604614e-001 
-8.819475e-001 
-9.120700e-001 
-9.409263e-001 
-9.602148e-001 
-9.559553e-001 
-9.170513e-001 
-8.616922e-001 
-8.247147e-001 
-8.202065e-001 
-8.381658e-001 
-8.655996e-001 
-9.010297e-001 
-9.427421e-001 
-9.896805e-001 
-1.041173e+000 
-1.097605e+000 
-1.160043e+000 
-1.230922e+000 
-1.312493e+000 
-1.405417e+000 
-1.508454e+000 
-1.617970e+000 
-1.731013e+000 
-1.849171e+000 
-1.973769e+000 
-2.106082e+000 
-2.249177e+000 
-2.403738e+000 
-2.565115e+000 
-2.728639e+000 
-2.886883e+000 
-3.031899e+000 
-3.162383e+000 
-3.274517e+000 
-3.364843e+000 
-3.427078e+000 
-3.458027e+000 
-3.456879e+000 
-3.423418e+000 
-3.354704e+000 
-3.250902e+000 
-3.116375e+000 
-2.953874e+000 
-2.764741e+000 
-2.552229e+000 
-2.324337e+000 
-2.081828e+000 
-1.827334e+000 
-1.565236e+000 
-1.302091e+000 
-1.047679e+000 
-8.090439e-001 
-5.902334e-001 
-3.952002e-001 
-2.223980e-001 
-7.028589e-002 
6.022938e-002 
1.735982e-001 
2.718990e-001 
3.571160e-001 
4.315140e-001 
4.953667e-001 
5.500417e-001 
5.961262e-001 
6.322745e-001 
6.628585e-001 
6.925117e-001 
7.211342e-001 
7.490691e-001 
7.756731e-001 
8.021816e-001 
8.284290e-001 
8.541568e-001 
8.795429e-001 
9.064815e-001 
9.318093e-001 
9.517495e-001 
9.686362e-001 
9.858553e-001 
1.003974e+000 
1.021060e+000 
1.035537e+000 
1.048104e+000 
1.060029e+000 
1.070650e+000 
1.081647e+000 
1.094555e+000 
1.108428e+000 
1.122348e+000 
1.135081e+000 
1.146711e+000 
1.159649e+000 
1.173469e+000 
1.188122e+000 
1.203355e+000 
1.220590e+000 
1.239399e+000 
1.259760e+000 
1.280906e+000 
1.301558e+000 
1.322623e+000 
1.344823e+000 
1.367430e+000 
1.391434e+000 
1.415340e+000 
1.435981e+000 
1.455859e+000 
1.474142e+000 
1.490943e+000 
1.508871e+000 
1.526099e+000 
1.541311e+000 
1.552813e+000 
1.559889e+000 
1.565653e+000 
1.570174e+000 
1.571788e+000 
1.570336e+000 
1.565221e+000 
1.556633e+000 
1.543470e+000 
1.525590e+000 
1.506499e+000 
1.483040e+000 
1.454004e+000 
1.422113e+000 
1.386936e+000 
1.349395e+000 
1.309202e+000 
1.263805e+000 
1.216329e+000 
1.167488e+000 
1.115494e+000 
1.063640e+000 
1.010668e+000 
9.556971e-001 
9.006123e-001 
8.446186e-001 
7.880752e-001 
7.340395e-001 
6.817562e-001 
6.302095e-001 
5.797618e-001 
5.310848e-001 
4.858660e-001 
4.432170e-001 
4.019642e-001 
3.625111e-001 
3.266904e-001 
2.934970e-001 
2.636690e-001 
2.383226e-001 
2.152396e-001 
1.930640e-001 
1.726834e-001 
1.548970e-001 
1.399338e-001 
1.282263e-001 
1.185203e-001 
1.099290e-001 
1.004479e-001 
9.132160e-002 
8.540809e-002 
8.210828e-002 
7.955689e-002 
7.732085e-002 
7.577410e-002 
7.405193e-002 
7.224143e-002 
7.318875e-002 
7.605727e-002 
7.764466e-002 
7.735569e-002 
7.750183e-002 
8.062245e-002 
8.438926e-002 
8.713674e-002 
9.004824e-002 
9.267990e-002 
9.304108e-002 
9.339244e-002 
9.437321e-002 
9.791097e-002 
1.012289e-001 
1.012796e-001 
1.009896e-001 
1.018808e-001 
1.029614e-001 
1.042908e-001 
1.057827e-001 
1.060769e-001 
1.065671e-001 
1.061903e-001 
1.066061e-001 
1.074485e-001 
1.074920e-001 
1.065896e-001 
1.065157e-001 
1.069736e-001 
1.071600e-001 
1.075916e-001 
1.070654e-001 
1.055082e-001 
1.025459e-001 
9.955918e-002 
9.863540e-002 
9.924612e-002 
9.762614e-002 
9.520964e-002 
9.175728e-002 
8.772852e-002 
8.533506e-002 
8.310998e-002 
7.993289e-002 
7.655891e-002 
7.218504e-002 
6.726666e-002 
6.354828e-002 
5.884615e-002 
5.478174e-002 
5.072210e-002 
4.605043e-002 
4.111639e-002 
3.799994e-002 
3.560141e-002 
3.123946e-002 
2.580705e-002 
2.149627e-002 
1.890321e-002 
1.700655e-002 
1.597164e-002 
1.312210e-002 
1.010452e-002 
5.231108e-003 
3.491917e-004 
-5.697114e-004 
-8.236708e-004 
-2.964490e-003 
-5.950366e-003 
-9.367796e-003 
-1.282879e-002 
-1.455821e-002 
-1.620617e-002 
-1.620339e-002 
-1.770472e-002 
-2.167106e-002 
-2.476205e-002 
-2.588463e-002 
-2.637560e-002 
-2.746203e-002 
-2.850811e-002 
-2.939659e-002 
-3.024472e-002 
-3.105624e-002 
-3.002525e-002 
-2.952814e-002 
-3.019811e-002 
-3.177195e-002 
-3.312207e-002 
-3.261945e-002 
-3.197945e-002 
-3.254738e-002 
-3.378235e-002 
-3.611708e-002 
-3.831315e-002 
-3.757166e-002 
-3.786166e-002 
-4.006467e-002 
-4.192624e-002 
-4.469506e-002 
-4.771842e-002 
-5.007963e-002 
-5.187078e-002 
-5.286304e-002 
-5.457883e-002 
-5.968160e-002 
-6.394254e-002 
-6.507470e-002 
-6.752409e-002 
-7.182088e-002 
-7.734646e-002 
-8.303614e-002 
-8.869044e-002 
-9.518848e-002 
-1.056744e-001 
-1.240859e-001 
-1.646421e-001 
-2.423361e-001 
-3.377921e-001 
-4.144575e-001 
-4.598255e-001 
-4.878514e-001 
-5.104283e-001 
-5.351831e-001 
-5.706834e-001 
-6.264365e-001 
-6.858855e-001 
-7.041985e-001 
-6.747111e-001 
-6.400132e-001 
-6.268492e-001 
-6.304768e-001 
-6.449554e-001 
-6.614555e-001 
-6.660668e-001 
-6.449463e-001 
-5.997336e-001 
-5.630773e-001 
-5.628250e-001 
-5.940610e-001 
-6.456830e-001 
-7.102479e-001 
-7.815016e-001 
-8.577285e-001 
-9.389397e-001 
-1.022100e+000 
-1.112287e+000 
-1.213925e+000 
-1.324673e+000 
-1.444380e+000 
-1.572074e+000 
-1.703376e+000 
-1.834675e+000 
-1.966350e+000 
-2.099905e+000 
-2.242811e+000 
-2.394480e+000 
-2.551813e+000 
-2.716081e+000 
-2.882587e+000 
-3.041243e+000 
-3.185003e+000 
-3.310020e+000 
-3.415704e+000 
-3.502690e+000 
-3.563659e+000 
-3.597541e+000 
-3.604246e+000 
-3.580619e+000 
-3.523874e+000 
-3.431054e+000 
-3.306372e+000 
-3.157534e+000 
-2.989105e+000 
-2.802149e+000 
-2.601706e+000 
-2.387256e+000 
-2.158426e+000 
-1.918677e+000 
-1.673229e+000 
-1.433485e+000 
-1.207536e+000 
-9.976010e-001 
-8.051883e-001 
-6.297958e-001 
-4.656488e-001 
-3.150937e-001 
-1.806735e-001 
-5.768297e-002 
5.524081e-002 
1.578302e-001 
2.491233e-001 
3.289660e-001 
4.024631e-001 
4.699262e-001 
5.269914e-001 
5.778714e-001 
6.287149e-001 
6.764076e-001 
7.173617e-001 
7.522663e-001 
7.840937e-001 
8.157754e-001 
8.452110e-001 
8.711988e-001 
8.946724e-001 
9.167761e-001 
9.359603e-001 
9.539214e-001 
9.725513e-001 
9.905846e-001 
1.007914e+000 
1.024256e+000 
1.039973e+000 
1.056711e+000 
1.075407e+000 
1.094529e+000 
1.113045e+000 
1.130525e+000 
1.147840e+000 
1.166403e+000 
1.186837e+000 
1.207618e+000 
1.226881e+000 
1.245552e+000 
1.264885e+000 
1.284155e+000 
1.304814e+000 
1.326814e+000 
1.347675e+000 
1.367162e+000 
1.384653e+000 
1.402049e+000 
1.422280e+000 
1.441854e+000 
1.458550e+000 
1.474511e+000 
1.489013e+000 
1.501379e+000 
1.513093e+000 
1.523567e+000 
1.532491e+000 
1.538289e+000 
1.540067e+000 
1.540194e+000 
1.540047e+000 
1.536891e+000 
1.528621e+000 
1.517628e+000 
1.503675e+000 
1.486230e+000 
1.466706e+000 
1.444178e+000 
1.416738e+000 
1.385820e+000 
1.349880e+000 
1.311474e+000 
1.272818e+000 
1.229446e+000 
1.183137e+000 
1.135135e+000 
1.083821e+000 
1.031330e+000 
9.787343e-001 
9.242558e-001 
8.693387e-001 
8.118521e-001 
7.525287e-001 
6.961626e-001 
6.422929e-001 
5.890815e-001 
5.363362e-001 
4.847783e-001 
4.343955e-001 
3.873789e-001 
3.434552e-001 
3.013258e-001 
2.623370e-001 
2.258189e-001 
1.889141e-001 
1.549740e-001 
1.259671e-001 
1.003095e-001 
7.815905e-002 
5.638796e-002 
3.584891e-002 
2.038937e-002 
7.417697e-003 
-6.443781e-003 
-1.832383e-002 
-2.706094e-002 
-3.463391e-002 
-4.155636e-002 
-4.696394e-002 
-5.114398e-002 
-5.477265e-002 
-5.835350e-002 
-6.207315e-002 
-6.192987e-002 
-5.868620e-002 
-5.746574e-002 
-5.821178e-002 
-5.977463e-002 
-6.196085e-002 
-6.178282e-002 
-5.912727e-002 
-5.578375e-002 
-5.169531e-002 
-4.889573e-002 
-4.930931e-002 
-4.907982e-002 
-4.704958e-002 
-4.349563e-002 
-3.885167e-002 
-3.550015e-002 
-3.363073e-002 
-3.152727e-002 
-2.872883e-002 
-2.712803e-002 
-2.474132e-002 
-2.292235e-002 
-2.037283e-002 
-1.730438e-002 
-1.492329e-002 
-1.367711e-002 
-1.310707e-002 
-1.395341e-002 
-1.480504e-002 
-1.449909e-002 
-1.446121e-002 
-1.357060e-002 
-1.406634e-002 
-1.704573e-002 
-2.123073e-002 
-2.467016e-002 
-2.662048e-002 
-2.771830e-002 
-3.199382e-002 
-3.754687e-002 
-4.254487e-002 
-4.781878e-002 
-5.232372e-002 
-5.533373e-002 
-6.008858e-002 
-6.489881e-002 
-7.091506e-002 
-7.732223e-002 
-8.161612e-002 
-8.553024e-002 
-8.895934e-002 
-9.215624e-002 
-9.759845e-002 
-1.038420e-001 
-1.069391e-001 
-1.099563e-001 
-1.135194e-001 
-1.183991e-001 
-1.224611e-001 
-1.255028e-001 
-1.286007e-001 
-1.326132e-001 
-1.358518e-001 
-1.390353e-001 
-1.422491e-001 
-1.458178e-001 
-1.479833e-001 
-1.485815e-001 
-1.498716e-001 
-1.507059e-001 
-1.486830e-001 
-1.427032e-001 
-1.329634e-001 
-1.206199e-001 
-1.080302e-001 
-9.353826e-002 
-7.804403e-002 
-6.023631e-002 
-3.899542e-002 
-1.371067e-002 
1.226636e-002 
3.618383e-002 
5.746222e-002 
7.465071e-002 
8.761442e-002 
9.694263e-002 
1.029952e-001 
1.055655e-001 
1.051665e-001 
9.932120e-002 
8.732529e-002 
6.968074e-002 
4.557867e-002 
1.835636e-002 
-9.252229e-003 
-3.751390e-002 
-6.507551e-002 
-9.124140e-002 
-1.193992e-001 
-1.500333e-001 
-1.786930e-001 
-2.037056e-001 
-2.236564e-001 
-2.405472e-001 
-2.553960e-001 
-2.658985e-001 
-2.729428e-001 
-2.809869e-001 
-2.870599e-001 
-2.884445e-001 
-2.904241e-001 
-2.927020e-001 
-2.964154e-001 
-3.004308e-001 
-3.044173e-001 
-3.161142e-001 
-3.513592e-001 
-4.201231e-001 
-5.122864e-001 
-5.953967e-001 
-6.494753e-001 
-6.868367e-001 
-7.206513e-001 
-7.573280e-001 
-8.048980e-001 
-8.756102e-001 
-9.557476e-001 
-1.004538e+000 
-1.006857e+000 
-9.974754e-001 
-1.009363e+000 
-1.038562e+000 
-1.068613e+000 
-1.092872e+000 
-1.107173e+000 
-1.094425e+000 
-1.052824e+000 
-1.011647e+000 
-9.982650e-001 
-1.014709e+000 
-1.046526e+000 
-1.085122e+000 
-1.132610e+000 
-1.187314e+000 
-1.243225e+000 
-1.303980e+000 
-1.374066e+000 
-1.454910e+000 
-1.551365e+000 
-1.660859e+000 
-1.778910e+000 
-1.903383e+000 
-2.031341e+000 
-2.164848e+000 
-2.309535e+000 
-2.462626e+000 
-2.623711e+000 
-2.792941e+000 
-2.961634e+000 
-3.125841e+000 
-3.284608e+000 
-3.432658e+000 
-3.564058e+000 
-3.675148e+000 
-3.761333e+000 
-3.821405e+000 
-3.851276e+000 
-3.846240e+000 
-3.809052e+000 
-3.741025e+000 
-3.636695e+000 
-3.497859e+000 
-3.333277e+000 
-3.146468e+000 
-2.941289e+000 
-2.718488e+000 
-2.481585e+000 
-2.235475e+000 
-1.979025e+000 
-1.714751e+000 
-1.455116e+000 
-1.209313e+000 
-9.789122e-001 
-7.644597e-001 
-5.657623e-001 
-3.854305e-001 
-2.212479e-001 
-7.043800e-002 
6.637030e-002 
1.874426e-001 
2.958976e-001 
3.947981e-001 
4.846494e-001 
5.638617e-001 
6.324222e-001 
6.941391e-001 
7.500809e-001 
8.003608e-001 
8.456587e-001 
8.867846e-001 
9.226947e-001 
9.530207e-001 
9.785501e-001 
1.001793e+000 
1.024165e+000 
1.044756e+000 
1.063230e+000 
1.079563e+000 
1.094164e+000 
1.108421e+000 
1.122940e+000 
1.137996e+000 
1.151970e+000 
1.165725e+000 
1.179811e+000 
1.194732e+000 
1.211372e+000 
1.228929e+000 
1.245120e+000 
1.261861e+000 
1.278587e+000 
1.294635e+000 
1.312898e+000 
1.331349e+000 
1.350117e+000 
1.369505e+000 
1.387929e+000 
1.406816e+000 
1.427559e+000 
1.446268e+000 
1.463909e+000 
1.481537e+000 
1.498458e+000 
1.515775e+000 
1.533644e+000 
1.550287e+000 
1.565103e+000 
1.577874e+000 
1.587658e+000 
1.596251e+000 
1.604150e+000 
1.610117e+000 
1.612624e+000 
1.611802e+000 
1.607158e+000 
1.601243e+000 
1.593549e+000 
1.580948e+000 
1.564055e+000 
1.544230e+000 
1.521308e+000 
1.495631e+000 
1.466543e+000 
1.434499e+000 
1.399190e+000 
1.357864e+000 
1.312342e+000 
1.266071e+000 
1.220045e+000 
1.171779e+000 
1.118790e+000 
1.062589e+000 
1.006194e+000 
9.494356e-001 
8.925367e-001 
8.356137e-001 
7.792649e-001 
7.228600e-001 
6.657259e-001 
6.103167e-001 
5.592851e-001 
5.112585e-001 
4.643349e-001 
4.177262e-001 
3.734656e-001 
3.340337e-001 
2.986987e-001 
2.658563e-001 
2.350070e-001 
2.059867e-001 
1.796190e-001 
1.564380e-001 
1.370283e-001 
1.215383e-001 
1.083289e-001 
9.531818e-002 
8.243012e-002 
7.210555e-002 
6.588951e-002 
6.197677e-002 
5.697561e-002 
5.214201e-002 
4.878569e-002 
4.698176e-002 
4.675767e-002 
4.794792e-002 
4.958344e-002 
5.104331e-002 
5.030555e-002 
4.961941e-002 
5.229156e-002 
5.546641e-002 
5.752858e-002 
5.902657e-002 
5.981663e-002 
6.149680e-002 
6.435944e-002 
6.708627e-002 
7.079298e-002 
7.379777e-002 
7.571536e-002 
7.762362e-002 
8.091435e-002 
8.502918e-002 
8.893117e-002 
9.267858e-002 
9.817853e-002 
1.067185e-001 
1.181667e-001 
1.330513e-001 
1.489465e-001 
1.665903e-001 
1.836929e-001 
2.009948e-001 
2.229227e-001 
2.476996e-001 
2.726641e-001 
2.995599e-001 
3.265134e-001 
3.500740e-001 
3.701768e-001 
3.834723e-001 
3.932030e-001 
4.011547e-001 
4.031747e-001 
4.016936e-001 
3.973349e-001 
3.854456e-001 
3.653133e-001 
3.407477e-001 
3.126150e-001 
2.851393e-001 
2.578118e-001 
2.283212e-001 
1.979317e-001 
1.659981e-001 
1.328540e-001 
1.020599e-001 
7.555299e-002 
5.108236e-002 
2.962310e-002 
1.117933e-002 
-3.113527e-003 
-1.359911e-002 
-2.023914e-002 
-2.512378e-002 
-2.869766e-002 
-3.220485e-002 
-3.597096e-002 
-3.845135e-002 
-3.850278e-002 
-3.716838e-002 
-3.697036e-002 
-3.798601e-002 
-4.083015e-002 
-4.314525e-002 
-4.647386e-002 
-5.092897e-002 
-5.558769e-002 
-5.916786e-002 
-6.272783e-002 
-6.650122e-002 
-7.137804e-002 
-7.704041e-002 
-8.370797e-002 
-9.231557e-002 
-9.867339e-002 
-1.029542e-001 
-1.052249e-001 
-1.064837e-001 
-1.091700e-001 
-1.131601e-001 
-1.156560e-001 
-1.163294e-001 
-1.150188e-001 
-1.134858e-001 
-1.140241e-001 
-1.136019e-001 
-1.135758e-001 
-1.145216e-001 
-1.134068e-001 
-1.113106e-001 
-1.100254e-001 
-1.106738e-001 
-1.118469e-001 
-1.111766e-001 
-1.089961e-001 
-1.082565e-001 
-1.079677e-001 
-1.086856e-001 
-1.106097e-001 
-1.114489e-001 
-1.111487e-001 
-1.093208e-001 
-1.092377e-001 
-1.107680e-001 
-1.124880e-001 
-1.142601e-001 
-1.168812e-001 
-1.199550e-001 
-1.250427e-001 
-1.377221e-001 
-1.722026e-001 
-2.444628e-001 
-3.387487e-001 
-4.207995e-001 
-4.761120e-001 
-5.151010e-001 
-5.501597e-001 
-5.862818e-001 
-6.323241e-001 
-7.026550e-001 
-7.841936e-001 
-8.296535e-001 
-8.260008e-001 
-8.120628e-001 
-8.176485e-001 
-8.387525e-001 
-8.623979e-001 
-8.822953e-001 
-8.894010e-001 
-8.670744e-001 
-8.148148e-001 
-7.650630e-001 
-7.446923e-001 
-7.498805e-001 
-7.668491e-001 
-7.900873e-001 
-8.222064e-001 
-8.640964e-001 
-9.141355e-001 
-9.694831e-001 
-1.028363e+000 
-1.089813e+000 
-1.160111e+000 
-1.244538e+000 
-1.345795e+000 
-1.462179e+000 
-1.584940e+000 
-1.709749e+000 
-1.836067e+000 
-1.964859e+000 
-2.102477e+000 
-2.254319e+000 
-2.412159e+000 
-2.571914e+000 
-2.726491e+000 
-2.872917e+000 
-3.016193e+000 
-3.150341e+000 
-3.268770e+000 
-3.369102e+000 
-3.442284e+000 
-3.482398e+000 
-3.493299e+000 
-3.472233e+000 
-3.424950e+000 
-3.349429e+000 
-3.236725e+000 
-3.094561e+000 
-2.929446e+000 
-2.743542e+000 
-2.543100e+000 
-2.330206e+000 
-2.102285e+000 
-1.864890e+000 
-1.617447e+000 
-1.367291e+000 
-1.125481e+000 
-8.954893e-001 
-6.825893e-001 
-4.891371e-001 
-3.132516e-001 
-1.518836e-001 
-6.558983e-003 
1.256095e-001 
2.455040e-001 
3.541090e-001 
4.487910e-001 
5.322392e-001 
6.078894e-001 
6.784622e-001 
7.454093e-001 
8.050963e-001 
8.581942e-001 
9.062433e-001 
9.485432e-001 
9.861788e-001 
1.024417e+000 
1.060806e+000 
1.094606e+000 
1.124696e+000 
1.149694e+000 
1.172856e+000 
1.194970e+000 
1.212917e+000 
1.229272e+000 
1.245718e+000 
1.259623e+000 
1.272203e+000 
1.284599e+000 
1.297611e+000 
1.311574e+000 
1.324331e+000 
1.336238e+000 
1.351040e+000 
1.366800e+000 
1.381698e+000 
1.395645e+000 
1.410293e+000 
1.426573e+000 
1.441929e+000 
1.457318e+000 
1.474968e+000 
1.492224e+000 
1.509275e+000 
1.525997e+000 
1.542207e+000 
1.561536e+000 
1.579763e+000 
1.595450e+000 
1.612220e+000 
1.629368e+000 
1.645519e+000 
1.662143e+000 
1.676978e+000 
1.690614e+000 
1.703186e+000 
1.712780e+000 
1.722183e+000 
1.732122e+000 
1.739505e+000 
1.742241e+000 
1.742953e+000 
1.742074e+000 
1.738637e+000 
1.731836e+000 
1.722588e+000 
1.711009e+000 
1.694732e+000 
1.672437e+000 
1.648005e+000 
1.624201e+000 
1.597000e+000 
1.562638e+000 
1.524656e+000 
1.485894e+000 
1.444285e+000 
1.399177e+000 
1.352558e+000 
1.305569e+000 
1.254426e+000 
1.198518e+000 
1.140308e+000 
1.084500e+000 
1.028574e+000 
9.709464e-001 
9.138451e-001 
8.594998e-001 
8.054402e-001 
7.526718e-001 
7.049237e-001 
6.615476e-001 
6.233337e-001 
5.880886e-001 
5.581218e-001 
5.328133e-001 
5.099680e-001 
4.883941e-001 
4.725128e-001 
4.620666e-001 
4.574085e-001 
4.552705e-001 
4.527803e-001 
4.502716e-001 
4.435818e-001 
4.344414e-001 
4.246193e-001 
4.158590e-001 
4.056446e-001 
3.921217e-001 
3.712696e-001 
3.463799e-001 
3.194048e-001 
2.903745e-001 
2.617700e-001 
2.338309e-001 
2.067925e-001 
1.793708e-001 
1.535764e-001 
1.280921e-001 
1.049430e-001 
8.461489e-002 
6.663226e-002 
5.232723e-002 
4.194360e-002 
3.539278e-002 
3.235163e-002 
3.111710e-002 
3.084815e-002 
3.407675e-002 
4.015225e-002 
4.713229e-002 
5.333892e-002 
5.794136e-002 
6.286332e-002 
6.767713e-002 
7.358129e-002 
7.941114e-002 
8.351124e-002 
8.496615e-002 
8.218272e-002 
7.893565e-002 
7.856192e-002 
8.043399e-002 
8.232773e-002 
8.230777e-002 
7.870107e-002 
7.519604e-002 
7.051353e-002 
6.658011e-002 
6.671629e-002 
6.656844e-002 
6.326707e-002 
6.014505e-002 
5.863151e-002 
5.887835e-002 
6.006460e-002 
5.863052e-002 
5.807811e-002 
5.807346e-002 
5.588005e-002 
5.391750e-002 
5.386857e-002 
5.216212e-002 
4.854909e-002 
4.458070e-002 
4.100608e-002 
3.974793e-002 
3.857787e-002 
3.484363e-002 
2.965879e-002 
2.506890e-002 
2.137897e-002 
1.993602e-002 
1.918112e-002 
1.716542e-002 
1.533979e-002 
1.289900e-002 
9.767922e-003 
8.884818e-003 
1.078498e-002 
1.122103e-002 
1.094064e-002 
1.009711e-002 
9.752507e-003 
1.184853e-002 
1.301597e-002 
1.268685e-002 
1.421768e-002 
1.593083e-002 
1.619487e-002 
1.954098e-002 
2.246307e-002 
2.467839e-002 
2.613550e-002 
2.579170e-002 
2.602544e-002 
3.029790e-002 
3.396981e-002 
3.596021e-002 
3.886654e-002 
4.073560e-002 
4.328279e-002 
4.668304e-002 
4.951321e-002 
5.271552e-002 
5.690701e-002 
5.821100e-002 
5.936613e-002 
6.326840e-002 
6.736533e-002 
6.879503e-002 
6.936537e-002 
6.991271e-002 
7.186779e-002 
7.332097e-002 
7.312409e-002 
7.241762e-002 
7.185882e-002 
6.984935e-002 
6.708684e-002 
6.647549e-002 
6.610202e-002 
6.409685e-002 
6.020644e-002 
5.670097e-002 
5.291636e-002 
5.057423e-002 
4.825422e-002 
4.396083e-002 
3.876158e-002 
3.295316e-002 
2.700021e-002 
2.175673e-002 
1.560690e-002 
6.158441e-003 
-7.714147e-003 
-3.978396e-002 
-1.046417e-001 
-1.945001e-001 
-2.826263e-001 
-3.493883e-001 
-3.970920e-001 
-4.391886e-001 
-4.816667e-001 
-5.310472e-001 
-6.004856e-001 
-6.840074e-001 
-7.447671e-001 
-7.612717e-001 
-7.559269e-001 
-7.613267e-001 
-7.851377e-001 
-8.153049e-001 
-8.429900e-001 
-8.607432e-001 
-8.550851e-001 
-8.186092e-001 
-7.743571e-001 
-7.511186e-001 
-7.532121e-001 
-7.695292e-001 
-7.915273e-001 
-8.184264e-001 
-8.538547e-001 
-8.978754e-001 
-9.458645e-001 
-9.985233e-001 
-1.053556e+000 
-1.109873e+000 
-1.174804e+000 
-1.250499e+000 
-1.337354e+000 
-1.436949e+000 
-1.543555e+000 
-1.651260e+000 
-1.761748e+000 
-1.875788e+000 
-1.997331e+000 
-2.130424e+000 
-2.268626e+000 
-2.409193e+000 
-2.550562e+000 
-2.689332e+000 
-2.827389e+000 
-2.964608e+000 
-3.092690e+000 
-3.204302e+000 
-3.296282e+000 
-3.364061e+000 
-3.404600e+000 
-3.418804e+000 
-3.410157e+000 
-3.377549e+000 
-3.314856e+000 
-3.217538e+000 
-3.092464e+000 
-2.948278e+000 
-2.784027e+000 
-2.599861e+000 
-2.401399e+000 
-2.189739e+000 
-1.963141e+000 
-1.722844e+000 
-1.478741e+000 
-1.243387e+000 
-1.020045e+000 
-8.095727e-001 
-6.139321e-001 
-4.330588e-001 
-2.660285e-001 
-1.106444e-001 
3.352188e-002 
1.620653e-001 
2.781078e-001 
3.842882e-001 
4.799655e-001 
5.674603e-001 
6.466331e-001 
7.157732e-001 
7.779296e-001 
8.327807e-001 
8.824012e-001 
9.307276e-001 
9.750628e-001 
1.014601e+000 
1.050072e+000 
1.082099e+000 
1.111583e+000 
1.139528e+000 
1.164142e+000 
1.186440e+000 
1.205735e+000 
1.222566e+000 
1.237393e+000 
1.250973e+000 
1.263893e+000 
1.275384e+000 
1.285711e+000 
1.295563e+000 
1.305632e+000 
1.317272e+000 
1.329548e+000 
1.340206e+000 
1.350691e+000 
1.360752e+000 
1.373494e+000 
1.386969e+000 
1.400171e+000 
1.413867e+000 
1.428730e+000 
1.443847e+000 
1.461370e+000 
1.482491e+000 
1.507981e+000 
1.536361e+000 
1.564037e+000 
1.593999e+000 
1.625203e+000 
1.658866e+000 
1.693400e+000 
1.728048e+000 
1.762804e+000 
1.796940e+000 
1.830282e+000 
1.862385e+000 
1.890317e+000 
1.913242e+000 
1.931572e+000 
1.943281e+000 
1.951316e+000 
1.955063e+000 
1.952732e+000 
1.942722e+000 
1.922914e+000 
1.897948e+000 
1.869059e+000 
1.835079e+000 
1.799054e+000 
1.761228e+000 
1.719636e+000 
1.674315e+000 
1.625302e+000 
1.576274e+000 
1.527926e+000 
1.475886e+000 
1.422711e+000 
1.371339e+000 
1.320175e+000 
1.269014e+000 
1.217533e+000 
1.165556e+000 
1.114206e+000 
1.062347e+000 
1.009443e+000 
9.568667e-001 
9.051064e-001 
8.507866e-001 
7.952088e-001 
7.397764e-001 
6.856266e-001 
6.337749e-001 
5.822222e-001 
5.297232e-001 
4.793320e-001 
4.318380e-001 
3.860979e-001 
3.450233e-001 
3.065794e-001 
2.696293e-001 
2.331870e-001 
1.979519e-001 
1.665491e-001 
1.400881e-001 
1.170489e-001 
9.663682e-002 
7.879524e-002 
6.308834e-002 
5.027375e-002 
3.948507e-002 
3.096520e-002 
2.308898e-002 
1.586710e-002 
1.095091e-002 
7.610418e-003 
5.090421e-003 
3.192899e-003 
9.134928e-004 
-2.322646e-003 
-3.893177e-003 
-4.229023e-003 
-1.944536e-003 
9.694259e-004 
1.231960e-003 
8.902893e-004 
1.974416e-003 
2.522300e-003 
4.891833e-003 
9.717449e-003 
1.346851e-002 
1.664406e-002 
1.826748e-002 
2.107479e-002 
2.702588e-002 
3.201534e-002 
3.483506e-002 
4.037246e-002 
4.547129e-002 
4.907291e-002 
5.385458e-002 
5.993553e-002 
6.561386e-002 
7.014459e-002 
7.389138e-002 
7.940696e-002 
8.646863e-002 
9.014815e-002 
9.249307e-002 
9.660128e-002 
1.002373e-001 
1.026598e-001 
1.071852e-001 
1.114327e-001 
1.142058e-001 
1.144107e-001 
1.126364e-001 
1.144554e-001 
1.186952e-001 
1.208829e-001 
1.215576e-001 
1.214462e-001 
1.187999e-001 
1.164886e-001 
1.148451e-001 
1.147707e-001 
1.159957e-001 
1.155364e-001 
1.137848e-001 
1.122703e-001 
1.104999e-001 
1.079907e-001 
1.072575e-001 
1.068783e-001 
1.065883e-001 
1.057292e-001 
1.049081e-001 
1.035773e-001 
1.000040e-001 
9.603299e-002 
9.419936e-002 
9.516557e-002 
9.713019e-002 
9.692868e-002 
9.368194e-002 
9.006455e-002 
8.596460e-002 
8.240321e-002 
8.120825e-002 
8.116306e-002 
8.061001e-002 
7.742876e-002 
7.159303e-002 
6.765671e-002 
6.538068e-002 
6.315497e-002 
6.073525e-002 
5.792265e-002 
5.522017e-002 
5.091843e-002 
4.640633e-002 
4.319540e-002 
3.921334e-002 
3.411991e-002 
3.058493e-002 
2.823699e-002 
2.681311e-002 
2.456867e-002 
2.133585e-002 
1.904010e-002 
1.543517e-002 
1.253720e-002 
1.200050e-002 
1.136029e-002 
9.572170e-003 
7.467202e-003 
6.173407e-003 
5.357203e-003 
4.015505e-003 
1.967148e-003 
4.455915e-004 
-1.939031e-003 
-4.845495e-003 
-6.164709e-003 
-6.569496e-003 
-9.063532e-003 
-1.450949e-002 
-2.011100e-002 
-2.508501e-002 
-2.914482e-002 
-3.213107e-002 
-3.545101e-002 
-4.033620e-002 
-4.730105e-002 
-5.555148e-002 
-6.218559e-002 
-6.771571e-002 
-7.505773e-002 
-8.612394e-002 
-1.054560e-001 
-1.462349e-001 
-2.206353e-001 
-3.174321e-001 
-4.065164e-001 
-4.720336e-001 
-5.197691e-001 
-5.622386e-001 
-6.062056e-001 
-6.596739e-001 
-7.348266e-001 
-8.185767e-001 
-8.709712e-001 
-8.786252e-001 
-8.706226e-001 
-8.765977e-001 
-9.003684e-001 
-9.299010e-001 
-9.554369e-001 
-9.674419e-001 
-9.500482e-001 
-9.039546e-001 
-8.576474e-001 
-8.366351e-001 
-8.412916e-001 
-8.570598e-001 
-8.761311e-001 
-8.989461e-001 
-9.290959e-001 
-9.662204e-001 
-1.009790e+000 
-1.057872e+000 
-1.108422e+000 
-1.159565e+000 
-1.213251e+000 
-1.274516e+000 
-1.345849e+000 
-1.429007e+000 
-1.520929e+000 
-1.618259e+000 
-1.718090e+000 
-1.823023e+000 
-1.933743e+000 
-2.051444e+000 
-2.178463e+000 
-2.312807e+000 
-2.453498e+000 
-2.596287e+000 
-2.737351e+000 
-2.873862e+000 
-3.000623e+000 
-3.111207e+000 
-3.203466e+000 
-3.274905e+000 
-3.321177e+000 
-3.341783e+000 
-3.336491e+000 
-3.303387e+000 
-3.240062e+000 
-3.145991e+000 
-3.026283e+000 
-2.883982e+000 
-2.720761e+000 
-2.539589e+000 
-2.347256e+000 
-2.143624e+000 
-1.924946e+000 
-1.695040e+000 
-1.461531e+000 
-1.232127e+000 
-1.011597e+000 
-8.056482e-001 
-6.166951e-001 
-4.444831e-001 
-2.805713e-001 
-1.247693e-001 
1.866844e-002 
1.512897e-001 
2.749924e-001 
3.886300e-001 
4.929601e-001 
5.899652e-001 
6.802938e-001 
7.630715e-001 
8.338414e-001 
8.931270e-001 
9.452621e-001 
9.907016e-001 
1.026901e+000 
1.054981e+000 
1.075442e+000 
1.087853e+000 
1.092958e+000 
1.092910e+000 
1.088679e+000 
1.081240e+000 
1.070934e+000 
1.057544e+000 
1.042473e+000 
1.026756e+000 
1.010615e+000 
9.940549e-001 
9.803234e-001 
9.705315e-001 
9.649778e-001 
9.648513e-001 
9.674709e-001 
9.713454e-001 
9.782292e-001 
9.869131e-001 
9.977050e-001 
1.014277e+000 
1.031218e+000 
1.047243e+000 
1.063788e+000 
1.079489e+000 
1.095681e+000 
1.113265e+000 
1.130181e+000 
1.146880e+000 
1.163101e+000 
1.176680e+000 
1.191495e+000 
1.206824e+000 
1.221327e+000 
1.234768e+000 
1.246796e+000 
1.258405e+000 
1.269372e+000 
1.279964e+000 
1.290138e+000 
1.298686e+000 
1.306418e+000 
1.315003e+000 
1.323347e+000 
1.332480e+000 
1.340632e+000 
1.345789e+000 
1.349275e+000 
1.350272e+000 
1.350143e+000 
1.350484e+000 
1.347830e+000 
1.341657e+000 
1.332845e+000 
1.320700e+000 
1.306678e+000 
1.290754e+000 
1.271630e+000 
1.248676e+000 
1.221566e+000 
1.192010e+000 
1.160856e+000 
1.127603e+000 
1.091550e+000 
1.050941e+000 
1.007404e+000 
9.625506e-001 
9.163307e-001 
8.706433e-001 
8.244251e-001 
7.751699e-001 
7.244460e-001 
6.716430e-001 
6.189177e-001 
5.697446e-001 
5.222552e-001 
4.736320e-001 
4.254904e-001 
3.789917e-001 
3.348545e-001 
2.940380e-001 
2.546096e-001 
2.178757e-001 
1.847672e-001 
1.528648e-001 
1.224382e-001 
9.726935e-002 
7.575503e-002 
5.456872e-002 
3.574610e-002 
1.905914e-002 
5.759106e-003 
-3.478766e-003 
-1.192481e-002 
-1.903671e-002 
-2.377809e-002 
-2.843720e-002 
-3.178190e-002 
-3.122578e-002 
-3.070776e-002 
-2.947656e-002 
-2.716833e-002 
-2.522192e-002 
-2.281366e-002 
-1.834154e-002 
-1.325372e-002 
-7.432790e-003 
-1.175626e-003 
3.788607e-003 
1.055201e-002 
1.812563e-002 
2.410677e-002 
3.017572e-002 
3.695431e-002 
4.275513e-002 
4.901681e-002 
5.494664e-002 
6.019535e-002 
6.556295e-002 
6.949349e-002 
7.352094e-002 
7.943229e-002 
8.565308e-002 
9.097334e-002 
9.451848e-002 
9.749905e-002 
1.003500e-001 
1.036272e-001 
1.074595e-001 
1.110581e-001 
1.136722e-001 
1.148131e-001 
1.143487e-001 
1.152248e-001 
1.182433e-001 
1.198606e-001 
1.206209e-001 
1.197379e-001 
1.188299e-001 
1.181759e-001 
1.159233e-001 
1.137491e-001 
1.114695e-001 
1.081062e-001 
1.040674e-001 
1.000657e-001 
9.761616e-002 
9.602120e-002 
9.139471e-002 
8.629693e-002 
8.163567e-002 
7.627553e-002 
7.303405e-002 
6.929417e-002 
6.460450e-002 
6.093943e-002 
5.624237e-002 
5.114071e-002 
4.812091e-002 
4.454824e-002 
4.119014e-002 
3.852099e-002 
3.420340e-002 
3.121652e-002 
3.001855e-002 
2.750820e-002 
2.332642e-002 
2.010615e-002 
1.767380e-002 
1.604797e-002 
1.480963e-002 
1.394990e-002 
1.278040e-002 
1.006911e-002 
7.043605e-003 
5.738960e-003 
5.893358e-003 
5.696909e-003 
5.172863e-003 
3.993931e-003 
3.236156e-003 
2.189701e-003 
3.151521e-003 
5.385239e-003 
4.601804e-003 
2.159643e-003 
1.756526e-003 
1.655374e-003 
1.822509e-003 
2.306264e-003 
1.899770e-003 
2.288177e-003 
1.322571e-003 
-2.487800e-004 
9.871771e-004 
3.462291e-003 
3.040591e-003 
1.270475e-003 
-1.809793e-003 
-3.823836e-003 
-2.950502e-003 
-2.783431e-003 
-3.680237e-003 
-3.948768e-003 
-4.545583e-003 
-6.898965e-003 
-8.535941e-003 
-1.031910e-002 
-1.143588e-002 
-1.221526e-002 
-1.489254e-002 
-1.784556e-002 
-1.817009e-002 
-1.969042e-002 
-2.386713e-002 
-2.741253e-002 
-3.106684e-002 
-3.280527e-002 
-3.313451e-002 
-3.583617e-002 
-4.100681e-002 
-4.691120e-002 
-5.792328e-002 
-7.392678e-002 
-1.049726e-001 
-1.674915e-001 
-2.543650e-001 
-3.373632e-001 
-3.987355e-001 
-4.406936e-001 
-4.753407e-001 
-5.116482e-001 
-5.564944e-001 
-6.226811e-001 
-6.999977e-001 
-7.501181e-001 
-7.548505e-001 
-7.437883e-001 
-7.466985e-001 
-7.659827e-001 
-7.911558e-001 
-8.132421e-001 
-8.210948e-001 
-8.011493e-001 
-7.525106e-001 
-6.989754e-001 
-6.661553e-001 
-6.540654e-001 
-6.536710e-001 
-6.610401e-001 
-6.744861e-001 
-6.925042e-001 
-7.136445e-001 
-7.349281e-001 
-7.577453e-001 
-7.870915e-001 
-8.282063e-001 
-8.881424e-001 
-9.673660e-001 
-1.058180e+000 
-1.153817e+000 
-1.253897e+000 
-1.362444e+000 
-1.485039e+000 
-1.622284e+000 
-1.774400e+000 
-1.940685e+000 
-2.112536e+000 
-2.282698e+000 
-2.451845e+000 
-2.618901e+000 
-2.777719e+000 
-2.921602e+000 
-3.046139e+000 
-3.148786e+000 
-3.222310e+000 
-3.263455e+000 
-3.275361e+000 
-3.258522e+000 
-3.208818e+000 
-3.126859e+000 
-3.019308e+000 
-2.889724e+000 
-2.737151e+000 
-2.565813e+000 
-2.381163e+000 
-2.182001e+000 
-1.967806e+000 
-1.743158e+000 
-1.517114e+000 
-1.297191e+000 
-1.087629e+000 
-8.951246e-001 
-7.211556e-001 
-5.603740e-001 
-4.099769e-001 
-2.707147e-001 
-1.428751e-001 
-2.631785e-002 
7.858266e-002 
1.719664e-001 
2.557118e-001 
3.349771e-001 
4.085572e-001 
4.754079e-001 
5.356030e-001 
5.912627e-001 
6.433499e-001 
6.906591e-001 
7.343501e-001 
7.742236e-001 
8.114612e-001 
8.463785e-001 
8.803267e-001 
9.112583e-001 
9.394407e-001 
9.626003e-001 
9.821868e-001 
1.000515e+000 
1.018093e+000 
1.037780e+000 
1.057381e+000 
1.072762e+000 
1.085049e+000 
1.097672e+000 
1.111260e+000 
1.127444e+000 
1.144202e+000 
1.160828e+000 
1.178953e+000 
1.194947e+000 
1.209328e+000 
1.227511e+000 
1.246560e+000 
1.264464e+000 
1.282759e+000 
1.301922e+000 
1.322363e+000 
1.343992e+000 
1.363658e+000 
1.384000e+000 
1.405646e+000 
1.425483e+000 
1.446169e+000 
1.470304e+000 
1.494162e+000 
1.514973e+000 
1.534154e+000 
1.553035e+000 
1.572785e+000 
1.592327e+000 
1.610309e+000 
1.628101e+000 
1.644267e+000 
1.656183e+000 
1.666456e+000 
1.677332e+000 
1.686480e+000 
1.691725e+000 
1.693752e+000 
1.692515e+000 
1.689429e+000 
1.683432e+000 
1.674272e+000 
1.662069e+000 
1.646986e+000 
1.628399e+000 
1.606708e+000 
1.581994e+000 
1.554087e+000 
1.523303e+000 
1.487888e+000 
1.448953e+000 
1.408371e+000 
1.366817e+000 
1.322161e+000 
1.273160e+000 
1.221579e+000 
1.170319e+000 
1.117932e+000 
1.063468e+000 
1.009301e+000 
9.543188e-001 
8.977830e-001 
8.406576e-001 
7.843913e-001 
7.312044e-001 
6.797739e-001 
6.266455e-001 
5.748493e-001 
5.256699e-001 
4.788561e-001 
4.353937e-001 
3.949489e-001 
3.564806e-001 
3.193467e-001 
2.842173e-001 
2.522438e-001 
2.252421e-001 
2.009515e-001 
1.792951e-001 
1.600764e-001 
1.424686e-001 
1.258481e-001 
1.123536e-001 
1.022619e-001 
9.270435e-002 
8.427525e-002 
7.797178e-002 
7.396247e-002 
7.062637e-002 
6.666172e-002 
6.351225e-002 
6.288197e-002 
6.224985e-002 
6.080414e-002 
6.152366e-002 
6.278477e-002 
6.236775e-002 
6.117118e-002 
6.027046e-002 
6.158048e-002 
6.503587e-002 
6.709747e-002 
6.783660e-002 
6.921507e-002 
7.116296e-002 
7.459642e-002 
7.874763e-002 
8.214726e-002 
8.473757e-002 
8.719887e-002 
8.826487e-002 
8.991307e-002 
9.410505e-002 
1.008035e-001 
1.051329e-001 
1.067836e-001 
1.075957e-001 
1.091886e-001 
1.125385e-001 
1.141784e-001 
1.159876e-001 
1.192118e-001 
1.212400e-001 
1.208052e-001 
1.210416e-001 
1.212803e-001 
1.222539e-001 
1.219101e-001 
1.211674e-001 
1.220405e-001 
1.233634e-001 
1.233709e-001 
1.206140e-001 
1.182344e-001 
1.175307e-001 
1.172661e-001 
1.157785e-001 
1.149485e-001 
1.131661e-001 
1.107665e-001 
1.063224e-001 
1.028908e-001 
1.032946e-001 
1.019656e-001 
9.690054e-002 
9.143390e-002 
8.853314e-002 
8.558513e-002 
8.358574e-002 
8.151364e-002 
7.941605e-002 
7.583822e-002 
7.011185e-002 
6.559840e-002 
6.471823e-002 
6.419340e-002 
6.158689e-002 
5.938370e-002 
5.621286e-002 
5.309130e-002 
5.103731e-002 
4.930856e-002 
4.796706e-002 
4.587385e-002 
4.267192e-002 
4.067980e-002 
3.940169e-002 
3.768618e-002 
3.491989e-002 
3.222769e-002 
3.080331e-002 
2.965134e-002 
2.834522e-002 
2.841607e-002 
2.813768e-002 
2.648602e-002 
2.407947e-002 
2.212257e-002 
2.306148e-002 
2.426039e-002 
2.318317e-002 
2.221788e-002 
2.306245e-002 
2.385602e-002 
2.518217e-002 
2.723148e-002 
3.076624e-002 
3.735381e-002 
4.658125e-002 
5.785922e-002 
7.289965e-002 
8.926138e-002 
1.051872e-001 
1.232173e-001 
1.434978e-001 
1.673317e-001 
1.960857e-001 
2.263480e-001 
2.540140e-001 
2.786967e-001 
2.982893e-001 
3.134016e-001 
3.245280e-001 
3.303912e-001 
3.317020e-001 
3.294591e-001 
3.218781e-001 
3.058759e-001 
2.835068e-001 
2.565500e-001 
2.254848e-001 
1.910280e-001 
1.544655e-001 
1.178706e-001 
8.089111e-002 
3.172650e-002 
-4.550679e-002 
-1.509130e-001 
-2.622201e-001 
-3.522889e-001 
-4.151022e-001 
-4.617568e-001 
-5.035120e-001 
-5.472152e-001 
-6.055963e-001 
-6.809865e-001 
-7.463125e-001 
-7.701641e-001 
-7.615132e-001 
-7.549463e-001 
-7.680479e-001 
-7.926231e-001 
-8.159326e-001 
-8.350657e-001 
-8.370095e-001 
-8.111655e-001 
-7.712107e-001 
-7.439807e-001 
-7.419079e-001 
-7.588445e-001 
-7.820192e-001 
-8.087282e-001 
-8.422765e-001 
-8.822658e-001 
-9.302867e-001 
-9.841593e-001 
-1.040282e+000 
-1.097747e+000 
-1.158371e+000 
-1.223928e+000 
-1.296028e+000 
-1.380238e+000 
-1.478212e+000 
-1.585059e+000 
-1.696361e+000 
-1.809024e+000 
-1.925050e+000 
-2.050201e+000 
-2.184012e+000 
-2.324641e+000 
-2.471191e+000 
-2.617599e+000 
-2.760240e+000 
-2.898911e+000 
-3.034853e+000 
-3.167616e+000 
-3.288452e+000 
-3.386835e+000 
-3.459576e+000 
-3.506064e+000 
-3.527025e+000 
-3.520526e+000 
-3.488037e+000 
-3.431328e+000 
-3.345096e+000 
-3.229213e+000 
-3.090336e+000 
-2.933618e+000 
-2.762263e+000 
-2.577201e+000 
-2.376862e+000 
-2.166055e+000 
-1.946658e+000 
-1.722490e+000 
-1.502391e+000 
-1.289217e+000 
-1.085666e+000 
-8.962405e-001 
-7.209727e-001 
-5.568679e-001 
-4.042790e-001 
-2.630663e-001 
-1.315358e-001 
-7.856182e-003 
1.071969e-001 
2.124646e-001 
3.097793e-001 
4.007663e-001 
4.881510e-001 
5.688668e-001 
6.425477e-001 
7.117204e-001 
7.744552e-001 
8.314343e-001 
8.849587e-001 
9.343807e-001 
9.787757e-001 
1.019099e+000 
1.055851e+000 
1.089262e+000 
1.117334e+000 
1.142072e+000 
1.164983e+000 
1.185776e+000 
1.205657e+000 
1.223140e+000 
1.239270e+000 
1.255101e+000 
1.267855e+000 
1.280014e+000 
1.295274e+000 
1.311049e+000 
1.327837e+000 
1.344243e+000 
1.358305e+000 
1.372062e+000 
1.385979e+000 
1.400483e+000 
1.417060e+000 
1.434031e+000 
1.449110e+000 
1.463262e+000 
1.476953e+000 
1.491720e+000 
1.507495e+000 
1.523415e+000 
1.538712e+000 
1.553505e+000 
1.567529e+000 
1.581209e+000 
1.596627e+000 
1.611987e+000 
1.626741e+000 
1.640104e+000 
1.653041e+000 
1.665487e+000 
1.677273e+000 
1.687335e+000 
1.695778e+000 
1.704062e+000 
1.710029e+000 
1.714379e+000 
1.718301e+000 
1.719870e+000 
1.716951e+000 
1.712524e+000 
1.705484e+000 
1.697149e+000 
1.687553e+000 
1.672866e+000 
1.654803e+000 
1.634428e+000 
1.608061e+000 
1.580767e+000 
1.553352e+000 
1.520764e+000 
1.484643e+000 
1.444221e+000 
1.399770e+000 
1.353997e+000 
1.305535e+000 
1.254374e+000 
1.202698e+000 
1.146808e+000 
1.089353e+000 
1.032642e+000 
9.767873e-001 
9.209290e-001 
8.641606e-001 
8.068850e-001 
7.498959e-001 
6.934790e-001 
6.398376e-001 
5.896945e-001 
5.413561e-001 
4.947888e-001 
4.500133e-001 
4.083587e-001 
3.703106e-001 
3.356268e-001 
3.038583e-001 
2.751345e-001 
2.490362e-001 
2.240704e-001 
2.005844e-001 
1.797304e-001 
1.609825e-001 
1.454113e-001 
1.325458e-001 
1.213745e-001 
1.135474e-001 
1.055908e-001 
9.583211e-002 
8.844163e-002 
8.274631e-002 
7.878140e-002 
7.748221e-002 
7.499614e-002 
7.146795e-002 
6.873245e-002 
6.525163e-002 
6.446767e-002 
6.706019e-002 
6.938340e-002 
7.150945e-002 
7.238487e-002 
7.123277e-002 
7.234274e-002 
7.493808e-002 
7.689471e-002 
7.857598e-002 
8.021951e-002 
8.055262e-002 
8.085545e-002 
8.227556e-002 
8.484308e-002 
8.774809e-002 
8.864367e-002 
8.880294e-002 
9.036716e-002 
9.377737e-002 
9.680703e-002 
1.002381e-001 
1.028023e-001 
1.048260e-001 
1.080565e-001 
1.115256e-001 
1.146813e-001 
1.179095e-001 
1.211422e-001 
1.233273e-001 
1.250784e-001 
1.266043e-001 
1.294252e-001 
1.325660e-001 
1.332868e-001 
1.334027e-001 
1.345610e-001 
1.364683e-001 
1.372472e-001 
1.382485e-001 
1.419636e-001 
1.498001e-001 
1.602964e-001 
1.720791e-001 
1.856233e-001 
2.005919e-001 
2.153162e-001 
2.309947e-001 
2.514894e-001 
2.761204e-001 
3.024229e-001 
3.275297e-001 
3.515158e-001 
3.735822e-001 
3.905710e-001 
4.035243e-001 
4.141224e-001 
4.194083e-001 
4.198479e-001 
4.158814e-001 
4.063075e-001 
3.918124e-001 
3.695941e-001 
3.419324e-001 
3.144861e-001 
2.843397e-001 
2.531264e-001 
2.245364e-001 
1.939557e-001 
1.610593e-001 
1.286833e-001 
9.780668e-002 
7.260413e-002 
5.221702e-002 
3.311115e-002 
1.812355e-002 
7.499314e-003 
-3.791801e-004 
-5.269703e-003 
-6.272981e-003 
-5.933785e-003 
-5.717882e-003 
-6.601412e-003 
-7.867956e-003 
-6.742532e-003 
-3.767273e-003 
-2.445294e-003 
-3.678006e-003 
-4.378419e-003 
-7.260915e-003 
-1.103045e-002 
-1.327834e-002 
-1.536611e-002 
-1.841696e-002 
-2.230318e-002 
-2.649590e-002 
-2.931240e-002 
-3.122454e-002 
-3.553331e-002 
-3.900033e-002 
-4.202034e-002 
-4.635433e-002 
-4.947602e-002 
-5.027084e-002 
-4.985524e-002 
-5.078706e-002 
-5.336665e-002 
-5.553562e-002 
-5.520423e-002 
-5.562397e-002 
-5.705233e-002 
-5.807495e-002 
-6.038891e-002 
-6.493734e-002 
-7.142732e-002 
-8.244275e-002 
-1.119794e-001 
-1.753114e-001 
-2.598910e-001 
-3.305317e-001 
-3.752935e-001 
-4.064535e-001 
-4.341286e-001 
-4.636577e-001 
-5.050034e-001 
-5.689078e-001 
-6.410549e-001 
-6.771221e-001 
-6.704667e-001 
-6.621845e-001 
-6.736190e-001 
-6.982883e-001 
-7.257179e-001 
-7.491350e-001 
-7.607759e-001 
-7.473158e-001 
-7.086540e-001 
-6.771407e-001 
-6.736236e-001 
-6.888904e-001 
-7.145900e-001 
-7.490949e-001 
-7.915870e-001 
-8.404151e-001 
-8.926430e-001 
-9.467466e-001 
-1.007165e+000 
-1.075865e+000 
-1.156120e+000 
-1.252057e+000 
-1.361579e+000 
-1.477294e+000 
-1.594674e+000 
-1.715669e+000 
-1.843666e+000 
-1.980659e+000 
-2.126623e+000 
-2.280514e+000 
-2.438469e+000 
-2.597067e+000 
-2.748365e+000 
-2.886707e+000 
-3.011298e+000 
-3.118470e+000 
-3.203878e+000 
-3.265836e+000 
-3.300618e+000 
-3.305302e+000 
-3.279507e+000 
-3.217494e+000 
-3.121430e+000 
-2.996704e+000 
-2.845935e+000 
-2.675154e+000 
-2.487702e+000 
-2.282958e+000 
-2.064772e+000 
-1.834439e+000 
-1.591776e+000 
-1.346702e+000 
-1.104770e+000 
-8.721296e-001 
-6.555941e-001 
-4.544599e-001 
-2.690849e-001 
-1.007244e-001 
5.560822e-002 
2.001756e-001 
3.302785e-001 
4.488487e-001 
5.551199e-001 
6.501140e-001 
7.363503e-001 
8.140184e-001 
8.844129e-001 
9.503412e-001 
1.009999e+000 
1.064070e+000 
1.114629e+000 
1.160454e+000 
1.200893e+000 
1.236063e+000 
1.267307e+000 
1.297849e+000 
1.327494e+000 
1.353970e+000 
1.377158e+000 
1.396214e+000 
1.412652e+000 
1.428052e+000 
1.442931e+000 
1.459861e+000 
1.477204e+000 
1.492286e+000 
1.506913e+000 
1.521540e+000 
1.537532e+000 
1.554966e+000 
1.572129e+000 
1.589383e+000 
1.607040e+000 
1.623596e+000 
1.641516e+000 
1.661319e+000 
1.680907e+000 
1.699468e+000 
1.717722e+000 
1.737416e+000 
1.757537e+000 
1.778491e+000 
1.799379e+000 
1.818661e+000 
1.837121e+000 
1.854164e+000 
1.871572e+000 
1.890488e+000 
1.906402e+000 
1.918921e+000 
1.930976e+000 
1.940590e+000 
1.948540e+000 
1.956089e+000 
1.960810e+000 
1.963916e+000 
1.962454e+000 
1.956738e+000 
1.950372e+000 
1.942094e+000 
1.928985e+000 
1.911153e+000 
1.890354e+000 
1.867433e+000 
1.840658e+000 
1.809121e+000 
1.775086e+000 
1.736813e+000 
1.693657e+000 
1.646989e+000 
1.598395e+000 
1.550114e+000 
1.498433e+000 
1.440955e+000 
1.382605e+000 
1.323908e+000 
1.264164e+000 
1.205104e+000 
1.146326e+000 
1.086732e+000 
1.027941e+000 
9.695101e-001 
9.147997e-001 
8.648290e-001 
8.158319e-001 
7.678039e-001 
7.235507e-001 
6.823001e-001 
6.440232e-001 
6.106861e-001 
5.806940e-001 
5.527217e-001 
5.250028e-001 
4.988656e-001 
4.773825e-001 
4.607547e-001 
4.447665e-001 
4.285626e-001 
4.143416e-001 
4.042172e-001 
3.975697e-001 
3.934854e-001 
3.934656e-001 
3.974484e-001 
4.037081e-001 
4.105983e-001 
4.202056e-001 
4.352084e-001 
4.536447e-001 
4.703149e-001 
4.867332e-001 
5.065474e-001 
5.280992e-001 
5.485907e-001 
5.666816e-001 
5.808985e-001 
5.913961e-001 
5.978001e-001 
5.994531e-001 
5.999848e-001 
5.973801e-001 
5.873196e-001 
5.710718e-001 
5.508877e-001 
5.280273e-001 
5.051891e-001 
4.802568e-001 
4.533875e-001 
4.282489e-001 
4.027272e-001 
3.775830e-001 
3.555865e-001 
3.363198e-001 
3.178557e-001 
2.998287e-001 
2.842804e-001 
2.741316e-001 
2.685571e-001 
2.642210e-001 
2.595571e-001 
2.566427e-001 
2.560617e-001 
2.548997e-001 
2.548637e-001 
2.555179e-001 
2.547196e-001 
2.535942e-001 
2.500769e-001 
2.451260e-001 
2.425300e-001 
2.381143e-001 
2.297101e-001 
2.203147e-001 
2.107883e-001 
2.031526e-001 
1.967848e-001 
1.884274e-001 
1.783131e-001 
1.677687e-001 
1.560682e-001 
1.451420e-001 
1.358548e-001 
1.289918e-001 
1.219014e-001 
1.133086e-001 
1.038848e-001 
9.615037e-002 
9.225536e-002 
8.869044e-002 
8.272993e-002 
7.706970e-002 
7.227403e-002 
6.601455e-002 
6.135974e-002 
5.835494e-002 
5.584506e-002 
5.315975e-002 
4.900293e-002 
4.505941e-002 
4.268249e-002 
3.888598e-002 
3.546337e-002 
3.427095e-002 
3.342119e-002 
3.161727e-002 
3.123884e-002 
3.038953e-002 
2.858631e-002 
2.607255e-002 
2.471516e-002 
2.498051e-002 
2.567017e-002 
2.583558e-002 
2.433793e-002 
2.432626e-002 
2.413670e-002 
2.491991e-002 
2.800688e-002 
3.204286e-002 
3.354404e-002 
3.532225e-002 
3.717232e-002 
3.881754e-002 
4.250724e-002 
4.496518e-002 
4.739157e-002 
5.032140e-002 
5.216605e-002 
5.288003e-002 
5.509005e-002 
5.649659e-002 
5.614204e-002 
5.516208e-002 
5.409968e-002 
5.366410e-002 
5.381283e-002 
5.302048e-002 
4.871343e-002 
4.379774e-002 
3.955900e-002 
3.494974e-002 
3.033215e-002 
2.250846e-002 
2.742556e-003 
-3.988402e-002 
-1.178697e-001 
-2.141121e-001 
-2.896925e-001 
-3.371812e-001 
-3.716466e-001 
-4.035876e-001 
-4.419008e-001 
-4.933233e-001 
-5.651467e-001 
-6.408701e-001 
-6.773034e-001 
-6.710130e-001 
-6.634448e-001 
-6.766691e-001 
-7.043986e-001 
-7.358189e-001 
-7.632008e-001 
-7.776092e-001 
-7.630428e-001 
-7.255010e-001 
-6.961963e-001 
-6.972348e-001 
-7.247245e-001 
-7.663023e-001 
-8.158439e-001 
-8.739921e-001 
-9.377146e-001 
-1.002008e+000 
-1.070890e+000 
-1.147192e+000 
-1.235436e+000 
-1.339080e+000 
-1.453908e+000 
-1.576442e+000 
-1.704789e+000 
-1.833818e+000 
-1.964604e+000 
-2.106054e+000 
-2.256748e+000 
-2.416875e+000 
-2.585143e+000 
-2.751958e+000 
-2.911588e+000 
-3.058507e+000 
-3.185760e+000 
-3.293166e+000 
-3.381191e+000 
-3.442119e+000 
-3.475918e+000 
-3.481064e+000 
-3.451536e+000 
-3.386853e+000 
-3.288328e+000 
-3.157588e+000 
-3.001657e+000 
-2.824902e+000 
-2.629614e+000 
-2.421617e+000 
-2.199712e+000 
-1.962552e+000 
-1.716654e+000 
-1.468371e+000 
-1.225332e+000 
-9.963637e-001 
-7.844969e-001 
-5.904936e-001 
-4.128671e-001 
-2.487899e-001 
-1.000940e-001 
3.165847e-002 
1.496466e-001 
2.560942e-001 
3.517403e-001 
4.381496e-001 
5.165985e-001 
5.875801e-001 
6.501039e-001 
7.042312e-001 
7.543309e-001 
8.015309e-001 
8.459110e-001 
8.851315e-001 
9.192444e-001 
9.506812e-001 
9.784093e-001 
1.003629e+000 
1.028582e+000 
1.051826e+000 
1.069961e+000 
1.085334e+000 
1.098407e+000 
1.113001e+000 
1.128285e+000 
1.141848e+000 
1.155265e+000 
1.168142e+000 
1.181021e+000 
1.193726e+000 
1.207339e+000 
1.221271e+000 
1.235586e+000 
1.248417e+000 
1.262251e+000 
1.277518e+000 
1.293415e+000 
1.311089e+000 
1.327478e+000 
1.343695e+000 
1.361344e+000 
1.378305e+000 
1.394865e+000 
1.412261e+000 
1.427515e+000 
1.442037e+000 
1.458254e+000 
1.473097e+000 
1.487833e+000 
1.501400e+000 
1.510643e+000 
1.519538e+000 
1.528864e+000 
1.537468e+000 
1.546895e+000 
1.555486e+000 
1.560213e+000 
1.565570e+000 
1.571012e+000 
1.573982e+000 
1.575677e+000 
1.574118e+000 
1.569838e+000 
1.562241e+000 
1.551716e+000 
1.539231e+000 
1.525498e+000 
1.501982e+000 
1.466536e+000 
1.423604e+000 
1.376174e+000 
1.325618e+000 
1.270058e+000 
1.209508e+000 
1.141552e+000 
1.065001e+000 
9.811094e-001 
8.963155e-001 
8.129527e-001 
7.310549e-001 
6.499741e-001 
5.702086e-001 
4.922306e-001 
4.156559e-001 
3.430473e-001 
2.764051e-001 
2.155737e-001 
1.600228e-001 
1.111764e-001 
7.035911e-002 
3.534123e-002 
3.253952e-003 
-2.656336e-002 
-5.193244e-002 
-7.245173e-002 
-8.917646e-002 
-1.028314e-001 
-1.131764e-001 
-1.223423e-001 
-1.332817e-001 
-1.433017e-001 
-1.507315e-001 
-1.579915e-001 
-1.665076e-001 
-1.748018e-001 
-1.831336e-001 
-1.900072e-001 
-1.974284e-001 
-2.041808e-001 
-2.084122e-001 
-2.143875e-001 
-2.233440e-001 
-2.296991e-001 
-2.333573e-001 
-2.347463e-001 
-2.347026e-001 
-2.371698e-001 
-2.384744e-001 
-2.373721e-001 
-2.372004e-001 
-2.354934e-001 
-2.314455e-001 
-2.278082e-001 
-2.226708e-001 
-2.189044e-001 
-2.161194e-001 
-2.112661e-001 
-2.075217e-001 
-2.081925e-001 
-2.080863e-001 
-2.064712e-001 
-2.029315e-001 
-1.983342e-001 
-1.967592e-001 
-1.974186e-001 
-1.981283e-001 
-1.999060e-001 
-2.028588e-001 
-2.026976e-001 
-2.009734e-001 
-2.000637e-001 
-2.022955e-001 
-2.059440e-001 
-2.075733e-001 
-2.070075e-001 
-2.072489e-001 
-2.087977e-001 
-2.081926e-001 
-2.079822e-001 
-2.105731e-001 
-2.133815e-001 
-2.134395e-001 
-2.127639e-001 
-2.117943e-001 
-2.108073e-001 
-2.104180e-001 
-2.087858e-001 
-2.078411e-001 
-2.076122e-001 
-2.043668e-001 
-1.995130e-001 
-1.961365e-001 
-1.925854e-001 
-1.899116e-001 
-1.892091e-001 
-1.871041e-001 
-1.839692e-001 
-1.796918e-001 
-1.730519e-001 
-1.684480e-001 
-1.663269e-001 
-1.636846e-001 
-1.599648e-001 
-1.568614e-001 
-1.525936e-001 
-1.489022e-001 
-1.458338e-001 
-1.431848e-001 
-1.401948e-001 
-1.363252e-001 
-1.327252e-001 
-1.295214e-001 
-1.295776e-001 
-1.293084e-001 
-1.269943e-001 
-1.234624e-001 
-1.193666e-001 
-1.148841e-001 
-1.132766e-001 
-1.130787e-001 
-1.122943e-001 
-1.131767e-001 
-1.103716e-001 
-1.065596e-001 
-1.063990e-001 
-1.070773e-001 
-1.054506e-001 
-1.039037e-001 
-1.023185e-001 
-1.025430e-001 
-1.052924e-001 
-1.073866e-001 
-1.118689e-001 
-1.161850e-001 
-1.179381e-001 
-1.195285e-001 
-1.242182e-001 
-1.289190e-001 
-1.329468e-001 
-1.363958e-001 
-1.385737e-001 
-1.389675e-001 
-1.413787e-001 
-1.474989e-001 
-1.536566e-001 
-1.583800e-001 
-1.610449e-001 
-1.647284e-001 
-1.710642e-001 
-1.776896e-001 
-1.858620e-001 
-1.994576e-001 
-2.157880e-001 
-2.490901e-001 
-3.167202e-001 
-4.012737e-001 
-4.709807e-001 
-5.168543e-001 
-5.500692e-001 
-5.830315e-001 
-6.167327e-001 
-6.577884e-001 
-7.231395e-001 
-7.939021e-001 
-8.253890e-001 
-8.191165e-001 
-8.140349e-001 
-8.310510e-001 
-8.601250e-001 
-8.875910e-001 
-9.119219e-001 
-9.261672e-001 
-9.131318e-001 
-8.775116e-001 
-8.515907e-001 
-8.537413e-001 
-8.773258e-001 
-9.082235e-001 
-9.429899e-001 
-9.834289e-001 
-1.026438e+000 
-1.068292e+000 
-1.112526e+000 
-1.163530e+000 
-1.222627e+000 
-1.290464e+000 
-1.367498e+000 
-1.451721e+000 
-1.539288e+000 
-1.626827e+000 
-1.722436e+000 
-1.831464e+000 
-1.950453e+000 
-2.076138e+000 
-2.208374e+000 
-2.346510e+000 
-2.487609e+000 
-2.625378e+000 
-2.755326e+000 
-2.876193e+000 
-2.979874e+000 
-3.062170e+000 
-3.119435e+000 
-3.151229e+000 
-3.159380e+000 
-3.143062e+000 
-3.096604e+000 
-3.018514e+000 
-2.913514e+000 
-2.789118e+000 
-2.649615e+000 
-2.495255e+000 
-2.327802e+000 
-2.148241e+000 
-1.956175e+000 
-1.750360e+000 
-1.538419e+000 
-1.332370e+000 
-1.141264e+000 
-9.686749e-001 
-8.097773e-001 
-6.601979e-001 
-5.234665e-001 
-4.039007e-001 
-2.955648e-001 
-1.959634e-001 
-1.065793e-001 
-2.931417e-002 
4.108362e-002 
1.135835e-001 
1.848601e-001 
2.430063e-001 
2.888570e-001 
3.357685e-001 
3.826882e-001 
4.265842e-001 
4.686507e-001 
5.095470e-001 
5.462367e-001 
5.763907e-001 
6.043515e-001 
6.384383e-001 
6.810404e-001 
7.239446e-001 
7.627779e-001 
7.968843e-001 
8.242558e-001 
8.443414e-001 
8.635693e-001 
8.829267e-001 
8.988299e-001 
9.098348e-001 
9.112302e-001 
9.043499e-001 
8.940246e-001 
8.806545e-001 
8.648820e-001 
8.493831e-001 
8.320030e-001 
8.133133e-001 
7.938254e-001 
7.754823e-001 
7.603327e-001 
7.488205e-001 
7.394112e-001 
7.302002e-001 
7.226969e-001 
7.206098e-001 
7.272371e-001 
7.432645e-001 
7.647682e-001 
7.818752e-001 
7.955438e-001 
8.067431e-001 
8.170122e-001 
8.306919e-001 
8.493727e-001 
8.692032e-001 
8.846505e-001 
8.895458e-001 
8.833941e-001 
8.769947e-001 
8.748305e-001 
8.755203e-001 
8.755968e-001 
8.682044e-001 
8.499530e-001 
8.251001e-001 
7.962231e-001 
7.663265e-001 
7.414947e-001 
7.183762e-001 
6.894169e-001 
6.518314e-001 
6.071289e-001 
5.592997e-001 
5.107895e-001 
4.623932e-001 
4.145187e-001 
3.688471e-001 
3.211450e-001 
2.702180e-001 
2.196389e-001 
1.673947e-001 
1.116639e-001 
5.943026e-002 
1.432632e-002 
-2.920696e-002 
-7.371169e-002 
-1.189515e-001 
-1.616701e-001 
-2.026210e-001 
-2.441755e-001 
-2.806065e-001 
-3.070186e-001 
-3.302765e-001 
-3.568645e-001 
-3.845365e-001 
-4.087392e-001 
-4.284599e-001 
-4.457630e-001 
-4.623398e-001 
-4.774500e-001 
-4.903576e-001 
-5.021838e-001 
-5.123704e-001 
-5.179266e-001 
-5.180743e-001 
-5.167152e-001 
-5.179082e-001 
-5.227296e-001 
-5.274167e-001 
-5.293110e-001 
-5.285020e-001 
-5.250577e-001 
-5.172535e-001 
-5.061999e-001 
-4.969995e-001 
-4.911445e-001 
-4.867942e-001 
-4.817915e-001 
-4.738544e-001 
-4.615468e-001 
-4.457158e-001 
-4.294896e-001 
-4.186794e-001 
-4.153795e-001 
-4.132791e-001 
-4.073177e-001 
-3.962196e-001 
-3.818902e-001 
-3.695859e-001 
-3.626738e-001 
-3.621031e-001 
-3.648275e-001 
-3.633956e-001 
-3.557951e-001 
-3.448382e-001 
-3.345741e-001 
-3.303740e-001 
-3.304158e-001 
-3.296514e-001 
-3.271882e-001 
-3.224645e-001 
-3.177446e-001 
-3.147202e-001 
-3.111586e-001 
-3.094249e-001 
-3.104076e-001 
-3.103368e-001 
-3.079313e-001 
-3.042743e-001 
-3.015405e-001 
-2.999842e-001 
-2.973611e-001 
-2.961864e-001 
-2.992133e-001 
-3.047318e-001 
-3.080898e-001 
-3.065363e-001 
-3.038495e-001 
-3.041963e-001 
-3.067399e-001 
-3.094481e-001 
-3.130708e-001 
-3.171796e-001 
-3.198527e-001 
-3.207109e-001 
-3.232488e-001 
-3.287125e-001 
-3.363684e-001 
-3.430925e-001 
-3.470060e-001 
-3.521177e-001 
-3.566838e-001 
-3.599171e-001 
-3.639173e-001 
-3.669097e-001 
-3.683046e-001 
-3.709368e-001 
-3.733559e-001 
-3.751830e-001 
-3.775295e-001 
-3.778401e-001 
-3.789546e-001 
-3.810026e-001 
-3.819728e-001 
-3.827218e-001 
-3.833370e-001 
-3.819494e-001 
-3.803850e-001 
-3.804790e-001 
-3.815999e-001 
-3.844824e-001 
-3.865387e-001 
-3.874155e-001 
-3.875220e-001 
-3.879636e-001 
-3.897069e-001 
-3.928991e-001 
-3.953844e-001 
-3.964228e-001 
-3.960079e-001 
-3.931203e-001 
-3.911292e-001 
-3.892451e-001 
-3.881081e-001 
-3.878101e-001 
-3.866039e-001 
-3.851524e-001 
-3.843766e-001 
-3.819612e-001 
-3.796481e-001 
-3.784783e-001 
-3.766373e-001 
-3.765420e-001 
-3.764278e-001 
-3.751687e-001 
-3.728725e-001 
-3.698475e-001 
-3.679838e-001 
-3.687159e-001 
-3.693818e-001 
-3.705042e-001 
-3.718953e-001 
-3.708701e-001 
-3.682417e-001 
-3.675976e-001 
-3.706590e-001 
-3.745192e-001 
-3.767981e-001 
-3.792194e-001 
-3.921715e-001 
-4.328397e-001 
-5.060186e-001 
-5.893753e-001 
-6.573024e-001 
-7.030583e-001 
-7.374381e-001 
-7.706787e-001 
-8.089188e-001 
-8.660011e-001 
-9.450114e-001 
-1.013504e+000 
-1.037654e+000 
-1.031763e+000 
-1.032116e+000 
-1.051135e+000 
-1.078851e+000 
-1.106357e+000 
-1.127422e+000 
-1.128860e+000 
-1.100236e+000 
-1.056100e+000 
-1.024598e+000 
-1.015004e+000 
-1.020234e+000 
-1.031927e+000 
-1.049696e+000 
-1.074820e+000 
-1.106776e+000 
-1.142610e+000 
-1.179027e+000 
-1.216638e+000 
-1.262282e+000 
-1.318987e+000 
-1.386244e+000 
-1.465532e+000 
-1.551268e+000 
-1.640836e+000 
-1.732905e+000 
-1.826051e+000 
-1.924622e+000 
-2.031597e+000 
-2.143190e+000 
-2.259530e+000 
-2.377194e+000 
-2.492033e+000 
-2.602719e+000 
-2.701344e+000 
-2.782652e+000 
-2.847053e+000 
-2.890339e+000 
-2.906916e+000 
-2.896599e+000 
-2.862530e+000 
-2.808251e+000 
-2.732055e+000 
-2.631403e+000 
-2.511142e+000 
-2.375169e+000 
-2.223304e+000 
-2.058901e+000 
-1.889019e+000 
-1.717826e+000 
-1.541673e+000 
-1.358387e+000 
-1.173985e+000 
-9.963619e-001 
-8.299681e-001 
-6.798545e-001 
-5.472225e-001 
-4.320644e-001 
-3.297038e-001 
-2.347257e-001 
-1.471874e-001 
-6.797175e-002 
5.496433e-003 
7.507354e-002 
1.422486e-001 
2.059904e-001 
2.628293e-001 
3.154327e-001 
3.643978e-001 
4.100870e-001 
4.536845e-001 
4.963830e-001 
5.384812e-001 
5.774244e-001 
6.102244e-001 
6.390770e-001 
6.675232e-001 
6.943589e-001 
7.172720e-001 
7.354525e-001 
7.528512e-001 
7.700997e-001 
7.858585e-001 
8.006670e-001 
8.144714e-001 
8.269184e-001 
8.364714e-001 
8.450525e-001 
8.567632e-001 
8.734764e-001 
8.895887e-001 
9.044455e-001 
9.198037e-001 
9.371017e-001 
9.557218e-001 
9.745983e-001 
9.954130e-001 
1.017300e+000 
1.037753e+000 
1.056470e+000 
1.077007e+000 
1.100070e+000 
1.123257e+000 
1.142842e+000 
1.161917e+000 
1.182248e+000 
1.202105e+000 
1.222162e+000 
1.241631e+000 
1.259964e+000 
1.276826e+000 
1.291814e+000 
1.306391e+000 
1.321575e+000 
1.335051e+000 
1.345917e+000 
1.354825e+000 
1.361712e+000 
1.368410e+000 
1.373619e+000 
1.376008e+000 
1.373549e+000 
1.367172e+000 
1.358943e+000 
1.347988e+000 
1.334444e+000 
1.318245e+000 
1.298669e+000 
1.274047e+000 
1.245642e+000 
1.214996e+000 
1.183196e+000 
1.147498e+000 
1.106727e+000 
1.062306e+000 
1.016440e+000 
9.704163e-001 
9.234153e-001 
8.753641e-001 
8.254145e-001 
7.730409e-001 
7.203272e-001 
6.688886e-001 
6.191958e-001 
5.719383e-001 
5.264081e-001 
4.813119e-001 
4.370138e-001 
3.951528e-001 
3.564104e-001 
3.204352e-001 
2.855825e-001 
2.532765e-001 
2.247875e-001 
1.989591e-001 
1.753200e-001 
1.537755e-001 
1.333884e-001 
1.153212e-001 
9.898643e-002 
8.558082e-002 
7.591491e-002 
6.622741e-002 
5.587083e-002 
4.787327e-002 
4.016737e-002 
3.475741e-002 
3.267879e-002 
2.965983e-002 
2.833627e-002 
2.688586e-002 
2.503532e-002 
2.609154e-002 
2.848926e-002 
2.960657e-002 
3.232043e-002 
3.382716e-002 
3.504770e-002 
3.846144e-002 
4.173287e-002 
4.468036e-002 
4.760180e-002 
5.070908e-002 
5.483843e-002 
5.993556e-002 
6.349653e-002 
6.666184e-002 
6.841701e-002 
6.897637e-002 
7.068281e-002 
7.543298e-002 
8.095497e-002 
8.486077e-002 
8.585327e-002 
8.650720e-002 
8.834429e-002 
9.001454e-002 
9.325339e-002 
9.754817e-002 
9.965919e-002 
9.938623e-002 
9.769927e-002 
9.708978e-002 
9.935620e-002 
9.935358e-002 
9.741043e-002 
9.712901e-002 
9.717235e-002 
9.640205e-002 
9.558507e-002 
9.392016e-002 
9.247051e-002 
8.944058e-002 
8.487827e-002 
8.277412e-002 
8.309766e-002 
8.195464e-002 
7.811454e-002 
7.514158e-002 
7.230831e-002 
6.919281e-002 
6.589517e-002 
6.357427e-002 
6.135585e-002 
5.878603e-002 
5.585684e-002 
5.392199e-002 
5.269832e-002 
4.898924e-002 
4.361168e-002 
3.908309e-002 
3.598603e-002 
3.339074e-002 
3.241037e-002 
3.104513e-002 
2.783509e-002 
2.313970e-002 
1.969483e-002 
1.796214e-002 
1.785497e-002 
1.735188e-002 
1.619455e-002 
1.510864e-002 
1.351878e-002 
1.186381e-002 
1.180543e-002 
1.175144e-002 
9.873785e-003 
8.330152e-003 
7.350795e-003 
8.585313e-003 
9.297748e-003 
8.869613e-003 
7.991998e-003 
6.486053e-003 
4.397763e-003 
3.449889e-003 
3.872988e-003 
4.915918e-003 
5.046550e-003 
3.396779e-003 
2.918797e-003 
2.876772e-003 
3.626328e-003 
3.750142e-003 
2.968847e-003 
3.513903e-003 
4.005710e-003 
4.906829e-003 
6.521347e-003 
6.061409e-003 
5.295291e-003 
4.850112e-003 
2.637083e-003 
3.079558e-003 
5.385707e-003 
5.810150e-003 
6.246984e-003 
4.297545e-003 
1.561294e-003 
2.096081e-003 
2.310339e-003 
1.132802e-003 
1.476415e-003 
2.022100e-003 
1.943262e-003 
2.230403e-003 
1.537106e-003 
4.895206e-004 
-3.927275e-004 
-2.490814e-003 
-4.018110e-003 
-3.064803e-003 
-2.635514e-003 
-4.461638e-003 
-7.123569e-003 
-9.715732e-003 
-1.932660e-002 
-5.086843e-002 
-1.078891e-001 
-1.687268e-001 
-2.130259e-001 
-2.398974e-001 
-2.558722e-001 
-2.652735e-001 
-2.748269e-001 
-2.999301e-001 
-3.436108e-001 
-3.776033e-001 
-3.755973e-001 
-3.538020e-001 
-3.414441e-001 
-3.477686e-001 
-3.661539e-001 
-3.888213e-001 
-4.089607e-001 
-4.153077e-001 
-4.005292e-001 
-3.798739e-001 
-3.769022e-001 
-3.973252e-001 
-4.321219e-001 
-4.703860e-001 
-5.125032e-001 
-5.624583e-001 
-6.212894e-001 
-6.868991e-001 
-7.533724e-001 
-8.160330e-001 
-8.770637e-001 
-9.366481e-001 
-9.993257e-001 
-1.071926e+000 
-1.153080e+000 
-1.243169e+000 
-1.340811e+000 
-1.438877e+000 
-1.536543e+000 
-1.636798e+000 
-1.740839e+000 
-1.853007e+000 
-1.971005e+000 
-2.092039e+000 
-2.216059e+000 
-2.338069e+000 
-2.453973e+000 
-2.568787e+000 
-2.683528e+000 
-2.792324e+000 
-2.887044e+000 
-2.959723e+000 
-3.008939e+000 
-3.033134e+000 
-3.032855e+000 
-3.013130e+000 
-2.977174e+000 
-2.918637e+000 
-2.833673e+000 
-2.724613e+000 
-2.596308e+000 
-2.452058e+000 
-2.293806e+000 
-2.124592e+000 
-1.943470e+000 
-1.750484e+000 
-1.547778e+000 
-1.345530e+000 
-1.151308e+000 
-9.652086e-001 
-7.886190e-001 
-6.261248e-001 
-4.751455e-001 
-3.341389e-001 
-2.045192e-001 
-8.550030e-002 
2.284894e-002 
1.253415e-001 
2.234155e-001 
3.114637e-001 
3.895963e-001 
4.630781e-001 
5.311729e-001 
5.937084e-001 
6.515273e-001 
7.059569e-001 
7.567978e-001 
8.029738e-001 
8.448076e-001 
8.847848e-001 
9.230431e-001 
9.564028e-001 
9.854758e-001 
1.012880e+000 
1.038259e+000 
1.062190e+000 
1.085211e+000 
1.105737e+000 
1.122767e+000 
1.136475e+000 
1.149395e+000 
1.166018e+000 
1.184816e+000 
1.202552e+000 
1.220653e+000 
1.237692e+000 
1.253143e+000 
1.268795e+000 
1.287011e+000 
1.306832e+000 
1.327176e+000 
1.346430e+000 
1.365787e+000 
1.386098e+000 
1.405279e+000 
1.424612e+000 
1.445614e+000 
1.467858e+000 
1.488939e+000 
1.511695e+000 
1.535980e+000 
1.557752e+000 
1.576796e+000 
1.595977e+000 
1.617057e+000 
1.640450e+000 
1.663880e+000 
1.684541e+000 
1.704250e+000 
1.721089e+000 
1.734447e+000 
1.748585e+000 
1.763490e+000 
1.776892e+000 
1.787683e+000 
1.793741e+000 
1.796358e+000 
1.798338e+000 
1.797748e+000 
1.794384e+000 
1.788809e+000 
1.780740e+000 
1.769103e+000 
1.754021e+000 
1.735177e+000 
1.713265e+000 
1.688357e+000 
1.660259e+000 
1.630098e+000 
1.598164e+000 
1.563715e+000 
1.524945e+000 
1.482292e+000 
1.435973e+000 
1.387800e+000 
1.338714e+000 
1.287909e+000 
1.234404e+000 
1.179011e+000 
1.122013e+000 
1.065136e+000 
1.009666e+000 
9.554393e-001 
9.019123e-001 
8.474887e-001 
7.929106e-001 
7.415514e-001 
6.933600e-001 
6.469263e-001 
6.022948e-001 
5.585939e-001 
5.171132e-001 
4.791032e-001 
4.439786e-001 
4.138381e-001 
3.858035e-001 
3.582963e-001 
3.325683e-001 
3.094061e-001 
2.896581e-001 
2.726242e-001 
2.562919e-001 
2.401687e-001 
2.259091e-001 
2.135335e-001 
2.054574e-001 
1.984500e-001 
1.936187e-001 
1.888382e-001 
1.831156e-001 
1.785223e-001 
1.761504e-001 
1.756927e-001 
1.759405e-001 
1.744920e-001 
1.713400e-001 
1.714628e-001 
1.725694e-001 
1.753416e-001 
1.784936e-001 
1.810728e-001 
1.830779e-001 
1.855035e-001 
1.893237e-001 
1.946315e-001 
2.003761e-001 
2.037258e-001 
2.060056e-001 
2.080021e-001 
2.117339e-001 
2.165184e-001 
2.216674e-001 
2.259558e-001 
2.290482e-001 
2.313308e-001 
2.349417e-001 
2.400794e-001 
2.430745e-001 
2.459762e-001 
2.482910e-001 
2.499516e-001 
2.530133e-001 
2.564999e-001 
2.589110e-001 
2.616594e-001 
2.626844e-001 
2.625092e-001 
2.647184e-001 
2.666253e-001 
2.678057e-001 
2.691602e-001 
2.685328e-001 
2.673138e-001 
2.675231e-001 
2.668976e-001 
2.654589e-001 
2.638904e-001 
2.602406e-001 
2.574700e-001 
2.564750e-001 
2.551918e-001 
2.530598e-001 
2.496904e-001 
2.453257e-001 
2.423555e-001 
2.404017e-001 
2.376997e-001 
2.359338e-001 
2.329175e-001 
2.281899e-001 
2.234317e-001 
2.207531e-001 
2.194639e-001 
2.179592e-001 
2.151965e-001 
2.109423e-001 
2.069999e-001 
2.039316e-001 
2.015550e-001 
1.985284e-001 
1.949729e-001 
1.905761e-001 
1.871624e-001 
1.836007e-001 
1.804354e-001 
1.780501e-001 
1.754193e-001 
1.726624e-001 
1.716768e-001 
1.746397e-001 
1.811080e-001 
1.889040e-001 
1.976830e-001 
2.098060e-001 
2.233837e-001 
2.402913e-001 
2.596702e-001 
2.819830e-001 
3.058604e-001 
3.307425e-001 
3.574510e-001 
3.859880e-001 
4.127558e-001 
4.348868e-001 
4.522679e-001 
4.637687e-001 
4.716959e-001 
4.760909e-001 
4.771083e-001 
4.728431e-001 
4.611838e-001 
4.415900e-001 
4.170678e-001 
3.904351e-001 
3.621717e-001 
3.327816e-001 
3.013755e-001 
2.674155e-001 
2.331688e-001 
1.998275e-001 
1.678618e-001 
1.390094e-001 
1.133583e-001 
8.999748e-002 
6.945752e-002 
5.267038e-002 
4.059466e-002 
3.105303e-002 
2.197917e-002 
1.452762e-002 
9.297580e-003 
6.917625e-003 
6.261691e-003 
6.248836e-003 
7.157941e-003 
7.522500e-003 
6.769377e-003 
6.447949e-003 
5.775210e-003 
-1.060648e-003 
-2.985799e-002 
-8.988975e-002 
-1.630332e-001 
-2.224309e-001 
-2.603165e-001 
-2.896619e-001 
-3.189791e-001 
-3.494132e-001 
-3.931001e-001 
-4.602261e-001 
-5.264435e-001 
-5.587378e-001 
-5.592525e-001 
-5.607700e-001 
-5.808335e-001 
-6.069045e-001 
-6.317008e-001 
-6.548242e-001 
-6.652247e-001 
-6.501026e-001 
-6.181031e-001 
-5.934165e-001 
-5.908755e-001 
-6.024309e-001 
-6.202704e-001 
-6.428835e-001 
-6.692476e-001 
-7.015523e-001 
-7.410954e-001 
-7.862632e-001 
-8.362160e-001 
-8.884408e-001 
-9.429851e-001 
-9.998906e-001 
-1.059074e+000 
-1.126568e+000 
-1.206807e+000 
-1.299620e+000 
-1.400859e+000 
-1.507009e+000 
-1.614736e+000 
-1.725336e+000 
-1.840666e+000 
-1.964250e+000 
-2.095023e+000 
-2.229512e+000 
-2.365158e+000 
-2.498369e+000 
-2.627574e+000 
-2.752974e+000 
-2.877222e+000 
-2.995729e+000 
-3.101502e+000 
-3.189021e+000 
-3.254907e+000 
-3.296887e+000 
-3.312769e+000 
-3.304402e+000 
-3.274202e+000 
-3.220949e+000 
-3.139728e+000 
-3.035511e+000 
-2.910908e+000 
-2.765799e+000 
-2.604770e+000 
-2.431567e+000 
-2.248934e+000 
-2.055487e+000 
-1.850448e+000 
-1.639446e+000 
-1.432084e+000 
-1.228179e+000 
-1.032021e+000 
-8.479481e-001 
-6.756363e-001 
-5.136559e-001 
-3.586427e-001 
-2.126949e-001 
-7.902020e-002 
4.494637e-002 
1.621631e-001 
2.713536e-001 
3.733030e-001 
4.675307e-001 
5.558914e-001 
6.393025e-001 
7.153616e-001 
7.853898e-001 
8.511119e-001 
9.111294e-001 
9.652995e-001 
1.013222e+000 
1.055539e+000 
1.094381e+000 
1.130280e+000 
1.161236e+000 
1.188793e+000 
1.214171e+000 
1.236140e+000 
1.255919e+000 
1.272083e+000 
1.286101e+000 
1.300111e+000 
1.313100e+000 
1.324935e+000 
1.338507e+000 
1.351763e+000 
1.363080e+000 
1.374776e+000 
1.386324e+000 
1.400497e+000 
1.416331e+000 
1.431261e+000 
1.445477e+000 
1.459352e+000 
1.473054e+000 
1.488358e+000 
1.506774e+000 
1.524903e+000 
1.543287e+000 
1.560820e+000 
1.577611e+000 
1.595251e+000 
1.615171e+000 
1.636572e+000 
1.657184e+000 
1.677076e+000 
1.694710e+000 
1.713993e+000 
1.733961e+000 
1.753638e+000 
1.772678e+000 
1.791931e+000 
1.809269e+000 
1.825102e+000 
1.841204e+000 
1.855585e+000 
1.869555e+000 
1.879232e+000 
1.885270e+000 
1.890948e+000 
1.896294e+000 
1.898000e+000 
1.897217e+000 
1.893090e+000 
1.885719e+000 
1.874747e+000 
1.859639e+000 
1.842784e+000 
1.821785e+000 
1.795819e+000 
1.765643e+000 
1.733074e+000 
1.698478e+000 
1.658951e+000 
1.613836e+000 
1.567217e+000 
1.516361e+000 
1.463020e+000 
1.410135e+000 
1.354778e+000 
1.295943e+000 
1.233648e+000 
1.168129e+000 
1.104836e+000 
1.043462e+000 
9.804948e-001 
9.197022e-001 
8.583000e-001 
7.954718e-001 
7.341318e-001 
6.765525e-001 
6.227361e-001 
5.716854e-001 
5.204374e-001 
4.726047e-001 
4.291689e-001 
3.889720e-001 
3.526701e-001 
3.179907e-001 
2.869349e-001 
2.584003e-001 
2.314173e-001 
2.094338e-001 
1.931506e-001 
1.767746e-001 
1.611279e-001 
1.460733e-001 
1.325581e-001 
1.251752e-001 
1.198137e-001 
1.144224e-001 
1.107661e-001 
1.058338e-001 
1.000784e-001 
9.799406e-002 
9.695606e-002 
9.637138e-002 
9.708154e-002 
9.611923e-002 
9.442277e-002 
9.437300e-002 
9.485635e-002 
9.651359e-002 
9.820459e-002 
9.778873e-002 
9.768213e-002 
9.875611e-002 
9.979664e-002 
1.018257e-001 
1.037024e-001 
1.045584e-001 
1.071886e-001 
1.096499e-001 
1.125232e-001 
1.152297e-001 
1.170554e-001 
1.200811e-001 
1.243545e-001 
1.290659e-001 
1.373592e-001 
1.484886e-001 
1.600427e-001 
1.741134e-001 
1.904903e-001 
2.100152e-001 
2.317152e-001 
2.530737e-001 
2.750988e-001 
3.010109e-001 
3.304312e-001 
3.627510e-001 
3.959764e-001 
4.244824e-001 
4.467971e-001 
4.622722e-001 
4.724411e-001 
4.806906e-001 
4.878012e-001 
4.895452e-001 
4.838529e-001 
4.692644e-001 
4.452251e-001 
4.175252e-001 
3.866794e-001 
3.548596e-001 
3.228163e-001 
2.889226e-001 
2.526805e-001 
2.158206e-001 
1.772888e-001 
1.393918e-001 
1.058164e-001 
7.524008e-002 
5.006034e-002 
2.983961e-002 
1.408727e-002 
1.796087e-003 
-9.293641e-003 
-1.884792e-002 
-2.436545e-002 
-2.586492e-002 
-2.728228e-002 
-2.908612e-002 
-3.095824e-002 
-3.149423e-002 
-3.107361e-002 
-3.077924e-002 
-2.941073e-002 
-2.812423e-002 
-2.868590e-002 
-3.203215e-002 
-3.487024e-002 
-3.432118e-002 
-3.285356e-002 
-3.418086e-002 
-3.759485e-002 
-4.030787e-002 
-4.387421e-002 
-4.766895e-002 
-5.101246e-002 
-5.295984e-002 
-5.394741e-002 
-5.567124e-002 
-5.693627e-002 
-5.413468e-002 
-4.899508e-002 
-4.664223e-002 
-4.553939e-002 
-4.503428e-002 
-4.352991e-002 
-3.961276e-002 
-3.457510e-002 
-2.885185e-002 
-2.232824e-002 
-1.734881e-002 
-1.363693e-002 
-9.856079e-003 
-5.695926e-003 
-1.545801e-003 
4.242776e-003 
1.083184e-002 
1.718915e-002 
2.316889e-002 
2.872631e-002 
3.163854e-002 
3.320120e-002 
3.646651e-002 
4.211919e-002 
5.117124e-002 
5.744162e-002 
5.838558e-002 
5.717375e-002 
5.425656e-002 
3.838298e-002 
-2.770077e-003 
-6.476720e-002 
-1.208391e-001 
-1.565121e-001 
-1.816617e-001 
-2.041190e-001 
-2.233108e-001 
-2.467737e-001 
-2.921989e-001 
-3.530182e-001 
-3.902302e-001 
-3.861318e-001 
-3.698589e-001 
-3.701869e-001 
-3.872629e-001 
-4.076567e-001 
-4.281055e-001 
-4.434388e-001 
-4.366361e-001 
-4.059542e-001 
-3.771853e-001 
-3.713324e-001 
-3.879226e-001 
-4.151394e-001 
-4.438492e-001 
-4.793750e-001 
-5.249569e-001 
-5.790097e-001 
-6.398472e-001 
-7.031974e-001 
-7.658450e-001 
-8.322939e-001 
-9.068976e-001 
-9.911090e-001 
-1.087091e+000 
-1.190891e+000 
-1.297200e+000 
-1.405112e+000 
-1.514550e+000 
-1.628209e+000 
-1.749949e+000 
-1.878021e+000 
-2.007425e+000 
-2.136343e+000 
-2.263774e+000 
-2.388900e+000 
-2.513217e+000 
-2.633808e+000 
-2.743478e+000 
-2.834860e+000 
-2.905458e+000 
-2.952186e+000 
-2.975204e+000 
-2.975019e+000 
-2.951170e+000 
-2.904559e+000 
-2.833566e+000 
-2.734046e+000 
-2.611597e+000 
-2.472290e+000 
-2.314574e+000 
-2.143909e+000 
-1.963373e+000 
-1.772683e+000 
-1.574555e+000 
-1.369594e+000 
-1.161212e+000 
-9.604669e-001 
-7.717897e-001 
-5.965315e-001 
-4.362150e-001 
-2.884170e-001 
-1.519539e-001 
-2.470285e-002 
9.467468e-002 
2.045489e-001 
3.038701e-001 
3.947509e-001 
4.811883e-001 
5.639756e-001 
6.394339e-001 
7.084268e-001 
7.733898e-001 
8.324277e-001 
8.869671e-001 
9.370644e-001 
9.840125e-001 
1.029147e+000 
1.069182e+000 
1.103885e+000 
1.137720e+000 
1.168285e+000 
1.194295e+000 
1.217146e+000 
1.237139e+000 
1.256787e+000 
1.275775e+000 
1.292194e+000 
1.306393e+000 
1.318817e+000 
1.328609e+000 
1.340788e+000 
1.355020e+000 
1.369538e+000 
1.384506e+000 
1.398849e+000 
1.412521e+000 
1.426136e+000 
1.440275e+000 
1.456844e+000 
1.474747e+000 
1.490095e+000 
1.505265e+000 
1.522500e+000 
1.542025e+000 
1.561545e+000 
1.579426e+000 
1.598392e+000 
1.618899e+000 
1.638930e+000 
1.659840e+000 
1.681741e+000 
1.704252e+000 
1.726046e+000 
1.744679e+000 
1.763801e+000 
1.784896e+000 
1.804722e+000 
1.822414e+000 
1.837600e+000 
1.850967e+000 
1.864993e+000 
1.876994e+000 
1.886254e+000 
1.894473e+000 
1.899490e+000 
1.901152e+000 
1.900495e+000 
1.898382e+000 
1.894784e+000 
1.887148e+000 
1.873445e+000 
1.856553e+000 
1.837289e+000 
1.814873e+000 
1.788403e+000 
1.757049e+000 
1.720679e+000 
1.680656e+000 
1.637072e+000 
1.591745e+000 
1.543962e+000 
1.490223e+000 
1.431896e+000 
1.370600e+000 
1.307186e+000 
1.245090e+000 
1.183873e+000 
1.120579e+000 
1.056736e+000 
9.903686e-001 
9.253741e-001 
8.652396e-001 
8.075365e-001 
7.517456e-001 
6.986235e-001 
6.469389e-001 
6.004225e-001 
5.605161e-001 
5.277758e-001 
5.022640e-001 
4.801220e-001 
4.614352e-001 
4.469308e-001 
4.359266e-001 
4.312985e-001 
4.331941e-001 
4.398513e-001 
4.513292e-001 
4.617948e-001 
4.719752e-001 
4.822196e-001 
4.876642e-001 
4.897057e-001 
4.916558e-001 
4.915482e-001 
4.899378e-001 
4.831599e-001 
4.678400e-001 
4.473148e-001 
4.210827e-001 
3.917788e-001 
3.648562e-001 
3.394726e-001 
3.133884e-001 
2.867567e-001 
2.574486e-001 
2.265787e-001 
1.973995e-001 
1.721078e-001 
1.513224e-001 
1.352982e-001 
1.233659e-001 
1.149502e-001 
1.096139e-001 
1.060642e-001 
1.032110e-001 
1.025720e-001 
1.037883e-001 
1.059666e-001 
1.117009e-001 
1.173865e-001 
1.207999e-001 
1.227976e-001 
1.235326e-001 
1.227981e-001 
1.228167e-001 
1.219028e-001 
1.203852e-001 
1.192001e-001 
1.161303e-001 
1.124494e-001 
1.091844e-001 
1.061859e-001 
1.011186e-001 
9.455990e-002 
8.724640e-002 
8.209321e-002 
7.943641e-002 
7.523389e-002 
6.980386e-002 
6.551309e-002 
6.085440e-002 
5.555647e-002 
5.366262e-002 
5.409002e-002 
5.450720e-002 
5.128948e-002 
4.538126e-002 
4.132952e-002 
3.934342e-002 
3.777927e-002 
3.610893e-002 
3.422938e-002 
3.181988e-002 
2.830452e-002 
2.524444e-002 
2.630535e-002 
2.778395e-002 
2.846339e-002 
2.840067e-002 
2.626705e-002 
2.548978e-002 
2.710193e-002 
2.775190e-002 
2.911634e-002 
3.062357e-002 
2.984846e-002 
3.156894e-002 
3.502531e-002 
3.722096e-002 
3.922024e-002 
4.110319e-002 
4.138341e-002 
4.220318e-002 
4.308752e-002 
4.455373e-002 
4.907251e-002 
5.267129e-002 
5.377870e-002 
5.698353e-002 
6.113861e-002 
6.335052e-002 
6.544110e-002 
6.804711e-002 
7.350104e-002 
8.000132e-002 
8.358610e-002 
8.501181e-002 
8.806430e-002 
8.957690e-002 
9.136697e-002 
9.645697e-002 
1.034619e-001 
1.106032e-001 
1.142087e-001 
1.145266e-001 
1.152254e-001 
1.182208e-001 
1.208429e-001 
1.242271e-001 
1.274140e-001 
1.290242e-001 
1.293095e-001 
1.289764e-001 
1.288899e-001 
1.291009e-001 
1.290399e-001 
1.274999e-001 
1.255867e-001 
1.235282e-001 
1.210603e-001 
1.177781e-001 
1.095760e-001 
8.232959e-002 
2.615435e-002 
-4.623567e-002 
-1.083427e-001 
-1.501663e-001 
-1.797819e-001 
-2.065770e-001 
-2.347680e-001 
-2.732640e-001 
-3.333485e-001 
-3.998926e-001 
-4.366182e-001 
-4.375072e-001 
-4.336958e-001 
-4.449132e-001 
-4.701279e-001 
-4.999216e-001 
-5.282730e-001 
-5.478119e-001 
-5.431364e-001 
-5.152323e-001 
-4.914764e-001 
-4.908279e-001 
-5.113305e-001 
-5.430439e-001 
-5.798621e-001 
-6.230464e-001 
-6.733536e-001 
-7.266740e-001 
-7.842705e-001 
-8.481677e-001 
-9.187213e-001 
-9.985813e-001 
-1.089595e+000 
-1.192702e+000 
-1.303787e+000 
-1.416041e+000 
-1.530001e+000 
-1.652019e+000 
-1.782534e+000 
-1.921508e+000 
-2.069704e+000 
-2.223579e+000 
-2.377903e+000 
-2.525306e+000 
-2.660827e+000 
-2.786227e+000 
-2.897632e+000 
-2.987707e+000 
-3.053600e+000 
-3.093185e+000 
-3.106636e+000 
-3.094261e+000 
-3.052184e+000 
-2.979751e+000 
-2.879402e+000 
-2.752705e+000 
-2.604382e+000 
-2.440443e+000 
-2.263191e+000 
-2.073008e+000 
-1.868601e+000 
-1.652701e+000 
-1.431023e+000 
-1.212108e+000 
-1.002279e+000 
-8.066819e-001 
-6.253772e-001 
-4.539145e-001 
-2.942912e-001 
-1.485491e-001 
-1.584522e-002 
1.074157e-001 
2.225027e-001 
3.300653e-001 
4.274553e-001 
5.184614e-001 
6.034424e-001 
6.788618e-001 
7.466023e-001 
8.098621e-001 
8.708083e-001 
9.261046e-001 
9.747971e-001 
1.018048e+000 
1.059057e+000 
1.096939e+000 
1.130135e+000 
1.158719e+000 
1.186168e+000 
1.209982e+000 
1.229277e+000 
1.248948e+000 
1.267558e+000 
1.284362e+000 
1.300258e+000 
1.314841e+000 
1.329820e+000 
1.346931e+000 
1.363093e+000 
1.380299e+000 
1.398333e+000 
1.414672e+000 
1.432955e+000 
1.453379e+000 
1.473636e+000 
1.493645e+000 
1.513785e+000 
1.535114e+000 
1.558580e+000 
1.583097e+000 
1.609220e+000 
1.636593e+000 
1.664258e+000 
1.694195e+000 
1.727290e+000 
1.765013e+000 
1.806032e+000 
1.847067e+000 
1.888607e+000 
1.930078e+000 
1.971917e+000 
2.017960e+000 
2.065247e+000 
2.111532e+000 
2.157131e+000 
2.197476e+000 
2.231741e+000 
2.259872e+000 
2.279559e+000 
2.293425e+000 
2.300211e+000 
2.297725e+000 
2.287870e+000 
2.268328e+000 
2.235335e+000 
2.191077e+000 
2.136100e+000 
2.073820e+000 
2.007340e+000 
1.937720e+000 
1.863771e+000 
1.782425e+000 
1.693241e+000 
1.599105e+000 
1.504700e+000 
1.411623e+000 
1.321967e+000 
1.234525e+000 
1.148652e+000 
1.062236e+000 
9.781902e-001 
8.980493e-001 
8.213577e-001 
7.483740e-001 
6.781140e-001 
6.102576e-001 
5.454039e-001 
4.861525e-001 
4.303760e-001 
3.772567e-001 
3.257107e-001 
2.763018e-001 
2.301982e-001 
1.886128e-001 
1.510938e-001 
1.173485e-001 
8.653284e-002 
5.560391e-002 
2.734165e-002 
2.922801e-003 
-1.922987e-002 
-3.917526e-002 
-5.513001e-002 
-6.964548e-002 
-8.275037e-002 
-9.262121e-002 
-1.006088e-001 
-1.065836e-001 
-1.110362e-001 
-1.160305e-001 
-1.183715e-001 
-1.164931e-001 
-1.150637e-001 
-1.135885e-001 
-1.112177e-001 
-1.100761e-001 
-1.081596e-001 
-1.044175e-001 
-1.004327e-001 
-9.472658e-002 
-8.972153e-002 
-8.710095e-002 
-8.398949e-002 
-8.037168e-002 
-7.657192e-002 
-7.135490e-002 
-6.627139e-002 
-6.163514e-002 
-5.650622e-002 
-5.160853e-002 
-4.642265e-002 
-4.219797e-002 
-3.937387e-002 
-3.558792e-002 
-3.107058e-002 
-2.655867e-002 
-2.111939e-002 
-1.688172e-002 
-1.330300e-002 
-1.093843e-002 
-8.851019e-003 
-4.952251e-003 
2.531091e-004 
4.070198e-003 
6.620620e-003 
8.218988e-003 
9.151808e-003 
1.060635e-002 
1.108738e-002 
1.332421e-002 
1.519345e-002 
1.587948e-002 
1.650293e-002 
1.792665e-002 
1.934958e-002 
1.959523e-002 
1.852384e-002 
1.779635e-002 
1.839934e-002 
1.901752e-002 
1.981949e-002 
2.052553e-002 
1.990200e-002 
1.851037e-002 
1.804096e-002 
1.970208e-002 
2.191290e-002 
2.349820e-002 
2.490090e-002 
2.577834e-002 
2.590546e-002 
2.655414e-002 
2.919523e-002 
3.063549e-002 
3.095977e-002 
3.104886e-002 
3.165142e-002 
3.294399e-002 
3.338875e-002 
3.374470e-002 
3.479079e-002 
3.508072e-002 
3.357789e-002 
3.437134e-002 
3.681674e-002 
3.725216e-002 
3.602391e-002 
3.551366e-002 
3.741699e-002 
3.963355e-002 
4.045697e-002 
4.080806e-002 
4.309873e-002 
4.531750e-002 
4.686837e-002 
5.120186e-002 
5.774246e-002 
6.414237e-002 
6.774196e-002 
7.044410e-002 
7.533756e-002 
8.251155e-002 
8.986263e-002 
9.659487e-002 
1.020925e-001 
1.064709e-001 
1.118774e-001 
1.166893e-001 
1.215316e-001 
1.262991e-001 
1.304775e-001 
1.326507e-001 
1.332407e-001 
1.342937e-001 
1.362185e-001 
1.371345e-001 
1.357313e-001 
1.344490e-001 
1.342025e-001 
1.337113e-001 
1.315392e-001 
1.290953e-001 
1.258190e-001 
1.212384e-001 
1.169433e-001 
1.147055e-001 
1.107812e-001 
9.301960e-002 
4.712901e-002 
-2.171392e-002 
-8.890654e-002 
-1.360127e-001 
-1.664494e-001 
-1.923167e-001 
-2.186064e-001 
-2.523786e-001 
-3.047394e-001 
-3.696736e-001 
-4.147128e-001 
-4.232547e-001 
-4.154580e-001 
-4.205037e-001 
-4.409996e-001 
-4.654267e-001 
-4.895635e-001 
-5.095158e-001 
-5.109224e-001 
-4.895212e-001 
-4.635501e-001 
-4.531869e-001 
-4.635767e-001 
-4.860452e-001 
-5.150805e-001 
-5.507514e-001 
-5.945732e-001 
-6.427261e-001 
-6.944902e-001 
-7.494089e-001 
-8.089845e-001 
-8.758114e-001 
-9.515428e-001 
-1.037306e+000 
-1.134235e+000 
-1.239694e+000 
-1.347143e+000 
-1.457166e+000 
-1.573666e+000 
-1.697147e+000 
-1.829158e+000 
-1.972584e+000 
-2.124264e+000 
-2.279481e+000 
-2.429108e+000 
-2.565254e+000 
-2.688434e+000 
-2.796592e+000 
-2.884236e+000 
-2.951771e+000 
-2.994729e+000 
-3.010108e+000 
-3.000951e+000 
-2.963607e+000 
-2.895447e+000 
-2.801235e+000 
-2.682629e+000 
-2.542343e+000 
-2.385257e+000 
-2.212954e+000 
-2.029947e+000 
-1.835869e+000 
-1.627667e+000 
-1.411900e+000 
-1.199915e+000 
-9.978184e-001 
-8.101830e-001 
-6.389728e-001 
-4.813621e-001 
-3.329193e-001 
-1.922164e-001 
-5.884353e-002 
6.753083e-002 
1.866294e-001 
3.002161e-001 
4.092330e-001 
5.137801e-001 
6.128997e-001 
7.072605e-001 
7.962244e-001 
8.830810e-001 
9.698146e-001 
1.054256e+000 
1.134270e+000 
1.207909e+000 
1.272089e+000 
1.325024e+000 
1.370628e+000 
1.408293e+000 
1.437982e+000 
1.460203e+000 
1.472131e+000 
1.473168e+000 
1.468611e+000 
1.456555e+000 
1.437692e+000 
1.417494e+000 
1.395787e+000 
1.374977e+000 
1.355869e+000 
1.333950e+000 
1.311305e+000 
1.292422e+000 
1.274565e+000 
1.262545e+000 
1.258605e+000 
1.261431e+000 
1.270638e+000 
1.283231e+000 
1.295438e+000 
1.311813e+000 
1.332829e+000 
1.354988e+000 
1.378155e+000 
1.401335e+000 
1.425668e+000 
1.450378e+000 
1.474623e+000 
1.496885e+000 
1.519475e+000 
1.539690e+000 
1.557121e+000 
1.574328e+000 
1.591711e+000 
1.607210e+000 
1.620035e+000 
1.629620e+000 
1.635922e+000 
1.640475e+000 
1.643369e+000 
1.646831e+000 
1.647857e+000 
1.643243e+000 
1.635285e+000 
1.626560e+000 
1.615886e+000 
1.602986e+000 
1.585895e+000 
1.565509e+000 
1.541874e+000 
1.512626e+000 
1.481508e+000 
1.448999e+000 
1.411880e+000 
1.369372e+000 
1.322112e+000 
1.271243e+000 
1.218943e+000 
1.164699e+000 
1.107921e+000 
1.048422e+000 
9.854773e-001 
9.214044e-001 
8.567286e-001 
7.928916e-001 
7.309274e-001 
6.679823e-001 
6.054692e-001 
5.449030e-001 
4.858912e-001 
4.294312e-001 
3.741241e-001 
3.204833e-001 
2.724005e-001 
2.274620e-001 
1.837388e-001 
1.451973e-001 
1.095511e-001 
7.571661e-002 
4.508605e-002 
1.813314e-002 
-3.551438e-003 
-2.126041e-002 
-3.794469e-002 
-5.359262e-002 
-6.626416e-002 
-7.692600e-002 
-8.429459e-002 
-8.831596e-002 
-9.188994e-002 
-9.509094e-002 
-9.548711e-002 
-9.491945e-002 
-9.319278e-002 
-8.989609e-002 
-8.734711e-002 
-8.345152e-002 
-7.855177e-002 
-7.446465e-002 
-6.682464e-002 
-5.790149e-002 
-5.180226e-002 
-4.547766e-002 
-3.997641e-002 
-3.323857e-002 
-2.384505e-002 
-1.584183e-002 
-9.030653e-003 
-1.700661e-003 
4.454475e-003 
1.134233e-002 
2.019689e-002 
2.844079e-002 
3.480098e-002 
3.915077e-002 
4.300923e-002 
4.875338e-002 
5.597366e-002 
6.265045e-002 
6.795999e-002 
7.153036e-002 
7.131017e-002 
7.074294e-002 
7.408364e-002 
7.880240e-002 
8.279058e-002 
8.432815e-002 
8.381868e-002 
8.353515e-002 
8.240495e-002 
8.103288e-002 
8.097066e-002 
8.078655e-002 
7.890372e-002 
7.630496e-002 
7.335062e-002 
7.122232e-002 
6.848541e-002 
6.459869e-002 
6.134911e-002 
5.827514e-002 
5.693648e-002 
5.528935e-002 
5.237146e-002 
4.911803e-002 
4.575648e-002 
4.122590e-002 
3.781219e-002 
3.602488e-002 
3.296924e-002 
2.942080e-002 
2.542766e-002 
2.325973e-002 
2.325146e-002 
2.142059e-002 
1.796965e-002 
1.446768e-002 
1.027958e-002 
5.185787e-003 
2.984995e-003 
2.392464e-003 
1.931424e-003 
-1.116088e-003 
-6.661929e-003 
-1.063186e-002 
-1.221182e-002 
-1.292837e-002 
-1.332632e-002 
-1.382457e-002 
-1.656079e-002 
-1.944237e-002 
-2.280521e-002 
-2.629029e-002 
-2.784627e-002 
-2.848115e-002 
-3.050528e-002 
-3.243834e-002 
-3.488477e-002 
-3.706930e-002 
-3.853972e-002 
-4.277759e-002 
-4.736306e-002 
-4.884415e-002 
-5.045284e-002 
-5.323624e-002 
-5.621579e-002 
-5.991307e-002 
-6.261894e-002 
-6.551437e-002 
-6.807264e-002 
-6.807926e-002 
-6.768116e-002 
-7.035901e-002 
-7.428487e-002 
-7.663554e-002 
-7.778039e-002 
-7.777892e-002 
-7.936928e-002 
-8.136670e-002 
-8.277273e-002 
-8.470071e-002 
-8.737736e-002 
-8.777748e-002 
-8.901271e-002 
-9.146121e-002 
-9.379049e-002 
-9.659071e-002 
-9.735619e-002 
-9.762432e-002 
-1.001140e-001 
-1.040937e-001 
-1.090698e-001 
-1.206031e-001 
-1.488745e-001 
-2.085235e-001 
-2.858196e-001 
-3.495404e-001 
-3.905455e-001 
-4.194481e-001 
-4.446698e-001 
-4.706400e-001 
-5.078430e-001 
-5.687558e-001 
-6.361693e-001 
-6.680946e-001 
-6.595230e-001 
-6.478110e-001 
-6.569516e-001 
-6.798742e-001 
-7.045826e-001 
-7.275135e-001 
-7.392475e-001 
-7.238418e-001 
-6.868298e-001 
-6.558742e-001 
-6.523365e-001 
-6.713362e-001 
-6.988518e-001 
-7.315103e-001 
-7.724721e-001 
-8.185506e-001 
-8.657550e-001 
-9.127103e-001 
-9.617397e-001 
-1.019239e+000 
-1.088218e+000 
-1.168309e+000 
-1.256438e+000 
-1.347735e+000 
-1.439026e+000 
-1.533017e+000 
-1.638196e+000 
-1.760987e+000 
-1.900390e+000 
-2.052851e+000 
-2.212671e+000 
-2.373085e+000 
-2.528106e+000 
-2.673324e+000 
-2.806216e+000 
-2.927793e+000 
-3.031074e+000 
-3.110566e+000 
-3.167643e+000 
-3.200090e+000 
-3.202222e+000 
-3.170331e+000 
-3.104495e+000 
-3.011395e+000 
-2.896970e+000 
-2.759632e+000 
-2.603607e+000 
-2.430274e+000 
-2.236151e+000 
-2.023780e+000 
-1.800130e+000 
-1.574160e+000 
-1.355960e+000 
-1.148612e+000 
-9.534366e-001 
-7.725476e-001 
-6.042239e-001 
-4.466029e-001 
-2.989579e-001 
-1.605149e-001 
-3.028240e-002 
9.128876e-002 
2.019335e-001 
3.023791e-001 
3.948006e-001 
4.805794e-001 
5.613120e-001 
6.356695e-001 
7.024871e-001 
7.626793e-001 
8.152686e-001 
8.612386e-001 
9.048172e-001 
9.452920e-001 
9.814322e-001 
1.013454e+000 
1.041956e+000 
1.068350e+000 
1.092301e+000 
1.114956e+000 
1.136262e+000 
1.155944e+000 
1.174161e+000 
1.191436e+000 
1.209726e+000 
1.230268e+000 
1.250139e+000 
1.268145e+000 
1.286124e+000 
1.304221e+000 
1.325666e+000 
1.346931e+000 
1.365659e+000 
1.385204e+000 
1.404843e+000 
1.423477e+000 
1.444396e+000 
1.468779e+000 
1.494235e+000 
1.519528e+000 
1.541734e+000 
1.564266e+000 
1.589349e+000 
1.613750e+000 
1.638135e+000 
1.662639e+000 
1.685647e+000 
1.707046e+000 
1.729144e+000 
1.751337e+000 
1.772977e+000 
1.792582e+000 
1.809780e+000 
1.825366e+000 
1.837668e+000 
1.848233e+000 
1.856055e+000 
1.861554e+000 
1.863959e+000 
1.862865e+000 
1.859185e+000 
1.852906e+000 
1.842328e+000 
1.826204e+000 
1.806586e+000 
1.783289e+000 
1.757641e+000 
1.728065e+000 
1.692242e+000 
1.651023e+000 
1.604734e+000 
1.553808e+000 
1.499120e+000 
1.443188e+000 
1.383909e+000 
1.321206e+000 
1.255280e+000 
1.186003e+000 
1.116284e+000 
1.046247e+000 
9.752286e-001 
9.037747e-001 
8.340250e-001 
7.639451e-001 
6.967817e-001 
6.324356e-001 
5.691025e-001 
5.079366e-001 
4.483118e-001 
3.925886e-001 
3.419014e-001 
2.956474e-001 
2.516123e-001 
2.114020e-001 
1.740893e-001 
1.394886e-001 
1.082767e-001 
8.016369e-002 
5.617778e-002 
3.451948e-002 
1.514185e-002 
-2.705031e-003 
-1.730911e-002 
-2.873848e-002 
-3.831439e-002 
-4.738730e-002 
-5.505256e-002 
-5.994009e-002 
-6.337311e-002 
-6.682397e-002 
-7.029743e-002 
-7.082954e-002 
-7.085574e-002 
-7.096076e-002 
-6.978616e-002 
-6.746391e-002 
-6.496554e-002 
-6.367274e-002 
-6.222081e-002 
-5.729693e-002 
-5.015823e-002 
-4.564594e-002 
-4.154814e-002 
-3.791027e-002 
-3.584182e-002 
-3.323363e-002 
-2.874801e-002 
-2.237315e-002 
-1.620687e-002 
-1.274973e-002 
-1.142403e-002 
-8.371151e-003 
-4.876627e-003 
-1.245810e-003 
3.310294e-003 
7.696935e-003 
1.019242e-002 
1.088085e-002 
1.209558e-002 
1.397161e-002 
1.660604e-002 
1.794515e-002 
1.779902e-002 
1.858459e-002 
1.985017e-002 
1.976404e-002 
1.759504e-002 
1.599315e-002 
1.591648e-002 
1.587565e-002 
1.385123e-002 
1.220197e-002 
1.068660e-002 
7.873816e-003 
3.609609e-003 
-3.975659e-004 
-1.732838e-004 
3.605003e-004 
-2.247237e-003 
-5.890066e-003 
-9.086052e-003 
-1.175504e-002 
-1.233686e-002 
-1.253258e-002 
-1.289466e-002 
-1.366170e-002 
-1.574621e-002 
-1.780788e-002 
-1.839151e-002 
-1.776958e-002 
-1.687125e-002 
-1.717119e-002 
-1.836698e-002 
-1.912422e-002 
-1.913074e-002 
-1.835499e-002 
-1.803848e-002 
-1.799292e-002 
-1.870675e-002 
-1.978543e-002 
-1.959329e-002 
-1.793577e-002 
-1.729417e-002 
-1.745204e-002 
-1.773655e-002 
-1.780707e-002 
-1.676711e-002 
-1.540218e-002 
-1.386422e-002 
-1.239809e-002 
-1.147500e-002 
-9.783864e-003 
-6.327264e-003 
-2.951538e-003 
1.038182e-004 
3.820406e-003 
6.400107e-003 
8.707409e-003 
1.266661e-002 
1.769395e-002 
2.231795e-002 
2.565719e-002 
2.819005e-002 
3.232251e-002 
3.778245e-002 
4.117329e-002 
4.439276e-002 
4.822017e-002 
5.043967e-002 
5.207111e-002 
5.690397e-002 
6.392918e-002 
7.322000e-002 
8.397725e-002 
9.621157e-002 
1.119776e-001 
1.315903e-001 
1.526118e-001 
1.771172e-001 
2.054611e-001 
2.350495e-001 
2.679702e-001 
3.043749e-001 
3.428033e-001 
3.825327e-001 
4.207967e-001 
4.555454e-001 
4.873343e-001 
5.098005e-001 
5.115563e-001 
4.783291e-001 
4.146717e-001 
3.482930e-001 
2.967092e-001 
2.565315e-001 
2.179219e-001 
1.718141e-001 
1.123184e-001 
3.069469e-002 
-6.641310e-002 
-1.410291e-001 
-1.765991e-001 
-1.990706e-001 
-2.347118e-001 
-2.872605e-001 
-3.454271e-001 
-3.979485e-001 
-4.385565e-001 
-4.535769e-001 
-4.395891e-001 
-4.213757e-001 
-4.199827e-001 
-4.376862e-001 
-4.677698e-001 
-5.056305e-001 
-5.497941e-001 
-6.005770e-001 
-6.562887e-001 
-7.156024e-001 
-7.766338e-001 
-8.395278e-001 
-9.091400e-001 
-9.902873e-001 
-1.082762e+000 
-1.182971e+000 
-1.289553e+000 
-1.401964e+000 
-1.518151e+000 
-1.640153e+000 
-1.772077e+000 
-1.914012e+000 
-2.064112e+000 
-2.219232e+000 
-2.376334e+000 
-2.534622e+000 
-2.692194e+000 
-2.841303e+000 
-2.978015e+000 
-3.097551e+000 
-3.195216e+000 
-3.267965e+000 
-3.313919e+000 
-3.331384e+000 
-3.324319e+000 
-3.291821e+000 
-3.225588e+000 
-3.129032e+000 
-3.007734e+000 
-2.864679e+000 
-2.702199e+000 
-2.523805e+000 
-2.330926e+000 
-2.127556e+000 
-1.910810e+000 
-1.682002e+000 
-1.454727e+000 
-1.235180e+000 
-1.026072e+000 
-8.308870e-001 
-6.505935e-001 
-4.808193e-001 
-3.220111e-001 
-1.724030e-001 
-3.107168e-002 
1.012750e-001 
2.254964e-001 
3.408515e-001 
4.469325e-001 
5.464378e-001 
6.412281e-001 
7.269401e-001 
8.049818e-001 
8.782371e-001 
9.449811e-001 
1.003848e+000 
1.055953e+000 
1.103855e+000 
1.148854e+000 
1.189940e+000 
1.224744e+000 
1.255511e+000 
1.281869e+000 
1.303828e+000 
1.324034e+000 
1.344703e+000 
1.365641e+000 
1.383586e+000 
1.398498e+000 
1.411435e+000 
1.424716e+000 
1.438721e+000 
1.455327e+000 
1.472232e+000 
1.488731e+000 
1.503976e+000 
1.518881e+000 
1.534990e+000 
1.551284e+000 
1.568084e+000 
1.585401e+000 
1.603206e+000 
1.619567e+000 
1.636274e+000 
1.653621e+000 
1.671031e+000 
1.687492e+000 
1.703977e+000 
1.721495e+000 
1.739297e+000 
1.756312e+000 
1.771045e+000 
1.785034e+000 
1.799642e+000 
1.813495e+000 
1.826962e+000 
1.839158e+000 
1.847359e+000 
1.853326e+000 
1.858002e+000 
1.860276e+000 
1.863350e+000 
1.866063e+000 
1.863236e+000 
1.855445e+000 
1.843521e+000 
1.829464e+000 
1.815453e+000 
1.797957e+000 
1.774999e+000 
1.749544e+000 
1.719927e+000 
1.683897e+000 
1.646118e+000 
1.606813e+000 
1.563128e+000 
1.513927e+000 
1.459903e+000 
1.402971e+000 
1.346124e+000 
1.286581e+000 
1.223307e+000 
1.159020e+000 
1.091433e+000 
1.021856e+000 
9.534665e-001 
8.865706e-001 
8.203357e-001 
7.554479e-001 
6.900040e-001 
6.266617e-001 
5.655474e-001 
5.074767e-001 
4.535212e-001 
4.019125e-001 
3.533578e-001 
3.094757e-001 
2.688567e-001 
2.310119e-001 
1.964028e-001 
1.646730e-001 
1.375741e-001 
1.126660e-001 
9.084599e-002 
7.334857e-002 
5.731349e-002 
4.139491e-002 
2.826943e-002 
1.801506e-002 
1.150359e-002 
6.366722e-003 
1.978307e-004 
-4.052834e-003 
-7.103543e-003 
-9.431516e-003 
-9.382364e-003 
-8.011462e-003 
-7.199784e-003 
-6.848273e-003 
-7.984456e-003 
-7.612514e-003 
-4.374302e-003 
-1.563103e-003 
5.797246e-004 
2.718372e-003 
4.148920e-003 
5.268425e-003 
7.680387e-003 
1.171076e-002 
1.613944e-002 
1.768613e-002 
1.783490e-002 
1.999605e-002 
2.407443e-002 
2.738572e-002 
2.921483e-002 
3.182447e-002 
3.508190e-002 
3.627123e-002 
3.803027e-002 
4.277633e-002 
4.563158e-002 
4.631599e-002 
4.587643e-002 
4.608171e-002 
4.975993e-002 
5.263956e-002 
5.354180e-002 
5.534995e-002 
5.500776e-002 
5.269716e-002 
5.358375e-002 
5.524516e-002 
5.549238e-002 
5.436090e-002 
5.077343e-002 
4.837513e-002 
4.621151e-002 
4.388903e-002 
4.183926e-002 
4.016228e-002 
3.628571e-002 
3.108348e-002 
2.760213e-002 
2.563614e-002 
2.317743e-002 
1.938035e-002 
1.651642e-002 
1.521378e-002 
1.850585e-002 
2.403970e-002 
3.236070e-002 
4.404997e-002 
5.662264e-002 
7.063039e-002 
8.754622e-002 
1.060004e-001 
1.266795e-001 
1.505574e-001 
1.760391e-001 
2.030321e-001 
2.308476e-001 
2.562133e-001 
2.765780e-001 
2.901229e-001 
2.968659e-001 
3.007571e-001 
3.035685e-001 
3.009448e-001 
2.904478e-001 
2.738691e-001 
2.483550e-001 
2.182986e-001 
1.859821e-001 
1.523071e-001 
1.199888e-001 
8.670498e-002 
4.913275e-002 
1.033053e-002 
-2.746312e-002 
-6.425702e-002 
-9.653409e-002 
-1.268085e-001 
-1.531360e-001 
-1.741918e-001 
-1.912833e-001 
-2.059374e-001 
-2.186830e-001 
-2.293227e-001 
-2.373034e-001 
-2.425974e-001 
-2.472204e-001 
-2.506530e-001 
-2.536634e-001 
-2.570122e-001 
-2.618461e-001 
-2.659101e-001 
-2.684625e-001 
-2.715008e-001 
-2.762941e-001 
-2.828174e-001 
-2.886318e-001 
-2.935871e-001 
-2.980471e-001 
-3.026465e-001 
-3.081548e-001 
-3.162359e-001 
-3.251764e-001 
-3.325534e-001 
-3.382056e-001 
-3.438284e-001 
-3.507995e-001 
-3.597814e-001 
-3.700007e-001 
-3.801981e-001 
-3.965057e-001 
-4.337540e-001 
-5.008535e-001 
-5.809282e-001 
