85
2.7344
356.5238
14.2250
1.259050e-002 
3.279116e-002 
5.120473e-002 
6.877788e-002 
8.528897e-002 
1.010995e-001 
1.161949e-001 
1.283232e-001 
1.473508e-001 
1.768509e-001 
1.495106e-001 
8.756840e-002 
3.509104e-002 
-1.512940e-002 
-6.342949e-002 
-1.115156e-001 
-1.618589e-001 
-2.061509e-001 
-2.861321e-001 
-4.177010e-001 
-5.007142e-001 
-5.523109e-001 
-6.088213e-001 
-6.652570e-001 
-7.215174e-001 
-7.764771e-001 
-8.270533e-001 
-8.792240e-001 
-9.022303e-001 
-8.831195e-001 
-8.664238e-001 
-8.528364e-001 
-8.405884e-001 
-8.284429e-001 
-8.166071e-001 
-8.039068e-001 
-7.912476e-001 
-7.790156e-001 
-7.651424e-001 
-7.502940e-001 
-7.356119e-001 
-7.208949e-001 
-7.067362e-001 
-6.928688e-001 
-6.777895e-001 
-6.630635e-001 
-6.484746e-001 
-6.326140e-001 
-6.170755e-001 
-6.020932e-001 
-5.870716e-001 
-5.722394e-001 
-5.570027e-001 
-5.409700e-001 
-5.253177e-001 
-5.093287e-001 
-4.931828e-001 
-4.777532e-001 
-4.617774e-001 
-4.460735e-001 
-4.309903e-001 
-4.148521e-001 
-3.977785e-001 
-3.808539e-001 
-3.639631e-001 
-3.466193e-001 
-3.284746e-001 
-3.102475e-001 
-2.927821e-001 
-2.749951e-001 
-2.560443e-001 
-2.367508e-001 
-2.176809e-001 
-1.982689e-001 
-1.393061e-001 
-5.176333e-002 
2.846446e-002 
1.040864e-001 
1.774841e-001 
2.492889e-001 
3.211537e-001 
3.872433e-001 
4.768519e-001 
6.060026e-001 
6.940272e-001 
7.456333e-001 
8.001964e-001 
8.553583e-001 
9.095364e-001 
9.631450e-001 
1.013333e+000 
1.065152e+000 
1.089293e+000 
1.070931e+000 
1.051577e+000 
1.036667e+000 
1.021838e+000 
1.007754e+000 
9.944114e-001 
9.798823e-001 
9.645383e-001 
9.491837e-001 
9.340695e-001 
9.184935e-001 
9.031522e-001 
8.874365e-001 
8.720138e-001 
8.557096e-001 
8.390434e-001 
8.229392e-001 
8.062285e-001 
7.897584e-001 
7.749572e-001 
7.601158e-001 
7.437254e-001 
7.266091e-001 
7.100002e-001 
6.945824e-001 
6.787340e-001 
6.626931e-001 
6.478119e-001 
6.332770e-001 
6.171632e-001 
6.000219e-001 
5.834449e-001 
5.675579e-001 
5.517565e-001 
5.360401e-001 
5.197505e-001 
5.031908e-001 
4.863625e-001 
4.683370e-001 
4.506222e-001 
4.334806e-001 
4.163165e-001 
3.993302e-001 
3.813843e-001 
3.618258e-001 
3.131459e-001 
2.307022e-001 
1.468520e-001 
7.096397e-002 
-1.969102e-003 
-7.338529e-002 
-1.444890e-001 
-2.124475e-001 
-2.972736e-001 
-4.189293e-001 
-5.210462e-001 
-5.805483e-001 
-6.327143e-001 
-6.894451e-001 
-7.466877e-001 
-8.021151e-001 
-8.550180e-001 
-9.080142e-001 
-9.412558e-001 
-9.340797e-001 
-9.132318e-001 
-8.986888e-001 
-8.870702e-001 
-8.752007e-001 
-8.622873e-001 
-8.485859e-001 
-8.349943e-001 
-8.219553e-001 
-8.077936e-001 
-7.931653e-001 
-7.788596e-001 
-7.634017e-001 
-7.478489e-001 
-7.315361e-001 
-7.164554e-001 
-7.024359e-001 
-6.868774e-001 
-6.710676e-001 
-6.558728e-001 
-6.395317e-001 
-6.227856e-001 
-6.068812e-001 
-5.910553e-001 
-5.763952e-001 
-5.605780e-001 
-5.447255e-001 
-5.301462e-001 
-5.145318e-001 
-4.978874e-001 
-4.825202e-001 
-4.677449e-001 
-4.522281e-001 
-4.365531e-001 
-4.201478e-001 
-4.040740e-001 
-3.871280e-001 
-3.691425e-001 
-3.523387e-001 
-3.367107e-001 
-3.200365e-001 
-3.024932e-001 
-2.846576e-001 
-2.656875e-001 
-2.466400e-001 
-1.865667e-001 
-9.823322e-002 
-1.898325e-002 
5.696792e-002 
1.312881e-001 
2.025963e-001 
2.741323e-001 
3.405605e-001 
4.303767e-001 
5.611857e-001 
6.486353e-001 
6.992683e-001 
7.542126e-001 
8.098600e-001 
8.648564e-001 
9.196004e-001 
9.700608e-001 
1.022015e+000 
1.046835e+000 
1.027485e+000 
1.007891e+000 
9.935740e-001 
9.803505e-001 
9.674711e-001 
9.536752e-001 
9.395108e-001 
9.259019e-001 
9.122813e-001 
8.987348e-001 
8.846902e-001 
8.698573e-001 
8.546185e-001 
8.395845e-001 
8.242029e-001 
8.096846e-001 
7.950880e-001 
7.801210e-001 
7.648996e-001 
7.491248e-001 
7.333431e-001 
7.181473e-001 
7.031560e-001 
6.874593e-001 
6.722699e-001 
6.563762e-001 
6.400610e-001 
6.245488e-001 
6.088774e-001 
5.927835e-001 
5.769478e-001 
5.606620e-001 
5.443067e-001 
5.282761e-001 
5.109808e-001 
4.944650e-001 
4.787248e-001 
4.617185e-001 
4.444106e-001 
4.272528e-001 
4.101300e-001 
3.925553e-001 
3.741810e-001 
3.550959e-001 
3.363618e-001 
2.802398e-001 
1.929698e-001 
1.107536e-001 
3.417339e-002 
-3.991499e-002 
-1.123948e-001 
-1.852267e-001 
-2.532162e-001 
-3.425291e-001 
-4.717646e-001 
-5.654511e-001 
-6.202878e-001 
-6.751986e-001 
-7.317205e-001 
-7.881379e-001 
-8.431654e-001 
-8.941421e-001 
-9.467878e-001 
-9.738225e-001 
-9.575755e-001 
-9.373564e-001 
-9.223663e-001 
-9.085652e-001 
-8.946385e-001 
-8.801933e-001 
-8.658614e-001 
-8.505629e-001 
-8.349318e-001 
-8.198351e-001 
-8.041622e-001 
-7.883953e-001 
-7.719271e-001 
-7.556412e-001 
-7.400297e-001 
-7.233023e-001 
-7.066586e-001 
-6.919214e-001 
-6.764506e-001 
-6.604785e-001 
-6.454524e-001 
-6.300159e-001 
-6.155227e-001 
-6.005233e-001 
-5.854210e-001 
-5.720032e-001 
-5.581739e-001 
-5.426763e-001 
-5.280351e-001 
-5.146751e-001 
-5.009593e-001 
-4.870188e-001 
-4.723677e-001 
-4.580110e-001 
-4.434604e-001 
-4.278806e-001 
-4.120845e-001 
-3.974815e-001 
-3.825142e-001 
-3.660113e-001 
-3.488243e-001 
-3.311351e-001 
-3.135180e-001 
-2.960012e-001 
-2.772968e-001 
-2.295729e-001 
-1.480791e-001 
-6.446627e-002 
1.257297e-002 
8.713005e-002 
1.589033e-001 
2.296829e-001 
2.977327e-001 
3.826637e-001 
5.037004e-001 
6.055727e-001 
6.650449e-001 
7.185035e-001 
7.748115e-001 
8.298959e-001 
8.845557e-001 
9.371451e-001 
9.892933e-001 
1.021534e+000 
1.013876e+000 
9.937150e-001 
9.788332e-001 
9.646613e-001 
9.514453e-001 
9.381858e-001 
9.247120e-001 
9.105598e-001 
8.959552e-001 
8.815506e-001 
8.668665e-001 
8.511255e-001 
8.353408e-001 
8.197635e-001 
8.041133e-001 
7.887557e-001 
7.722160e-001 
7.559733e-001 
7.402905e-001 
7.246003e-001 
7.090169e-001 
6.928819e-001 
6.770136e-001 
6.617892e-001 
6.454469e-001 
6.292148e-001 
6.141719e-001 
5.990898e-001 
5.841975e-001 
5.682716e-001 
5.517675e-001 
5.367542e-001 
5.211007e-001 
5.048385e-001 
4.893791e-001 
4.733167e-001 
4.569832e-001 
4.397787e-001 
4.221371e-001 
4.055469e-001 
3.891742e-001 
3.710012e-001 
3.521525e-001 
3.330816e-001 
3.135178e-001 
2.507844e-001 
1.624560e-001 
8.554099e-002 
1.152834e-002 
-6.142646e-002 
-1.338121e-001 
-2.051376e-001 
-2.692883e-001 
-3.601672e-001 
-4.911603e-001 
-5.723777e-001 
-6.206853e-001 
-6.760609e-001 
-7.323536e-001 
-7.868850e-001 
-8.384662e-001 
-8.866969e-001 
-9.386294e-001 
-9.608201e-001 
-9.394904e-001 
-9.213236e-001 
-9.081038e-001 
-8.956431e-001 
-8.821427e-001 
-8.693454e-001 
-8.568539e-001 
-8.441383e-001 
-8.310348e-001 
-8.174673e-001 
-8.038169e-001 
-7.911069e-001 
-7.775308e-001 
-7.640226e-001 
-7.508822e-001 
-7.371497e-001 
-7.234858e-001 
-7.099186e-001 
-6.963334e-001 
-6.839242e-001 
-6.715769e-001 
-6.575540e-001 
-6.439015e-001 
-6.307673e-001 
-6.169836e-001 
-6.029105e-001 
-5.888855e-001 
-5.759879e-001 
-5.632467e-001 
-5.483592e-001 
-5.336097e-001 
-5.200772e-001 
-5.054819e-001 
-4.899719e-001 
-4.751466e-001 
-4.606089e-001 
-4.459716e-001 
-4.297619e-001 
-4.129532e-001 
-3.969850e-001 
-3.800582e-001 
-3.620918e-001 
-3.447634e-001 
-3.270619e-001 
-3.065858e-001 
-2.714035e-001 
-2.013909e-001 
-1.185653e-001 
-4.207716e-002 
3.215607e-002 
1.039345e-001 
1.748794e-001 
2.459266e-001 
3.229385e-001 
4.266833e-001 
5.388520e-001 
6.111046e-001 
6.650566e-001 
7.211945e-001 
7.771441e-001 
8.329667e-001 
8.863388e-001 
9.359541e-001 
9.760321e-001 
9.851423e-001 
9.687031e-001 
9.538417e-001 
9.401686e-001 
9.281135e-001 
9.162233e-001 
9.026673e-001 
8.887127e-001 
8.757627e-001 
8.624116e-001 
8.477821e-001 
8.321811e-001 
8.170225e-001 
8.030762e-001 
7.880341e-001 
7.718083e-001 
7.566285e-001 
7.409302e-001 
7.248379e-001 
7.092757e-001 
6.934687e-001 
6.786480e-001 
6.634214e-001 
6.472630e-001 
6.309346e-001 
6.149670e-001 
5.987141e-001 
5.827569e-001 
5.658349e-001 
5.490611e-001 
5.329782e-001 
5.167675e-001 
5.007947e-001 
4.841216e-001 
4.679321e-001 
4.511292e-001 
4.334308e-001 
4.156984e-001 
3.986618e-001 
3.810586e-001 
3.632204e-001 
3.444045e-001 
3.250944e-001 
3.061649e-001 
2.866844e-001 
2.263722e-001 
1.381934e-001 
5.835349e-002 
-1.776960e-002 
-9.158060e-002 
-1.637966e-001 
-2.361560e-001 
-3.031094e-001 
-3.947989e-001 
-5.268140e-001 
-6.144131e-001 
-6.661469e-001 
-7.216659e-001 
-7.777579e-001 
-8.333333e-001 
-8.881180e-001 
-9.391550e-001 
-9.919258e-001 
-1.016785e+000 
-9.983744e-001 
-9.799071e-001 
-9.657298e-001 
-9.529235e-001 
-9.402225e-001 
-9.271759e-001 
-9.135713e-001 
-9.000123e-001 
-8.865846e-001 
-8.728091e-001 
-8.584729e-001 
-8.442085e-001 
-8.293860e-001 
-8.148519e-001 
-8.002397e-001 
-7.851996e-001 
-7.703267e-001 
-7.555058e-001 
-7.407366e-001 
-7.261333e-001 
-7.111020e-001 
-6.953657e-001 
-6.801367e-001 
-6.642036e-001 
-6.484787e-001 
-6.333395e-001 
-6.175606e-001 
-6.020750e-001 
-5.866019e-001 
-5.701982e-001 
-5.532105e-001 
-5.366506e-001 
-5.204155e-001 
-5.048970e-001 
-4.883541e-001 
-4.713281e-001 
-4.546367e-001 
-4.368335e-001 
-4.182317e-001 
-3.995781e-001 
-3.816026e-001 
-3.637865e-001 
-3.450211e-001 
-3.246533e-001 
-3.034700e-001 
-2.463557e-001 
-1.600366e-001 
-7.836755e-002 
-1.840450e-003 
7.164277e-002 
1.433751e-001 
2.159621e-001 
2.849147e-001 
3.744415e-001 
5.004150e-001 
5.922005e-001 
6.476850e-001 
7.021834e-001 
7.581325e-001 
8.138168e-001 
8.686530e-001 
9.196618e-001 
9.700025e-001 
9.961808e-001 
9.824059e-001 
9.635810e-001 
9.482327e-001 
9.351049e-001 
9.225341e-001 
9.096172e-001 
8.950619e-001 
8.805571e-001 
8.672679e-001 
8.530007e-001 
8.373101e-001 
8.221767e-001 
8.081126e-001 
7.935178e-001 
7.775013e-001 
7.616000e-001 
7.469214e-001 
7.318437e-001 
7.161828e-001 
7.009931e-001 
6.865438e-001 
6.712081e-001 
6.544260e-001 
6.382065e-001 
6.230901e-001 
6.073625e-001 
5.913269e-001 
5.754066e-001 
5.596010e-001 
5.441172e-001 
5.278096e-001 
5.114976e-001 
4.960460e-001 
4.802283e-001 
4.632307e-001 
4.465609e-001 
4.303672e-001 
4.140178e-001 
3.975778e-001 
3.800247e-001 
3.620936e-001 
3.444076e-001 
3.263152e-001 
3.074532e-001 
2.895989e-001 
2.309624e-001 
1.431000e-001 
6.258118e-002 
-1.400305e-002 
-8.742999e-002 
-1.586284e-001 
-2.304193e-001 
-2.964143e-001 
-3.867001e-001 
-5.181263e-001 
-6.067909e-001 
-6.596134e-001 
-7.144782e-001 
-7.695616e-001 
-8.248840e-001 
-8.793309e-001 
-9.297886e-001 
-9.831843e-001 
-1.008901e+000 
-9.905075e-001 
-9.713353e-001 
-9.562139e-001 
-9.427973e-001 
-9.308047e-001 
-9.181628e-001 
-9.049324e-001 
-8.921319e-001 
-8.776931e-001 
-8.629115e-001 
-8.487107e-001 
-8.344092e-001 
-8.200568e-001 
-8.055755e-001 
-7.905722e-001 
-7.757076e-001 
-7.598153e-001 
-7.433791e-001 
-7.283251e-001 
-7.131733e-001 
-6.978390e-001 
-6.818296e-001 
-6.653709e-001 
-6.491439e-001 
-6.325830e-001 
-6.153895e-001 
-5.994185e-001 
-5.840709e-001 
-5.679562e-001 
-5.517438e-001 
-5.350404e-001 
-5.183922e-001 
-5.018556e-001 
-4.853442e-001 
-4.686787e-001 
-4.523744e-001 
-4.358001e-001 
-4.186569e-001 
-4.016055e-001 
-3.846454e-001 
-3.671184e-001 
-3.493275e-001 
-3.312741e-001 
-3.126591e-001 
-2.935138e-001 
-2.400663e-001 
-1.550725e-001 
-7.278549e-002 
3.914296e-003 
7.844974e-002 
1.508309e-001 
2.229437e-001 
2.904330e-001 
3.781139e-001 
5.038100e-001 
5.993753e-001 
6.557886e-001 
7.102392e-001 
7.666754e-001 
8.229221e-001 
8.776654e-001 
9.290376e-001 
9.814690e-001 
1.009361e+000 
9.960836e-001 
9.767164e-001 
9.618810e-001 
9.478412e-001 
9.343638e-001 
9.201228e-001 
9.061735e-001 
8.916990e-001 
8.765592e-001 
8.628810e-001 
8.487054e-001 
8.329916e-001 
8.173199e-001 
8.024561e-001 
7.873013e-001 
7.726160e-001 
7.571603e-001 
7.417535e-001 
7.267239e-001 
7.111401e-001 
6.961777e-001 
6.815828e-001 
6.667107e-001 
6.512187e-001 
6.362044e-001 
6.204849e-001 
6.043715e-001 
5.883447e-001 
5.734838e-001 
5.586749e-001 
5.422944e-001 
5.257952e-001 
5.096779e-001 
4.937696e-001 
4.767389e-001 
4.592923e-001 
4.424467e-001 
4.259633e-001 
4.078309e-001 
3.897952e-001 
3.723060e-001 
3.538374e-001 
3.347229e-001 
3.151159e-001 
2.949327e-001 
2.399150e-001 
1.562478e-001 
7.696859e-002 
2.506443e-003 
-7.105841e-002 
-1.428781e-001 
-2.140288e-001 
-2.810663e-001 
-3.694969e-001 
-4.946026e-001 
-5.859920e-001 
-6.412417e-001 
-6.967533e-001 
-7.531548e-001 
-8.084118e-001 
-8.632602e-001 
-9.150255e-001 
-9.679497e-001 
-9.963618e-001 
-9.840159e-001 
-9.666974e-001 
-9.537917e-001 
-9.418279e-001 
-9.301221e-001 
-9.181293e-001 
-9.049789e-001 
-8.916711e-001 
-8.777417e-001 
-8.628799e-001 
-8.480337e-001 
-8.334536e-001 
-8.182948e-001 
-8.033036e-001 
-7.878865e-001 
-7.717662e-001 
-7.561553e-001 
-7.398421e-001 
-7.237390e-001 
-7.082235e-001 
-6.920702e-001 
-6.762120e-001 
-6.603682e-001 
-6.435957e-001 
-6.268705e-001 
-6.109868e-001 
-5.947315e-001 
-5.794296e-001 
-5.635749e-001 
-5.471415e-001 
-5.317200e-001 
-5.155319e-001 
-4.988601e-001 
-4.828647e-001 
-4.670493e-001 
-4.505327e-001 
-4.339264e-001 
-4.167514e-001 
-4.001185e-001 
-3.831598e-001 
-3.652475e-001 
-3.474659e-001 
-3.298145e-001 
-3.112129e-001 
-2.929248e-001 
-2.340572e-001 
-1.461158e-001 
-6.497484e-002 
1.267193e-002 
8.646314e-002 
1.582322e-001 
2.311494e-001 
2.976945e-001 
3.877346e-001 
5.196966e-001 
6.091301e-001 
6.623026e-001 
7.167139e-001 
7.718024e-001 
8.281297e-001 
8.829815e-001 
9.329545e-001 
9.857522e-001 
1.011124e+000 
9.919995e-001 
9.711993e-001 
9.550015e-001 
9.417079e-001 
9.287012e-001 
9.140282e-001 
8.988626e-001 
8.846518e-001 
8.697318e-001 
8.545647e-001 
8.397661e-001 
8.249271e-001 
8.098332e-001 
7.944856e-001 
7.778416e-001 
7.620021e-001 
7.468774e-001 
7.315057e-001 
7.169323e-001 
7.013872e-001 
6.854764e-001 
6.702096e-001 
6.538252e-001 
6.375512e-001 
6.224666e-001 
6.067137e-001 
5.907388e-001 
5.744287e-001 
5.579350e-001 
5.428746e-001 
5.272026e-001 
5.108937e-001 
4.954451e-001 
4.796304e-001 
4.626358e-001 
4.459690e-001 
4.297783e-001 
4.134318e-001 
3.969947e-001 
3.794446e-001 
3.615163e-001 
3.438332e-001 
3.263731e-001 
3.072965e-001 
2.883349e-001 
2.262284e-001 
1.369789e-001 
5.783054e-002 
-1.845562e-002 
-9.258030e-002 
-1.636650e-001 
-2.352132e-001 
-3.031760e-001 
-3.969979e-001 
-5.304057e-001 
-6.144693e-001 
-6.651659e-001 
-7.217456e-001 
-7.783422e-001 
-8.332745e-001 
-8.880553e-001 
-9.397537e-001 
-9.923607e-001 
-1.014241e+000 
-9.933316e-001 
-9.755601e-001 
-9.614458e-001 
-9.482520e-001 
-9.349509e-001 
-9.219084e-001 
-9.077641e-001 
-8.934041e-001 
-8.788142e-001 
-8.646400e-001 
-8.497850e-001 
-8.345032e-001 
-8.193614e-001 
-8.043589e-001 
-7.889304e-001 
-7.734567e-001 
-7.581888e-001 
-7.428464e-001 
-7.277952e-001 
-7.115603e-001 
-6.956209e-001 
-6.802399e-001 
-6.648498e-001 
-6.495652e-001 
-6.337275e-001 
-6.175256e-001 
-6.021835e-001 
-5.862028e-001 
-5.696151e-001 
-5.538318e-001 
-5.380766e-001 
-5.224637e-001 
-5.059129e-001 
-4.883144e-001 
-4.719754e-001 
-4.556959e-001 
-4.377663e-001 
-4.202327e-001 
-4.032147e-001 
-3.862593e-001 
-3.684012e-001 
-3.495019e-001 
-3.312108e-001 
-3.132892e-001 
-2.930963e-001 
-2.430123e-001 
-1.609727e-001 
-7.755970e-002 
-5.834700e-004 
7.394743e-002 
1.464383e-001 
2.183471e-001 
2.873426e-001 
3.732003e-001 
4.950173e-001 
5.965145e-001 
6.561930e-001 
7.091050e-001 
7.660198e-001 
8.226077e-001 
8.782910e-001 
9.308543e-001 
9.824680e-001 
1.014577e+000 
1.006452e+000 
9.852035e-001 
9.697471e-001 
9.569267e-001 
9.435539e-001 
9.301392e-001 
9.155387e-001 
9.009031e-001 
8.875406e-001 
8.737440e-001 
8.587575e-001 
8.435168e-001 
8.285382e-001 
8.132694e-001 
7.983846e-001 
7.838668e-001 
7.693074e-001 
7.544916e-001 
7.394207e-001 
7.236814e-001 
7.085278e-001 
6.936069e-001 
6.785239e-001 
6.642093e-001 
6.489218e-001 
6.320368e-001 
6.161435e-001 
6.005716e-001 
5.851486e-001 
5.697088e-001 
5.538167e-001 
5.387546e-001 
5.232242e-001 
5.060990e-001 
4.894379e-001 
4.735896e-001 
4.576697e-001 
4.414428e-001 
4.241667e-001 
4.075191e-001 
3.911467e-001 
3.736034e-001 
3.557389e-001 
3.373755e-001 
3.199889e-001 
2.610023e-001 
1.724698e-001 
9.224161e-002 
1.589571e-002 
-5.809579e-002 
-1.303933e-001 
-2.034146e-001 
-2.700633e-001 
-3.606281e-001 
-4.934125e-001 
-5.813259e-001 
-6.337438e-001 
-6.892551e-001 
-7.450021e-001 
-8.008684e-001 
-8.554476e-001 
-9.055710e-001 
-9.586327e-001 
-9.832524e-001 
-9.640591e-001 
-9.450502e-001 
-9.293982e-001 
-9.157764e-001 
-9.022862e-001 
-8.883625e-001 
-8.743860e-001 
-8.606079e-001 
-8.467478e-001 
-8.331714e-001 
-8.190335e-001 
-8.049663e-001 
-7.903400e-001 
-7.753717e-001 
-7.605418e-001 
-7.463932e-001 
-7.321070e-001 
-7.180492e-001 
-7.039108e-001 
-6.893996e-001 
-6.746318e-001 
-6.586790e-001 
-6.435639e-001 
-6.292956e-001 
-6.146626e-001 
-5.994369e-001 
-5.846876e-001 
-5.685739e-001 
-5.523685e-001 
-5.362503e-001 
-5.203686e-001 
-5.060457e-001 
-4.904131e-001 
-4.740651e-001 
-4.576689e-001 
-4.405611e-001 
-4.227871e-001 
-4.063668e-001 
-3.897060e-001 
-3.732205e-001 
-3.559874e-001 
-3.376166e-001 
-3.196156e-001 
-3.004518e-001 
-2.821479e-001 
-2.237717e-001 
-1.364475e-001 
-5.639939e-002 
1.953059e-002 
9.356540e-002 
1.651258e-001 
2.368842e-001 
3.024542e-001 
3.914449e-001 
5.230556e-001 
6.115671e-001 
6.631718e-001 
7.181108e-001 
7.738467e-001 
8.284735e-001 
8.819561e-001 
9.315542e-001 
9.841797e-001 
1.009738e+000 
9.903715e-001 
9.705320e-001 
9.554619e-001 
9.410742e-001 
9.269789e-001 
9.134387e-001 
8.998581e-001 
8.864373e-001 
8.726685e-001 
8.576814e-001 
8.430694e-001 
8.279010e-001 
8.127226e-001 
7.987565e-001 
7.841450e-001 
7.691915e-001 
7.544621e-001 
7.386476e-001 
7.230041e-001 
7.087038e-001 
6.939381e-001 
6.794889e-001 
6.641534e-001 
6.484227e-001 
6.333351e-001 
6.171574e-001 
6.003738e-001 
5.854751e-001 
5.706001e-001 
5.547834e-001 
5.386591e-001 
5.223504e-001 
5.068161e-001 
4.909729e-001 
4.744936e-001 
4.585753e-001 
4.429510e-001 
4.261459e-001 
4.090098e-001 
3.913935e-001 
3.740572e-001 
3.572924e-001 
3.399021e-001 
3.215604e-001 
3.030224e-001 
2.533330e-001 
1.697761e-001 
8.623269e-002 
9.369105e-003 
-6.426338e-002 
-1.366762e-001 
-2.095722e-001 
-2.780343e-001 
-3.636606e-001 
-4.873202e-001 
-5.877830e-001 
-6.460740e-001 
-6.991063e-001 
-7.557896e-001 
-8.120894e-001 
-8.664414e-001 
-9.180159e-001 
-9.704976e-001 
-1.001612e+000 
-9.918040e-001 
-9.707620e-001 
-9.549754e-001 
-9.412480e-001 
-9.275669e-001 
-9.139319e-001 
-9.004570e-001 
-8.865485e-001 
-8.719293e-001 
-8.571825e-001 
-8.419436e-001 
-8.267585e-001 
-8.116555e-001 
-7.966340e-001 
-7.816653e-001 
-7.668350e-001 
-7.510343e-001 
-7.348976e-001 
-7.193202e-001 
-7.037347e-001 
-6.876262e-001 
-6.718126e-001 
-6.558989e-001 
-6.402790e-001 
-6.247657e-001 
-6.084003e-001 
-5.929605e-001 
-5.775329e-001 
-5.611745e-001 
-5.454909e-001 
-5.304291e-001 
-5.145130e-001 
-4.996346e-001 
-4.841728e-001 
-4.675009e-001 
-4.514555e-001 
-4.346242e-001 
-4.177688e-001 
-4.018110e-001 
-3.847803e-001 
-3.672465e-001 
-3.507997e-001 
-3.324386e-001 
-3.131309e-001 
-2.936602e-001 
-2.517688e-001 
-1.740779e-001 
-8.904127e-002 
-1.163007e-002 
6.259516e-002 
1.343024e-001 
2.066271e-001 
2.765296e-001 
3.569597e-001 
4.711600e-001 
5.805277e-001 
6.453141e-001 
6.969360e-001 
7.520744e-001 
8.060738e-001 
8.599745e-001 
9.120050e-001 
9.625726e-001 
9.978530e-001 
9.959424e-001 
9.735026e-001 
9.557241e-001 
9.399574e-001 
9.252693e-001 
9.123697e-001 
8.989337e-001 
8.833487e-001 
8.679850e-001 
8.533566e-001 
8.374790e-001 
8.218884e-001 
8.065541e-001 
7.925046e-001 
7.787032e-001 
7.627323e-001 
7.469049e-001 
7.323282e-001 
7.172375e-001 
7.021283e-001 
6.872232e-001 
6.722133e-001 
6.575787e-001 
6.412799e-001 
6.250625e-001 
6.100342e-001 
5.943658e-001 
5.783891e-001 
5.625558e-001 
5.467509e-001 
5.311170e-001 
5.150887e-001 
4.989039e-001 
4.834930e-001 
4.671146e-001 
4.497737e-001 
4.325829e-001 
4.154558e-001 
3.977910e-001 
3.804350e-001 
3.636220e-001 
3.462413e-001 
3.275164e-001 
3.079041e-001 
2.902910e-001 
2.300209e-001 
1.409701e-001 
6.146997e-002 
-1.381424e-002 
-8.721370e-002 
-1.597935e-001 
-2.327658e-001 
-2.976709e-001 
-3.879942e-001 
-5.221974e-001 
-6.074964e-001 
-6.568130e-001 
-7.119905e-001 
-7.674412e-001 
-8.223550e-001 
-8.752854e-001 
-9.247416e-001 
-9.781400e-001 
-1.001637e+000 
-9.794255e-001 
-9.603809e-001 
-9.453229e-001 
-9.309981e-001 
-9.169593e-001 
-9.021820e-001 
-8.879073e-001 
-8.729521e-001 
-8.581144e-001 
-8.437070e-001 
-8.290850e-001 
-8.139703e-001 
-7.989948e-001 
-7.835931e-001 
-7.681461e-001 
-7.535342e-001 
-7.386301e-001 
-7.235364e-001 
-7.079746e-001 
-6.924621e-001 
-6.770272e-001 
-6.616980e-001 
-6.463594e-001 
-6.309468e-001 
-6.160399e-001 
-6.004274e-001 
-5.850214e-001 
-5.701994e-001 
-5.547362e-001 
-5.395647e-001 
-5.250336e-001 
-5.093528e-001 
-4.932352e-001 
-4.774126e-001 
-4.614040e-001 
-4.461969e-001 
-4.299638e-001 
-4.131601e-001 
-3.971969e-001 
-3.808762e-001 
-3.640137e-001 
-3.472416e-001 
-3.299016e-001 
-3.122968e-001 
-2.931696e-001 
-2.411849e-001 
-1.581399e-001 
-7.599843e-002 
-2.731028e-004 
7.281355e-002 
1.447036e-001 
2.160709e-001 
2.837689e-001 
3.710005e-001 
4.943841e-001 
5.919545e-001 
6.496562e-001 
7.026021e-001 
7.588143e-001 
8.147245e-001 
8.688327e-001 
9.209739e-001 
9.729832e-001 
1.002077e+000 
9.908736e-001 
9.700445e-001 
9.542615e-001 
9.403294e-001 
9.267875e-001 
9.130751e-001 
8.993591e-001 
8.843305e-001 
8.688760e-001 
8.535623e-001 
8.383888e-001 
8.227902e-001 
8.071471e-001 
7.917108e-001 
7.762008e-001 
7.609828e-001 
7.445819e-001 
7.284775e-001 
7.129321e-001 
6.973787e-001 
6.819314e-001 
6.659319e-001 
6.495689e-001 
6.340666e-001 
6.179265e-001 
6.018096e-001 
5.869098e-001 
5.713407e-001 
5.555203e-001 
5.394499e-001 
5.227160e-001 
5.065729e-001 
4.906673e-001 
4.746046e-001 
4.593152e-001 
4.430577e-001 
4.258370e-001 
4.093954e-001 
3.934288e-001 
3.768550e-001 
3.599775e-001 
3.432195e-001 
3.265804e-001 
3.083791e-001 
2.893811e-001 
2.305003e-001 
1.436313e-001 
6.410704e-002 
-1.211095e-002 
-8.561089e-002 
-1.567548e-001 
-2.282995e-001 
-2.948873e-001 
-3.856060e-001 
-5.176137e-001 
-6.060416e-001 
-6.581276e-001 
-7.142749e-001 
-7.708764e-001 
-8.260427e-001 
-8.799113e-001 
-9.311875e-001 
-9.848532e-001 
-1.010367e+000 
-9.909561e-001 
-9.715226e-001 
-9.570709e-001 
-9.426975e-001 
-9.285306e-001 
-9.153977e-001 
-9.024367e-001 
-8.883736e-001 
-8.741801e-001 
-8.592489e-001 
-8.439773e-001 
-8.290249e-001 
-8.136961e-001 
-7.992019e-001 
-7.847436e-001 
-7.699791e-001 
-7.550091e-001 
-7.398497e-001 
-7.241367e-001 
-7.089809e-001 
-6.940293e-001 
-6.790301e-001 
-6.642343e-001 
-6.493617e-001 
-6.347779e-001 
-6.190081e-001 
-6.035315e-001 
-5.886109e-001 
-5.730496e-001 
-5.578088e-001 
-5.431229e-001 
-5.283962e-001 
-5.138573e-001 
-4.982831e-001 
-4.821290e-001 
-4.668345e-001 
-4.504860e-001 
-4.335960e-001 
-4.181189e-001 
-4.024601e-001 
-3.864706e-001 
-3.696086e-001 
-3.517356e-001 
-3.334497e-001 
-3.156900e-001 
-2.566613e-001 
-1.689807e-001 
-8.933581e-002 
-1.302679e-002 
6.095645e-002 
1.332458e-001 
2.056010e-001 
2.718872e-001 
3.620915e-001 
4.948462e-001 
5.838030e-001 
6.359366e-001 
6.915878e-001 
7.478816e-001 
8.038498e-001 
8.582444e-001 
9.088785e-001 
9.620548e-001 
9.873029e-001 
9.676906e-001 
9.480280e-001 
9.329906e-001 
9.191425e-001 
9.051406e-001 
8.907064e-001 
8.759069e-001 
8.611876e-001 
8.469629e-001 
8.327235e-001 
8.180118e-001 
8.031668e-001 
7.876097e-001 
7.716518e-001 
7.564316e-001 
7.414658e-001 
7.273327e-001 
7.132338e-001 
6.981974e-001 
6.831712e-001 
6.684346e-001 
6.530563e-001 
6.382620e-001 
6.236700e-001 
6.090003e-001 
5.946182e-001 
5.796786e-001 
5.648138e-001 
5.500232e-001 
5.353066e-001 
5.206636e-001 
5.054644e-001 
4.899261e-001 
4.751584e-001 
4.602279e-001 
4.448996e-001 
4.297398e-001 
4.139756e-001 
3.985682e-001 
3.827003e-001 
3.656956e-001 
3.493464e-001 
3.332710e-001 
3.159948e-001 
2.978524e-001 
2.682480e-001 
1.976370e-001 
1.112793e-001 
3.425516e-002 
-4.004798e-002 
-1.117707e-001 
-1.826208e-001 
-2.533185e-001 
-3.267837e-001 
-4.311540e-001 
-5.534001e-001 
-6.268129e-001 
-6.773301e-001 
-7.336083e-001 
-7.905396e-001 
-8.465711e-001 
-9.003046e-001 
-9.514643e-001 
-9.959209e-001 
-1.005763e+000 
-9.828150e-001 
-9.646236e-001 
-9.506112e-001 
-9.369306e-001 
-9.218426e-001 
-9.063337e-001 
-8.910721e-001 
-8.751126e-001 
-8.583453e-001 
-8.417254e-001 
-8.256387e-001 
-8.085245e-001 
-7.911316e-001 
-7.742122e-001 
-7.571347e-001 
-7.406220e-001 
-7.233481e-001 
-7.066757e-001 
-6.913090e-001 
-6.754547e-001 
-6.600947e-001 
-6.459418e-001 
-6.306597e-001 
-6.155623e-001 
-6.011637e-001 
-5.865307e-001 
-5.726512e-001 
-5.581480e-001 
-5.443184e-001 
-5.317518e-001 
-5.180541e-001 
-5.038239e-001 
-4.903579e-001 
-4.769084e-001 
-4.636181e-001 
-4.492924e-001 
-4.350159e-001 
-4.219823e-001 
-4.078836e-001 
-3.922099e-001 
-3.762630e-001 
-3.604086e-001 
-3.440737e-001 
-3.244212e-001 
-2.614976e-001 
-1.749146e-001 
-9.733079e-002 
-2.198499e-002 
5.114858e-002 
1.226630e-001 
1.944399e-001 
2.622866e-001 
3.578309e-001 
4.897768e-001 
5.729645e-001 
6.246475e-001 
6.813500e-001 
7.384899e-001 
7.953711e-001 
8.502968e-001 
9.012030e-001 
9.532585e-001 
9.746770e-001 
9.537505e-001 
9.357268e-001 
9.218117e-001 
9.092661e-001 
8.963744e-001 
8.829237e-001 
8.695180e-001 
8.562428e-001 
8.426190e-001 
8.284338e-001 
8.143196e-001 
7.996465e-001 
7.852611e-001 
7.714263e-001 
7.575747e-001 
7.431914e-001 
7.290944e-001 
7.148887e-001 
7.009683e-001 
6.865165e-001 
6.714217e-001 
6.577247e-001 
6.439454e-001 
6.292555e-001 
6.146025e-001 
6.001228e-001 
5.849352e-001 
5.702808e-001 
5.548335e-001 
5.400705e-001 
5.261027e-001 
5.108600e-001 
4.959079e-001 
4.809656e-001 
4.650901e-001 
4.492574e-001 
4.342618e-001 
4.188900e-001 
4.038380e-001 
3.878167e-001 
3.712812e-001 
3.551063e-001 
3.377595e-001 
3.200046e-001 
3.022572e-001 
2.654704e-001 
1.913718e-001 
1.073371e-001 
3.093730e-002 
-4.218097e-002 
-1.132379e-001 
-1.840155e-001 
-2.528444e-001 
-3.301920e-001 
-4.405326e-001 
-5.519890e-001 
-6.192551e-001 
-6.707368e-001 
-7.267311e-001 
-7.831363e-001 
-8.383029e-001 
-8.903791e-001 
-9.408143e-001 
-9.800954e-001 
-9.830379e-001 
-9.627314e-001 
-9.471257e-001 
-9.353873e-001 
-9.232052e-001 
-9.097814e-001 
-8.962799e-001 
-8.838458e-001 
-8.714800e-001 
-8.581599e-001 
-8.444629e-001 
-8.301116e-001 
-8.157822e-001 
-8.005582e-001 
-7.860824e-001 
-7.720352e-001 
-7.577716e-001 
-7.430135e-001 
-7.283927e-001 
-7.127146e-001 
-6.972069e-001 
-6.823838e-001 
-6.667687e-001 
-6.510594e-001 
-6.348628e-001 
-6.193258e-001 
-6.043735e-001 
-5.883305e-001 
-5.717382e-001 
-5.566088e-001 
-5.408972e-001 
-5.241845e-001 
-5.075839e-001 
-4.920599e-001 
-4.770922e-001 
-4.607046e-001 
-4.433545e-001 
-4.266049e-001 
-4.107604e-001 
-3.935565e-001 
-3.754651e-001 
-3.586993e-001 
-3.426595e-001 
-3.243392e-001 
-3.053371e-001 
-2.465746e-001 
-1.594521e-001 
-7.943366e-002 
-2.116887e-003 
7.208971e-002 
1.426779e-001 
2.144850e-001 
2.823134e-001 
3.736385e-001 
5.054566e-001 
5.951629e-001 
6.481213e-001 
7.036358e-001 
7.594578e-001 
8.144770e-001 
8.699793e-001 
9.221860e-001 
9.759266e-001 
1.001750e+000 
9.832604e-001 
9.635139e-001 
9.484788e-001 
9.346980e-001 
9.214708e-001 
9.085018e-001 
8.944023e-001 
8.801725e-001 
8.652337e-001 
8.498686e-001 
8.353018e-001 
8.205711e-001 
8.054131e-001 
7.905087e-001 
7.751495e-001 
7.597162e-001 
7.446029e-001 
7.282204e-001 
7.126129e-001 
6.977763e-001 
6.822986e-001 
6.669267e-001 
6.516316e-001 
6.357552e-001 
6.202585e-001 
6.042097e-001 
5.875259e-001 
5.722764e-001 
5.568664e-001 
5.416619e-001 
5.264969e-001 
5.103998e-001 
4.943182e-001 
4.791609e-001 
4.631496e-001 
4.472468e-001 
4.316379e-001 
4.152984e-001 
3.988398e-001 
3.819261e-001 
3.649888e-001 
3.486208e-001 
3.319257e-001 
3.136178e-001 
2.944840e-001 
2.387796e-001 
1.521894e-001 
7.011357e-002 
-6.298545e-003 
-8.039892e-002 
-1.531198e-001 
-2.260137e-001 
-2.942367e-001 
-3.842045e-001 
-5.123757e-001 
-6.060262e-001 
-6.611198e-001 
-7.154565e-001 
-7.724290e-001 
-8.287287e-001 
-8.830239e-001 
-9.343719e-001 
-9.869510e-001 
-1.013554e+000 
-9.984370e-001 
-9.779913e-001 
-9.621685e-001 
-9.484052e-001 
-9.346883e-001 
-9.210177e-001 
-9.068779e-001 
-8.925223e-001 
-8.779368e-001 
-8.637670e-001 
-8.489163e-001 
-8.336389e-001 
-8.185014e-001 
-8.041326e-001 
-7.891203e-001 
-7.735821e-001 
-7.583360e-001 
-7.429868e-001 
-7.279287e-001 
-7.123449e-001 
-6.967532e-001 
-6.817180e-001 
-6.669723e-001 
-6.510416e-001 
-6.347754e-001 
-6.186541e-001 
-6.032205e-001 
-5.876557e-001 
-5.723257e-001 
-5.569216e-001 
-5.411509e-001 
-5.257594e-001 
-5.096010e-001 
-4.929589e-001 
-4.776224e-001 
-4.628777e-001 
-4.473629e-001 
-4.317758e-001 
-4.149793e-001 
-3.983019e-001 
-3.820142e-001 
-3.644693e-001 
-3.469959e-001 
-3.297430e-001 
-3.110722e-001 
-2.626297e-001 
-1.804920e-001 
-9.650888e-002 
-1.929317e-002 
5.516160e-002 
1.276133e-001 
1.994181e-001 
2.681094e-001 
3.530127e-001 
4.749942e-001 
5.778341e-001 
6.384259e-001 
6.919825e-001 
7.477936e-001 
8.032626e-001 
8.581827e-001 
9.104091e-001 
9.624888e-001 
9.954762e-001 
9.873610e-001 
9.659363e-001 
9.497974e-001 
9.351825e-001 
9.220976e-001 
9.089969e-001 
8.950234e-001 
8.806458e-001 
8.665322e-001 
8.516230e-001 
8.364017e-001 
8.208414e-001 
8.051797e-001 
7.904401e-001 
7.749588e-001 
7.596199e-001 
7.447077e-001 
7.295775e-001 
7.139794e-001 
6.984593e-001 
6.835603e-001 
6.690285e-001 
6.542192e-001 
6.394190e-001 
6.248788e-001 
6.091524e-001 
5.937474e-001 
5.788122e-001 
5.637150e-001 
5.491504e-001 
5.338783e-001 
5.181533e-001 
5.026847e-001 
4.867925e-001 
4.707431e-001 
4.554953e-001 
4.391934e-001 
4.224071e-001 
4.059827e-001 
3.889886e-001 
3.714561e-001 
3.542317e-001 
3.369203e-001 
3.186286e-001 
2.996902e-001 
2.695581e-001 
1.997456e-001 
1.136539e-001 
3.668887e-002 
-3.775492e-002 
-1.099164e-001 
-1.818100e-001 
-2.524732e-001 
-3.244019e-001 
-4.271650e-001 
-5.483405e-001 
-6.213249e-001 
-6.712583e-001 
-7.275568e-001 
-7.845372e-001 
-8.396812e-001 
-8.915746e-001 
-9.415827e-001 
-9.866958e-001 
-9.970049e-001 
-9.746728e-001 
-9.575667e-001 
-9.446280e-001 
-9.315594e-001 
-9.162589e-001 
-9.012905e-001 
-8.869167e-001 
-8.721200e-001 
-8.568022e-001 
-8.415388e-001 
-8.263867e-001 
-8.109813e-001 
-7.939154e-001 
-7.769349e-001 
-7.611473e-001 
-7.453527e-001 
-7.296655e-001 
-7.134274e-001 
-6.974563e-001 
-6.821297e-001 
-6.663151e-001 
-6.503937e-001 
-6.358108e-001 
-6.210580e-001 
-6.059862e-001 
-5.899676e-001 
-5.740007e-001 
-5.592217e-001 
-5.444591e-001 
-5.297129e-001 
-5.148895e-001 
-4.999112e-001 
-4.838983e-001 
-4.676789e-001 
-4.511815e-001 
-4.355306e-001 
-4.198132e-001 
-4.037370e-001 
-3.867602e-001 
-3.688874e-001 
-3.506665e-001 
-3.323919e-001 
-3.137139e-001 
-2.945695e-001 
-2.367519e-001 
-1.491247e-001 
-6.738192e-002 
1.015649e-002 
8.461204e-002 
1.562268e-001 
2.284975e-001 
2.961213e-001 
3.865061e-001 
5.170010e-001 
6.073202e-001 
6.608945e-001 
7.157055e-001 
7.710419e-001 
8.261141e-001 
8.811619e-001 
9.323379e-001 
9.849893e-001 
1.010115e+000 
9.922771e-001 
9.724855e-001 
9.567127e-001 
9.429130e-001 
9.296387e-001 
9.166227e-001 
9.025049e-001 
8.875417e-001 
8.731955e-001 
8.595281e-001 
8.446127e-001 
8.300146e-001 
8.153104e-001 
8.008655e-001 
7.859778e-001 
7.699706e-001 
7.551515e-001 
7.408850e-001 
7.250810e-001 
7.095338e-001 
6.946430e-001 
6.795899e-001 
6.648833e-001 
6.495350e-001 
6.340841e-001 
6.192251e-001 
6.031815e-001 
5.871323e-001 
5.722998e-001 
5.568261e-001 
5.410148e-001 
5.254319e-001 
5.093975e-001 
4.933210e-001 
4.781111e-001 
4.625263e-001 
4.472337e-001 
4.310590e-001 
4.138922e-001 
3.968748e-001 
3.805780e-001 
3.640685e-001 
3.470183e-001 
3.292867e-001 
3.100685e-001 
2.687569e-001 
1.909562e-001 
1.061170e-001 
3.010233e-002 
-4.301995e-002 
-1.150395e-001 
-1.872461e-001 
-2.571819e-001 
-3.377311e-001 
-4.526509e-001 
-5.625201e-001 
-6.273554e-001 
-6.796553e-001 
-7.363336e-001 
-7.920160e-001 
-8.470126e-001 
-9.000416e-001 
-9.520752e-001 
-9.890510e-001 
-9.875049e-001 
-9.660571e-001 
-9.503739e-001 
-9.359765e-001 
-9.222643e-001 
-9.097699e-001 
-8.962711e-001 
-8.814087e-001 
-8.666842e-001 
-8.523976e-001 
-8.382108e-001 
-8.236448e-001 
-8.082794e-001 
-7.938920e-001 
-7.790331e-001 
-7.630545e-001 
-7.482923e-001 
-7.339967e-001 
-7.192715e-001 
-7.047978e-001 
-6.892377e-001 
-6.731896e-001 
-6.581574e-001 
-6.422483e-001 
-6.264249e-001 
-6.109870e-001 
-5.949460e-001 
-5.790488e-001 
-5.628444e-001 
-5.460057e-001 
-5.297299e-001 
-5.137498e-001 
-4.972201e-001 
-4.807731e-001 
-4.644083e-001 
-4.481254e-001 
-4.312945e-001 
-4.147620e-001 
-3.981614e-001 
-3.811429e-001 
-3.643014e-001 
-3.475218e-001 
-3.301743e-001 
-3.119611e-001 
-2.929864e-001 
-2.387491e-001 
-1.541845e-001 
-7.240896e-002 
4.039570e-003 
7.751773e-002 
1.492045e-001 
2.211619e-001 
2.887250e-001 
3.767422e-001 
5.034809e-001 
5.976443e-001 
6.531564e-001 
7.077533e-001 
7.642207e-001 
8.200484e-001 
8.742748e-001 
9.257700e-001 
9.785456e-001 
1.006817e+000 
9.921017e-001 
9.722698e-001 
9.575364e-001 
9.441417e-001 
9.310343e-001 
9.178194e-001 
9.048625e-001 
8.914329e-001 
8.775696e-001 
8.629953e-001 
8.489226e-001 
8.341401e-001 
8.195599e-001 
8.049302e-001 
7.905022e-001 
7.759954e-001 
7.611462e-001 
7.459561e-001 
7.306912e-001 
7.156310e-001 
6.998944e-001 
6.845792e-001 
6.690390e-001 
6.539194e-001 
6.381235e-001 
6.219056e-001 
6.064619e-001 
5.909445e-001 
5.751545e-001 
5.598221e-001 
5.446028e-001 
5.287018e-001 
5.133313e-001 
4.971654e-001 
4.810804e-001 
4.653186e-001 
4.487694e-001 
4.331245e-001 
4.168695e-001 
3.999082e-001 
3.834515e-001 
3.671833e-001 
3.491141e-001 
3.303972e-001 
3.113715e-001 
2.614895e-001 
1.786782e-001 
9.466760e-002 
1.789032e-002 
-5.626476e-002 
-1.295762e-001 
-2.030735e-001 
-2.715620e-001 
-3.573005e-001 
-4.805072e-001 
-5.808120e-001 
-6.403332e-001 
-6.948538e-001 
-7.525393e-001 
-8.088141e-001 
-8.631987e-001 
-9.147773e-001 
-9.672915e-001 
-9.990098e-001 
-9.899817e-001 
-9.705592e-001 
-9.558404e-001 
-9.420391e-001 
-9.283703e-001 
-9.147475e-001 
-9.011989e-001 
-8.877241e-001 
-8.742944e-001 
-8.603659e-001 
-8.456769e-001 
-8.304955e-001 
-8.153677e-001 
-8.003216e-001 
-7.859862e-001 
-7.714858e-001 
-7.566428e-001 
-7.415449e-001 
-7.258646e-001 
-7.102627e-001 
-6.947673e-001 
-6.792634e-001 
-6.643157e-001 
-6.496570e-001 
-6.338128e-001 
-6.182622e-001 
-6.026386e-001 
-5.872215e-001 
-5.717591e-001 
-5.565025e-001 
-5.418008e-001 
-5.265431e-001 
-5.104681e-001 
-4.944085e-001 
-4.785293e-001 
-4.626071e-001 
-4.469214e-001 
-4.304480e-001 
-4.149643e-001 
-3.983627e-001 
-3.802986e-001 
-3.624804e-001 
-3.447066e-001 
-3.263760e-001 
-3.071906e-001 
-2.532373e-001 
-1.689118e-001 
-8.723231e-002 
-9.757145e-003 
6.483448e-002 
1.366131e-001 
2.081325e-001 
2.756735e-001 
3.641623e-001 
4.901898e-001 
5.851836e-001 
6.422871e-001 
6.966382e-001 
7.529193e-001 
8.081254e-001 
8.620206e-001 
9.139720e-001 
9.674597e-001 
9.963392e-001 
9.840016e-001 
9.647699e-001 
9.498760e-001 
9.373160e-001 
9.244597e-001 
9.117739e-001 
8.993070e-001 
8.858356e-001 
8.713647e-001 
8.571217e-001 
8.424266e-001 
8.276603e-001 
8.131882e-001 
7.981367e-001 
7.832241e-001 
7.686003e-001 
7.532059e-001 
7.374098e-001 
7.224081e-001 
7.072385e-001 
6.922957e-001 
6.773274e-001 
6.618412e-001 
6.469968e-001 
6.324410e-001 
6.166133e-001 
6.015861e-001 
5.872411e-001 
5.721017e-001 
5.574951e-001 
5.421814e-001 
5.264148e-001 
5.115343e-001 
4.960130e-001 
4.798539e-001 
4.645829e-001 
4.482295e-001 
4.320214e-001 
4.159862e-001 
3.988150e-001 
3.823003e-001 
3.660601e-001 
3.486199e-001 
3.309438e-001 
3.122893e-001 
2.610391e-001 
1.784607e-001 
9.624000e-002 
2.040738e-002 
-5.278603e-002 
-1.247539e-001 
-1.962845e-001 
-2.636663e-001 
-3.497396e-001 
-4.728145e-001 
-5.699268e-001 
-6.273012e-001 
-6.804285e-001 
-7.367353e-001 
-7.927396e-001 
-8.470274e-001 
-8.982108e-001 
-9.499824e-001 
-9.798842e-001 
-9.691209e-001 
-9.494100e-001 
-9.341040e-001 
-9.208264e-001 
-9.078931e-001 
-8.937433e-001 
-8.798846e-001 
-8.665800e-001 
-8.532336e-001 
-8.400459e-001 
-8.258797e-001 
-8.107114e-001 
-7.957684e-001 
-7.810285e-001 
-7.659398e-001 
-7.517128e-001 
-7.374061e-001 
-7.227274e-001 
-7.077930e-001 
-6.923038e-001 
-6.768062e-001 
-6.618930e-001 
-6.471830e-001 
-6.323956e-001 
-6.178966e-001 
-6.022112e-001 
-5.868186e-001 
-5.719816e-001 
-5.565034e-001 
-5.413454e-001 
-5.267419e-001 
-5.114675e-001 
-4.965983e-001 
-4.811739e-001 
-4.650830e-001 
-4.498798e-001 
-4.342516e-001 
-4.184649e-001 
-4.034785e-001 
-3.874367e-001 
-3.709092e-001 
-3.547422e-001 
-3.367455e-001 
-3.180146e-001 
-2.995107e-001 
-2.495608e-001 
-1.665948e-001 
-8.355197e-002 
-6.871471e-003 
6.661535e-002 
1.388183e-001 
2.113048e-001 
2.787076e-001 
3.637648e-001 
4.869925e-001 
5.862514e-001 
6.443804e-001 
6.969498e-001 
7.528225e-001 
8.082156e-001 
8.615735e-001 
9.121528e-001 
9.637526e-001 
9.934184e-001 
9.818270e-001 
9.600047e-001 
9.430766e-001 
9.289713e-001 
9.154212e-001 
9.018306e-001 
8.884000e-001 
8.746214e-001 
8.596245e-001 
8.450028e-001 
8.304541e-001 
8.156780e-001 
8.016337e-001 
7.870301e-001 
7.720560e-001 
7.573063e-001 
7.421293e-001 
7.268200e-001 
7.128521e-001 
6.987174e-001 
6.842382e-001 
6.695023e-001 
6.541823e-001 
6.389388e-001 
6.231705e-001 
6.076096e-001 
5.924542e-001 
5.777175e-001 
5.623026e-001 
5.470933e-001 
5.324386e-001 
5.172278e-001 
5.011994e-001 
4.851861e-001 
4.693530e-001 
4.534767e-001 
4.378366e-001 
4.214087e-001 
4.053407e-001 
3.883722e-001 
3.704216e-001 
3.532599e-001 
3.359533e-001 
3.182385e-001 
3.007677e-001 
2.778830e-001 
2.115725e-001 
1.233428e-001 
4.493032e-002 
-2.997314e-002 
-1.022283e-001 
-1.742249e-001 
-2.449423e-001 
-3.126471e-001 
-4.106155e-001 
-5.394943e-001 
-6.176708e-001 
-6.676552e-001 
-7.241194e-001 
-7.808580e-001 
-8.361327e-001 
-8.886823e-001 
-9.397210e-001 
-9.906741e-001 
-1.008245e+000 
-9.868373e-001 
-9.707311e-001 
-9.576732e-001 
-9.445084e-001 
-9.307860e-001 
-9.181321e-001 
-9.060261e-001 
-8.924637e-001 
-8.773587e-001 
-8.626422e-001 
-8.480405e-001 
-8.322016e-001 
-8.166049e-001 
-8.020210e-001 
-7.876737e-001 
-7.718384e-001 
-7.545593e-001 
-7.378167e-001 
-7.222659e-001 
-7.056273e-001 
-6.891004e-001 
-6.737357e-001 
-6.577899e-001 
-6.411446e-001 
-6.239530e-001 
-6.072117e-001 
-5.912755e-001 
-5.749465e-001 
-5.584624e-001 
-5.433831e-001 
-5.277497e-001 
-5.110866e-001 
-4.952220e-001 
-4.791940e-001 
-4.621380e-001 
-4.454961e-001 
-4.293016e-001 
-4.129514e-001 
-3.965391e-001 
-3.789277e-001 
-3.614171e-001 
-3.443639e-001 
-3.256423e-001 
-3.069980e-001 
-2.506002e-001 
-1.644507e-001 
-8.404955e-002 
-8.054436e-003 
6.550105e-002 
1.361979e-001 
2.069894e-001 
2.729407e-001 
3.621399e-001 
4.924138e-001 
5.822636e-001 
6.349146e-001 
6.888583e-001 
7.433831e-001 
7.971915e-001 
8.507324e-001 
9.013675e-001 
9.545889e-001 
9.804962e-001 
9.621768e-001 
9.421206e-001 
9.265631e-001 
9.128919e-001 
8.997737e-001 
8.869132e-001 
8.729216e-001 
8.587993e-001 
8.445968e-001 
8.303794e-001 
8.156321e-001 
8.011728e-001 
7.866067e-001 
7.723277e-001 
7.575191e-001 
7.420693e-001 
7.280191e-001 
7.138883e-001 
6.988487e-001 
6.838477e-001 
6.690218e-001 
6.541192e-001 
6.395339e-001 
6.243062e-001 
6.096332e-001 
5.952480e-001 
5.796758e-001 
5.643959e-001 
5.490416e-001 
5.338925e-001 
5.193261e-001 
5.041173e-001 
4.891989e-001 
4.742902e-001 
4.584480e-001 
4.426486e-001 
4.270566e-001 
4.106764e-001 
3.946845e-001 
3.783351e-001 
3.618943e-001 
3.457561e-001 
3.278165e-001 
3.097435e-001 
2.917371e-001 
2.477053e-001 
1.691359e-001 
8.626902e-002 
1.070970e-002 
-6.243862e-002 
-1.342108e-001 
-2.056627e-001 
-2.731307e-001 
-3.541536e-001 
-4.709817e-001 
-5.754257e-001 
-6.372585e-001 
-6.890996e-001 
-7.447503e-001 
-8.001392e-001 
-8.545374e-001 
-9.062866e-001 
-9.580916e-001 
-9.937138e-001 
-9.896705e-001 
-9.689510e-001 
-9.530200e-001 
-9.395782e-001 
-9.269027e-001 
-9.143601e-001 
-9.013570e-001 
-8.877306e-001 
-8.741001e-001 
-8.596067e-001 
-8.448992e-001 
-8.297278e-001 
-8.146099e-001 
-7.995452e-001 
-7.846478e-001 
-7.686946e-001 
-7.528846e-001 
-7.378467e-001 
-7.221686e-001 
-7.065974e-001 
-6.911040e-001 
-6.750302e-001 
-6.593371e-001 
-6.443518e-001 
-6.289268e-001 
-6.137583e-001 
-5.987514e-001 
-5.837628e-001 
-5.689349e-001 
-5.537310e-001 
-5.383029e-001 
-5.240600e-001 
-5.101026e-001 
-4.949562e-001 
-4.794705e-001 
-4.647551e-001 
-4.498766e-001 
-4.346000e-001 
-4.188623e-001 
-4.027375e-001 
-3.868204e-001 
-3.705738e-001 
-3.530699e-001 
-3.350937e-001 
-3.170478e-001 
-2.658373e-001 
-1.821681e-001 
-9.895403e-002 
-2.211063e-002 
5.148142e-002 
1.227095e-001 
1.942828e-001 
2.623143e-001 
3.487397e-001 
4.728290e-001 
5.715577e-001 
6.303611e-001 
6.841026e-001 
7.399983e-001 
7.953508e-001 
8.508783e-001 
9.035243e-001 
9.561232e-001 
9.868055e-001 
9.772132e-001 
9.572515e-001 
9.414602e-001 
9.281209e-001 
9.165411e-001 
9.050028e-001 
8.925123e-001 
8.796469e-001 
8.667301e-001 
8.536771e-001 
8.388296e-001 
8.241847e-001 
8.105703e-001 
7.965231e-001 
7.809006e-001 
7.656341e-001 
7.508717e-001 
7.361893e-001 
7.205068e-001 
7.048803e-001 
6.904751e-001 
6.750974e-001 
6.589314e-001 
6.431105e-001 
6.278837e-001 
6.128475e-001 
5.967783e-001 
5.807611e-001 
5.660179e-001 
5.501545e-001 
5.337694e-001 
5.187887e-001 
5.036177e-001 
4.881359e-001 
4.723449e-001 
4.563677e-001 
4.411634e-001 
4.250190e-001 
4.078250e-001 
3.912591e-001 
3.749680e-001 
3.575056e-001 
3.397216e-001 
3.214382e-001 
3.053902e-001 
2.466773e-001 
1.576743e-001 
7.825771e-002 
2.991709e-003 
-7.058983e-002 
-1.421859e-001 
-2.142369e-001 
-2.795984e-001 
-3.692968e-001 
-5.045805e-001 
-5.933439e-001 
-6.444502e-001 
-7.012751e-001 
-7.590963e-001 
-8.150983e-001 
-8.706578e-001 
-9.225664e-001 
-9.781128e-001 
-1.005534e+000 
-9.864615e-001 
-9.690449e-001 
-9.570211e-001 
-9.451920e-001 
-9.322328e-001 
-9.198084e-001 
-9.067070e-001 
-8.933906e-001 
-8.793951e-001 
-8.649462e-001 
-8.506967e-001 
-8.367963e-001 
-8.216207e-001 
-8.059200e-001 
-7.911416e-001 
-7.760434e-001 
-7.607565e-001 
-7.450309e-001 
-7.292697e-001 
-7.146953e-001 
-7.002221e-001 
-6.839980e-001 
-6.686339e-001 
-6.546405e-001 
-6.397875e-001 
-6.245870e-001 
-6.094624e-001 
-5.948353e-001 
-5.805815e-001 
-5.646900e-001 
-5.487920e-001 
-5.345602e-001 
-5.198985e-001 
-5.036647e-001 
-4.877900e-001 
-4.724225e-001 
-4.571378e-001 
-4.408561e-001 
-4.240041e-001 
-4.079644e-001 
-3.916533e-001 
-3.736925e-001 
-3.551981e-001 
-3.374668e-001 
-3.186065e-001 
-3.004896e-001 
-2.378936e-001 
-1.486156e-001 
-7.098292e-002 
4.444909e-003 
7.862338e-002 
1.494965e-001 
2.208620e-001 
2.870057e-001 
3.791026e-001 
5.143983e-001 
5.981665e-001 
6.483065e-001 
7.061989e-001 
7.621869e-001 
8.163577e-001 
8.714396e-001 
9.229100e-001 
9.766767e-001 
1.000656e+000 
9.799392e-001 
9.632894e-001 
9.487964e-001 
9.349891e-001 
9.227928e-001 
9.108555e-001 
8.973385e-001 
8.834517e-001 
8.695187e-001 
8.548251e-001 
8.391890e-001 
8.233944e-001 
8.082858e-001 
7.933447e-001 
7.779774e-001 
7.625361e-001 
7.473863e-001 
7.310535e-001 
7.150167e-001 
6.995387e-001 
6.834227e-001 
6.676301e-001 
6.523951e-001 
6.364925e-001 
6.209982e-001 
6.049518e-001 
5.882420e-001 
5.724230e-001 
5.561821e-001 
5.404152e-001 
5.258635e-001 
5.101907e-001 
4.940527e-001 
4.782672e-001 
4.619028e-001 
4.456487e-001 
4.294183e-001 
4.136619e-001 
3.980477e-001 
3.810521e-001 
3.631605e-001 
3.453996e-001 
3.277112e-001 
3.094940e-001 
2.544298e-001 
1.687484e-001 
8.727658e-002 
1.041496e-002 
-6.416779e-002 
-1.365960e-001 
-2.082400e-001 
-2.751335e-001 
-3.646147e-001 
-4.935031e-001 
-5.882822e-001 
-6.438634e-001 
-6.985008e-001 
-7.550084e-001 
-8.109044e-001 
-8.657424e-001 
-9.181104e-001 
-9.721196e-001 
-1.000861e+000 
-9.867349e-001 
-9.667317e-001 
-9.521931e-001 
-9.392564e-001 
-9.271483e-001 
-9.149561e-001 
-9.017579e-001 
-8.878592e-001 
-8.735277e-001 
-8.593739e-001 
-8.449602e-001 
-8.302746e-001 
-8.155751e-001 
-8.011985e-001 
-7.858494e-001 
-7.699760e-001 
-7.540961e-001 
-7.394036e-001 
-7.247846e-001 
-7.085012e-001 
-6.925995e-001 
-6.772275e-001 
-6.612170e-001 
-6.455578e-001 
-6.297402e-001 
-6.145803e-001 
-6.003035e-001 
-5.842748e-001 
-5.683262e-001 
-5.536512e-001 
-5.378273e-001 
-5.215674e-001 
-5.062326e-001 
-4.904949e-001 
-4.750788e-001 
-4.587236e-001 
-4.417701e-001 
-4.256578e-001 
-4.092171e-001 
-3.921493e-001 
-3.756516e-001 
-3.594284e-001 
-3.420910e-001 
-3.233808e-001 
-3.037831e-001 
-2.490768e-001 
-1.638311e-001 
-8.263679e-002 
-6.552186e-003 
6.704247e-002 
1.387592e-001 
2.114044e-001 
2.794374e-001 
3.674152e-001 
4.942865e-001 
5.887041e-001 
6.440404e-001 
6.986417e-001 
7.557429e-001 
8.124370e-001 
8.678907e-001 
9.192482e-001 
9.721375e-001 
1.001351e+000 
9.878522e-001 
9.677860e-001 
9.536633e-001 
9.413263e-001 
9.286420e-001 
9.156121e-001 
9.024743e-001 
8.895941e-001 
8.756115e-001 
8.614122e-001 
8.469822e-001 
8.329673e-001 
8.182706e-001 
8.031464e-001 
7.881614e-001 
7.733148e-001 
7.574122e-001 
7.416810e-001 
7.266355e-001 
7.114285e-001 
6.965404e-001 
6.804679e-001 
6.640322e-001 
6.484576e-001 
6.328750e-001 
6.170984e-001 
6.020586e-001 
5.870656e-001 
5.722050e-001 
5.563965e-001 
5.395591e-001 
5.239139e-001 
5.093690e-001 
4.942100e-001 
4.781107e-001 
4.617120e-001 
4.454939e-001 
4.289479e-001 
4.118039e-001 
3.951444e-001 
3.792388e-001 
3.624317e-001 
3.442492e-001 
3.249623e-001 
3.053344e-001 
2.537735e-001 
1.699563e-001 
8.671738e-002 
1.002105e-002 
-6.393170e-002 
-1.363625e-001 
-2.088896e-001 
-2.772631e-001 
-3.631576e-001 
-4.871910e-001 
-5.856214e-001 
-6.432628e-001 
-6.965693e-001 
-7.534188e-001 
-8.101413e-001 
-8.649364e-001 
-9.159952e-001 
-9.686939e-001 
-9.996041e-001 
-9.876565e-001 
-9.667672e-001 
-9.524764e-001 
-9.401230e-001 
-9.264287e-001 
-9.123654e-001 
-8.992789e-001 
-8.858488e-001 
-8.709973e-001 
-8.560469e-001 
-8.418135e-001 
-8.273281e-001 
-8.111838e-001 
-7.950979e-001 
-7.802639e-001 
-7.643738e-001 
-7.481764e-001 
-7.325387e-001 
-7.168648e-001 
-7.013836e-001 
-6.861307e-001 
-6.704968e-001 
-6.551779e-001 
-6.389134e-001 
-6.227017e-001 
-6.076792e-001 
-5.920449e-001 
-5.766457e-001 
-5.616512e-001 
-5.464167e-001 
-5.308068e-001 
-5.147740e-001 
-4.985847e-001 
-4.831977e-001 
-4.667573e-001 
-4.498332e-001 
-4.332716e-001 
-4.155116e-001 
-3.980609e-001 
-3.811821e-001 
-3.636501e-001 
-3.458826e-001 
-3.278524e-001 
-3.086028e-001 
-2.891263e-001 
-2.460495e-001 
-1.674300e-001 
-8.337768e-002 
-5.966379e-003 
6.909577e-002 
1.415224e-001 
2.131038e-001 
2.819247e-001 
3.620425e-001 
4.772694e-001 
5.851334e-001 
6.494243e-001 
7.017246e-001 
7.579024e-001 
8.137447e-001 
8.684717e-001 
9.215056e-001 
9.733730e-001 
1.009950e+000 
1.008165e+000 
9.865662e-001 
9.706696e-001 
9.576689e-001 
9.447535e-001 
9.325367e-001 
9.195286e-001 
9.048893e-001 
8.911081e-001 
8.772876e-001 
8.626984e-001 
8.480100e-001 
8.328006e-001 
8.177025e-001 
8.016637e-001 
7.852327e-001 
7.703845e-001 
7.560033e-001 
7.408288e-001 
7.245572e-001 
7.085244e-001 
6.931363e-001 
6.766596e-001 
6.602079e-001 
6.454251e-001 
6.301868e-001 
6.134651e-001 
5.966263e-001 
5.800851e-001 
5.648916e-001 
5.484862e-001 
5.316619e-001 
5.161507e-001 
4.996442e-001 
4.817255e-001 
4.644035e-001 
4.480759e-001 
4.317075e-001 
4.147701e-001 
3.964793e-001 
3.791589e-001 
3.613876e-001 
3.425173e-001 
3.242260e-001 
3.060675e-001 
2.500110e-001 
1.636075e-001 
8.216139e-002 
6.069590e-003 
-6.748205e-002 
-1.393054e-001 
-2.105330e-001 
-2.774049e-001 
-3.673148e-001 
-4.958218e-001 
-5.879406e-001 
-6.423195e-001 
-6.975479e-001 
-7.552170e-001 
-8.106604e-001 
-8.649635e-001 
-9.174503e-001 
-9.705271e-001 
-9.973546e-001 
-9.824530e-001 
-9.639733e-001 
-9.513928e-001 
-9.392464e-001 
-9.258795e-001 
-9.139654e-001 
-9.020886e-001 
-8.889548e-001 
-8.755001e-001 
-8.621477e-001 
-8.488972e-001 
-8.353263e-001 
-8.205070e-001 
-8.063689e-001 
-7.928435e-001 
-7.784699e-001 
-7.636306e-001 
-7.488431e-001 
-7.341073e-001 
-7.195371e-001 
-7.045388e-001 
-6.888353e-001 
-6.736390e-001 
-6.577384e-001 
-6.414164e-001 
-6.258974e-001 
-6.102193e-001 
-5.941186e-001 
-5.789057e-001 
-5.630252e-001 
-5.465946e-001 
-5.312043e-001 
-5.149328e-001 
-4.987427e-001 
-4.829622e-001 
-4.658874e-001 
-4.489616e-001 
-4.324267e-001 
-4.146074e-001 
-3.969468e-001 
-3.802880e-001 
-3.628239e-001 
-3.450382e-001 
-3.270184e-001 
-3.077790e-001 
-2.908020e-001 
-2.292989e-001 
-1.393297e-001 
-6.108909e-002 
1.365576e-002 
8.673960e-002 
1.578750e-001 
2.306034e-001 
2.960527e-001 
3.863379e-001 
5.216197e-001 
6.057898e-001 
6.542279e-001 
7.095902e-001 
7.649257e-001 
8.205552e-001 
8.762577e-001 
9.259848e-001 
9.787166e-001 
1.003110e+000 
9.816388e-001 
9.633025e-001 
9.488054e-001 
9.354380e-001 
9.228655e-001 
9.095542e-001 
8.943638e-001 
8.792269e-001 
8.655517e-001 
8.512931e-001 
8.360038e-001 
8.208829e-001 
8.057869e-001 
7.908299e-001 
7.761904e-001 
7.606945e-001 
7.452761e-001 
7.302350e-001 
7.146112e-001 
6.990656e-001 
6.836261e-001 
6.681780e-001 
6.532857e-001 
6.380528e-001 
6.218515e-001 
6.057948e-001 
5.897961e-001 
5.745128e-001 
5.590977e-001 
5.432588e-001 
5.276484e-001 
5.110432e-001 
4.941059e-001 
4.777604e-001 
4.606954e-001 
4.438076e-001 
4.272823e-001 
4.095299e-001 
3.921726e-001 
3.749082e-001 
3.567781e-001 
3.396744e-001 
3.214609e-001 
3.017647e-001 
2.446427e-001 
1.579733e-001 
7.681962e-002 
1.326490e-003 
-7.225890e-002 
-1.442092e-001 
-2.162708e-001 
-2.840091e-001 
-3.736939e-001 
-5.026141e-001 
-5.932771e-001 
-6.467295e-001 
-7.007913e-001 
-7.572915e-001 
-8.140941e-001 
-8.689120e-001 
-9.197377e-001 
-9.730342e-001 
-1.000060e+000 
-9.839049e-001 
-9.647083e-001 
-9.503643e-001 
-9.386732e-001 
-9.260245e-001 
-9.123087e-001 
-8.992036e-001 
-8.863561e-001 
-8.729494e-001 
-8.596159e-001 
-8.456973e-001 
-8.314967e-001 
-8.170156e-001 
-8.019552e-001 
-7.869762e-001 
-7.720781e-001 
-7.572322e-001 
-7.425240e-001 
-7.274743e-001 
-7.118705e-001 
-6.963446e-001 
-6.808964e-001 
-6.655255e-001 
-6.502313e-001 
-6.343843e-001 
-6.188308e-001 
-6.038337e-001 
-5.881963e-001 
-5.716210e-001 
-5.554065e-001 
-5.397009e-001 
-5.240799e-001 
-5.080929e-001 
-4.919491e-001 
-4.765506e-001 
-4.602705e-001 
-4.425487e-001 
-4.247647e-001 
-4.076767e-001 
-3.900508e-001 
-3.721040e-001 
-3.542882e-001 
-3.359732e-001 
-3.169258e-001 
-2.967843e-001 
-2.410360e-001 
-1.555323e-001 
-7.342349e-002 
3.420236e-003 
7.682578e-002 
1.485958e-001 
2.207706e-001 
2.887345e-001 
3.777860e-001 
5.045093e-001 
5.982998e-001 
6.534982e-001 
7.064607e-001 
7.621106e-001 
8.178041e-001 
8.725628e-001 
9.239442e-001 
9.752058e-001 
1.002507e+000 
9.885636e-001 
9.680341e-001 
9.532929e-001 
9.409699e-001 
9.282427e-001 
9.159714e-001 
9.024166e-001 
8.882144e-001 
8.748904e-001 
8.611037e-001 
8.466057e-001 
8.326373e-001 
8.178726e-001 
8.037888e-001 
7.898674e-001 
7.742558e-001 
7.590002e-001 
7.443630e-001 
7.298416e-001 
7.150845e-001 
7.000510e-001 
6.849993e-001 
6.702947e-001 
6.539262e-001 
6.376679e-001 
6.225131e-001 
6.071974e-001 
5.924153e-001 
5.769270e-001 
5.609867e-001 
5.453039e-001 
5.285692e-001 
5.118959e-001 
4.965059e-001 
4.799766e-001 
4.636219e-001 
4.474125e-001 
4.301253e-001 
4.131025e-001 
3.956638e-001 
3.780756e-001 
3.612968e-001 
3.434714e-001 
3.251693e-001 
3.066072e-001 
2.650412e-001 
1.878249e-001 
1.028668e-001 
2.533313e-002 
-4.870765e-002 
-1.207048e-001 
-1.925540e-001 
-2.613842e-001 
-3.413628e-001 
-4.558082e-001 
-5.660131e-001 
-6.329199e-001 
-6.855434e-001 
-7.417361e-001 
-7.981007e-001 
-8.534475e-001 
-9.064031e-001 
-9.590215e-001 
-9.979595e-001 
-9.988669e-001 
-9.785388e-001 
-9.624903e-001 
-9.496468e-001 
-9.373523e-001 
-9.252537e-001 
-9.130709e-001 
-8.998822e-001 
-8.866223e-001 
-8.727120e-001 
-8.578694e-001 
-8.430705e-001 
-8.290812e-001 
-8.147743e-001 
-8.003666e-001 
-7.849865e-001 
-7.695041e-001 
-7.543134e-001 
-7.385977e-001 
-7.228747e-001 
-7.083384e-001 
-6.938747e-001 
-6.777458e-001 
-6.613685e-001 
-6.457375e-001 
-6.299481e-001 
-6.144229e-001 
-5.993964e-001 
-5.841800e-001 
-5.689248e-001 
-5.527873e-001 
-5.359868e-001 
-5.197773e-001 
-5.038057e-001 
-4.870479e-001 
-4.712812e-001 
-4.550274e-001 
-4.377246e-001 
-4.206002e-001 
-4.035391e-001 
-3.859115e-001 
-3.680490e-001 
-3.498384e-001 
-3.315456e-001 
-3.129354e-001 
-2.619085e-001 
-1.790951e-001 
-9.684888e-002 
-2.005461e-002 
5.460267e-002 
1.265040e-001 
1.976108e-001 
2.644776e-001 
3.496882e-001 
4.722259e-001 
5.705202e-001 
6.291206e-001 
6.828108e-001 
7.380835e-001 
7.924585e-001 
8.465984e-001 
8.976555e-001 
9.492230e-001 
9.799932e-001 
9.698364e-001 
9.491125e-001 
9.331274e-001 
9.187878e-001 
9.062635e-001 
8.938079e-001 
8.796548e-001 
8.659362e-001 
8.523213e-001 
8.380592e-001 
8.239253e-001 
8.097761e-001 
7.961479e-001 
7.822586e-001 
7.669157e-001 
7.514987e-001 
7.367658e-001 
7.221127e-001 
7.075390e-001 
6.923863e-001 
6.775873e-001 
6.622965e-001 
6.459517e-001 
6.304100e-001 
6.147093e-001 
5.985862e-001 
5.833510e-001 
5.674482e-001 
5.516249e-001 
5.366245e-001 
5.202623e-001 
5.040679e-001 
4.882547e-001 
4.711474e-001 
4.548470e-001 
4.386342e-001 
4.211354e-001 
4.047234e-001 
3.878052e-001 
3.698189e-001 
3.521065e-001 
3.339593e-001 
3.151003e-001 
2.968563e-001 
2.767928e-001 
2.205150e-001 
1.347213e-001 
5.208097e-002 
-2.529155e-002 
-9.960988e-002 
-1.723104e-001 
-2.443255e-001 
-3.114949e-001 
-4.010722e-001 
-5.287337e-001 
-6.220779e-001 
-6.770751e-001 
-7.316099e-001 
-7.885590e-001 
-8.447085e-001 
-8.986905e-001 
-9.504788e-001 
-1.003818e+000 
-1.031542e+000 
-1.016725e+000 
-9.971215e-001 
-9.826154e-001 
-9.697470e-001 
-9.565056e-001 
-9.431572e-001 
-9.300959e-001 
-9.164767e-001 
-9.022737e-001 
-8.884197e-001 
-8.740691e-001 
-8.592893e-001 
-8.450904e-001 
-8.302472e-001 
-8.150631e-001 
-8.001044e-001 
-7.846911e-001 
-7.692325e-001 
-7.540081e-001 
-7.379937e-001 
-7.229666e-001 
-7.074489e-001 
-6.915077e-001 
-6.761533e-001 
-6.601604e-001 
-6.438324e-001 
-6.283648e-001 
-6.122309e-001 
-5.962060e-001 
-5.809192e-001 
-5.653801e-001 
-5.506340e-001 
-5.349394e-001 
-5.181869e-001 
-5.027121e-001 
-4.878582e-001 
-4.721773e-001 
-4.568176e-001 
-4.409404e-001 
-4.253921e-001 
-4.093840e-001 
-3.916387e-001 
-3.746813e-001 
-3.583283e-001 
-3.398600e-001 
-2.969196e-001 
-2.182987e-001 
-1.339576e-001 
-5.803082e-002 
1.692796e-002 
8.975265e-002 
1.604153e-001 
2.299019e-001 
3.123052e-001 
4.285191e-001 
5.362564e-001 
5.999778e-001 
6.523400e-001 
7.093942e-001 
7.648206e-001 
8.197124e-001 
8.735099e-001 
9.254577e-001 
9.606697e-001 
9.580702e-001 
9.367696e-001 
9.205398e-001 
9.069434e-001 
8.937854e-001 
8.813637e-001 
8.680517e-001 
8.532607e-001 
8.384565e-001 
8.245477e-001 
8.098707e-001 
7.947946e-001 
7.798575e-001 
7.650301e-001 
7.498618e-001 
7.341684e-001 
7.184675e-001 
7.033237e-001 
6.884701e-001 
6.730612e-001 
6.577294e-001 
6.424743e-001 
6.266660e-001 
6.111512e-001 
5.955630e-001 
5.795519e-001 
5.637128e-001 
5.479305e-001 
5.322049e-001 
5.160203e-001 
4.996302e-001 
4.836497e-001 
4.678777e-001 
4.509540e-001 
4.337000e-001 
4.171967e-001 
4.012545e-001 
3.842266e-001 
3.666829e-001 
3.498913e-001 
3.325895e-001 
3.145724e-001 
2.960221e-001 
2.779349e-001 
2.600078e-001 
2.042101e-001 
1.173202e-001 
3.553966e-002 
-4.108562e-002 
-1.160342e-001 
-1.886120e-001 
-2.605842e-001 
-3.275899e-001 
-4.171542e-001 
-5.464256e-001 
-6.403270e-001 
-6.951632e-001 
-7.500450e-001 
-8.074679e-001 
-8.633084e-001 
-9.180413e-001 
-9.702114e-001 
-1.023995e+000 
-1.052692e+000 
-1.038120e+000 
-1.018340e+000 
-1.004460e+000 
-9.914062e-001 
-9.777948e-001 
-9.655800e-001 
-9.531671e-001 
-9.397780e-001 
-9.263470e-001 
-9.121522e-001 
-8.982203e-001 
-8.844786e-001 
-8.700043e-001 
-8.567104e-001 
-8.435689e-001 
-8.282486e-001 
-8.131767e-001 
-7.987812e-001 
-7.841573e-001 
-7.702929e-001 
-7.564119e-001 
-7.424211e-001 
-7.283854e-001 
-7.133754e-001 
-6.982037e-001 
-6.843728e-001 
-6.704029e-001 
-6.560018e-001 
-6.418221e-001 
-6.272699e-001 
-6.121609e-001 
-5.977854e-001 
-5.831815e-001 
-5.686507e-001 
-5.544927e-001 
-5.391182e-001 
-5.234056e-001 
-5.084929e-001 
-4.933322e-001 
-4.782533e-001 
-4.629268e-001 
-4.459522e-001 
-4.294040e-001 
-4.123786e-001 
-3.942283e-001 
-3.553448e-001 
-2.800540e-001 
-1.961755e-001 
-1.206031e-001 
-4.698512e-002 
2.475494e-002 
9.482428e-002 
1.624551e-001 
2.398955e-001 
3.521797e-001 
4.610416e-001 
5.243736e-001 
5.735037e-001 
6.273920e-001 
6.808770e-001 
7.326351e-001 
7.823628e-001 
8.314395e-001 
8.666527e-001 
8.628379e-001 
8.382039e-001 
8.188932e-001 
8.022028e-001 
7.864457e-001 
7.703799e-001 
7.541079e-001 
7.368362e-001 
7.193359e-001 
7.022508e-001 
6.854081e-001 
6.673333e-001 
6.494124e-001 
6.318305e-001 
6.137707e-001 
5.953287e-001 
5.767706e-001 
5.589124e-001 
5.412070e-001 
5.231751e-001 
5.046039e-001 
4.861256e-001 
4.677396e-001 
4.494456e-001 
4.312431e-001 
4.125021e-001 
3.934398e-001 
3.751658e-001 
3.567464e-001 
3.379466e-001 
3.193328e-001 
3.007613e-001 
2.823461e-001 
2.636365e-001 
2.436756e-001 
2.245075e-001 
2.061282e-001 
1.858666e-001 
1.649047e-001 
1.441746e-001 
1.234751e-001 
1.023477e-001 
8.044443e-002 
5.782575e-002 
3.500983e-002 
-2.222716e-002 
-1.118292e-001 
-1.982153e-001 
-2.787011e-001 
-3.579256e-001 
-4.352441e-001 
-5.115828e-001 
-5.848994e-001 
-6.781708e-001 
-8.089508e-001 
-9.096539e-001 
-9.701576e-001 
-1.029365e+000 
-1.090920e+000 
-1.150409e+000 
-1.209514e+000 
-1.266907e+000 
-1.324313e+000 
-1.358113e+000 
-1.350141e+000 
-1.334889e+000 
-1.324978e+000 
-1.316317e+000 
-1.308093e+000 
-1.300602e+000 
-1.292105e+000 
-1.283235e+000 
-1.274258e+000 
-1.264826e+000 
-1.255533e+000 
-1.246893e+000 
-1.238689e+000 
-1.230554e+000 
-1.221352e+000 
-1.211625e+000 
-1.202847e+000 
-1.193269e+000 
-1.183832e+000 
-1.174736e+000 
-1.166414e+000 
-1.158069e+000 
-1.148872e+000 
-1.138462e+000 
-1.128797e+000 
-1.119787e+000 
-1.110615e+000 
-1.101015e+000 
-1.090269e+000 
-1.079410e+000 
-1.067474e+000 
-1.054688e+000 
-1.041198e+000 
-1.027950e+000 
-1.014251e+000 
-9.992075e-001 
-9.821977e-001 
-9.643393e-001 
-9.461800e-001 
-9.269061e-001 
-9.062588e-001 
-8.847810e-001 
-8.630780e-001 
-8.398569e-001 
-8.178222e-001 
-7.535454e-001 
-6.594564e-001 
-5.735421e-001 
-4.910031e-001 
-4.110501e-001 
-3.334436e-001 
-2.549906e-001 
-1.832590e-001 
-8.764411e-002 
5.322623e-002 
1.492574e-001 
2.076810e-001 
2.695705e-001 
3.318875e-001 
3.942862e-001 
4.563888e-001 
5.149295e-001 
5.768889e-001 
6.112638e-001 
5.998827e-001 
5.896630e-001 
5.844586e-001 
5.802673e-001 
5.775701e-001 
5.752081e-001 
5.718724e-001 
5.680605e-001 
5.641757e-001 
5.606970e-001 
5.579794e-001 
5.540814e-001 
5.500522e-001 
5.475798e-001 
5.442537e-001 
5.404717e-001 
5.368005e-001 
5.330970e-001 
5.294755e-001 
5.261149e-001 
5.218414e-001 
5.175893e-001 
5.136587e-001 
5.084605e-001 
5.035026e-001 
4.984472e-001 
4.928302e-001 
4.878118e-001 
4.836400e-001 
4.786229e-001 
4.732442e-001 
4.674774e-001 
4.615602e-001 
4.558869e-001 
4.483821e-001 
4.406283e-001 
4.339339e-001 
4.273792e-001 
4.196330e-001 
4.108870e-001 
4.024119e-001 
3.939555e-001 
3.841528e-001 
3.736534e-001 
3.631618e-001 
3.315777e-001 
2.629061e-001 
1.845708e-001 
1.141485e-001 
4.719177e-002 
-1.857217e-002 
-8.331861e-002 
-1.454327e-001 
-2.181865e-001 
-3.247718e-001 
-4.294953e-001 
-4.899757e-001 
-5.357630e-001 
-5.862473e-001 
-6.369688e-001 
-6.864862e-001 
-7.343853e-001 
-7.813796e-001 
-8.150718e-001 
-8.117542e-001 
-7.861640e-001 
-7.662895e-001 
-7.499256e-001 
-7.341872e-001 
-7.185559e-001 
-7.030027e-001 
-6.874988e-001 
-6.721584e-001 
-6.564161e-001 
-6.411675e-001 
-6.270397e-001 
-6.129189e-001 
-5.988911e-001 
-5.849274e-001 
-5.710274e-001 
-5.565898e-001 
-5.423753e-001 
-5.291254e-001 
-5.164854e-001 
-5.033076e-001 
-4.897805e-001 
-4.763563e-001 
-4.630627e-001 
-4.487336e-001 
-4.344822e-001 
-4.213878e-001 
-4.077071e-001 
-3.939226e-001 
-3.794267e-001 
-3.651033e-001 
-3.514445e-001 
-3.366600e-001 
-3.213201e-001 
-3.068356e-001 
-2.912649e-001 
-2.758639e-001 
-2.611755e-001 
-2.456084e-001 
-2.304256e-001 
-2.143377e-001 
-1.972350e-001 
-1.803733e-001 
-1.631010e-001 
-1.456845e-001 
-9.380629e-002 
-1.032400e-002 
7.073830e-002 
1.468124e-001 
2.199816e-001 
2.905882e-001 
3.611134e-001 
4.264075e-001 
5.122605e-001 
6.377680e-001 
7.312213e-001 
7.861127e-001 
8.390701e-001 
8.933990e-001 
9.480784e-001 
1.001857e+000 
1.052506e+000 
1.105220e+000 
1.133903e+000 
1.120219e+000 
1.101373e+000 
1.087366e+000 
1.075253e+000 
1.063915e+000 
1.053236e+000 
1.042395e+000 
1.031159e+000 
1.020608e+000 
1.010975e+000 
1.000912e+000 
9.892761e-001 
9.778841e-001 
9.674779e-001 
9.566511e-001 
9.448050e-001 
9.341039e-001 
9.245134e-001 
9.145843e-001 
9.029959e-001 
8.914369e-001 
8.817306e-001 
8.720094e-001 
8.609792e-001 
8.506559e-001 
8.414578e-001 
8.316702e-001 
8.204592e-001 
8.086748e-001 
7.986360e-001 
7.891321e-001 
7.781012e-001 
7.665657e-001 
7.564231e-001 
7.457429e-001 
7.329981e-001 
7.199081e-001 
7.077900e-001 
6.959244e-001 
6.825012e-001 
6.680147e-001 
6.547437e-001 
6.409732e-001 
6.246466e-001 
6.079276e-001 
5.604408e-001 
4.798971e-001 
3.999222e-001 
3.253931e-001 
2.541754e-001 
1.854877e-001 
1.153401e-001 
4.924840e-002 
-3.378278e-002 
-1.553457e-001 
-2.522268e-001 
-3.077470e-001 
-3.593082e-001 
-4.132480e-001 
-4.672615e-001 
-5.204690e-001 
-5.703058e-001 
-6.210382e-001 
-6.513366e-001 
-6.398539e-001 
-6.187280e-001 
-6.037964e-001 
-5.911507e-001 
-5.792201e-001 
-5.673715e-001 
-5.554902e-001 
-5.441692e-001 
-5.330556e-001 
-5.211538e-001 
-5.101553e-001 
-4.996904e-001 
-4.885626e-001 
-4.777331e-001 
-4.668070e-001 
-4.560356e-001 
-4.452815e-001 
-4.342310e-001 
-4.228706e-001 
-4.117814e-001 
-4.003326e-001 
-3.881607e-001 
-3.763926e-001 
-3.644101e-001 
-3.527445e-001 
-3.408639e-001 
-3.293856e-001 
-3.171845e-001 
-3.052587e-001 
-2.933926e-001 
-2.813714e-001 
-2.695612e-001 
-2.570521e-001 
-2.443128e-001 
-2.315724e-001 
-2.190241e-001 
-2.057008e-001 
-1.926646e-001 
-1.791054e-001 
-1.658695e-001 
-1.521400e-001 
-1.373549e-001 
-1.227133e-001 
-1.081861e-001 
-9.203532e-002 
-4.942063e-002 
2.884014e-002 
1.117799e-001 
1.865984e-001 
2.598905e-001 
3.309000e-001 
4.006795e-001 
4.682083e-001 
5.495572e-001 
6.664954e-001 
7.721930e-001 
8.338350e-001 
8.858291e-001 
9.420166e-001 
9.972669e-001 
1.052727e+000 
1.106226e+000 
1.158550e+000 
1.194674e+000 
1.192033e+000 
1.172538e+000 
1.158779e+000 
1.147328e+000 
1.137580e+000 
1.129012e+000 
1.119314e+000 
1.109058e+000 
1.100170e+000 
1.091712e+000 
1.083892e+000 
1.076490e+000 
1.070078e+000 
1.066081e+000 
1.064989e+000 
1.142809e+000 
1.266893e+000 
1.374759e+000 
1.479927e+000 
1.582441e+000 
1.681886e+000 
1.782378e+000 
1.877269e+000 
2.023358e+000 
2.239818e+000 
2.365000e+000 
2.439469e+000 
2.540681e+000 
2.651438e+000 
2.761489e+000 
2.860563e+000 
2.923207e+000 
2.986479e+000 
3.011513e+000 
2.960945e+000 
2.930950e+000 
2.915034e+000 
2.890024e+000 
2.849078e+000 
2.779734e+000 
2.705713e+000 
2.681888e+000 
2.666121e+000 
2.630916e+000 
2.593160e+000 
2.544424e+000 
2.484387e+000 
2.420504e+000 
2.364368e+000 
2.336415e+000 
2.326969e+000 
2.301929e+000 
2.270670e+000 
2.245525e+000 
2.226563e+000 
2.208845e+000 
2.182272e+000 
2.154297e+000 
2.132556e+000 
2.116433e+000 
2.098425e+000 
2.079397e+000 
2.061331e+000 
2.040042e+000 
2.004686e+000 
1.955631e+000 
1.918070e+000 
1.884697e+000 
1.842214e+000 
1.791617e+000 
1.735303e+000 
1.677313e+000 
1.613627e+000 
1.541526e+000 
1.477348e+000 
1.423786e+000 
1.365513e+000 
1.303782e+000 
1.244266e+000 
1.188849e+000 
1.134096e+000 
1.077168e+000 
1.027956e+000 
9.873822e-001 
9.504030e-001 
9.146026e-001 
8.826614e-001 
8.612394e-001 
8.344575e-001 
7.963530e-001 
7.625767e-001 
7.353087e-001 
7.117493e-001 
6.945691e-001 
6.763486e-001 
6.639796e-001 
6.571962e-001 
6.340499e-001 
6.100044e-001 
5.962290e-001 
5.830537e-001 
5.694478e-001 
5.500091e-001 
5.203268e-001 
4.925122e-001 
4.639851e-001 
4.259915e-001 
3.912328e-001 
3.610442e-001 
3.309695e-001 
2.926355e-001 
2.599420e-001 
2.711627e-001 
3.347352e-001 
4.071188e-001 
4.236098e-001 
3.569138e-001 
2.857442e-001 
2.467395e-001 
2.181241e-001 
2.335820e-001 
2.946191e-001 
3.370804e-001 
3.030213e-001 
1.752977e-001 
5.803539e-002 
5.637504e-002 
8.116259e-002 
7.950470e-002 
7.487027e-002 
3.185642e-002 
-6.648441e-002 
-1.835280e-001 
-2.681916e-001 
-2.698439e-001 
-2.272466e-001 
-2.043164e-001 
-1.885132e-001 
-1.751085e-001 
-1.677321e-001 
-1.488700e-001 
-1.221488e-001 
-9.886656e-002 
-7.875687e-002 
-5.377645e-002 
-2.604023e-002 
-7.758312e-003 
8.547438e-004 
1.494025e-002 
3.017437e-002 
2.895557e-002 
1.712850e-002 
3.735325e-003 
-1.135408e-002 
-3.326359e-002 
-6.065208e-002 
-8.375501e-002 
-1.052429e-001 
-1.439976e-001 
-1.932661e-001 
-2.341494e-001 
-2.678559e-001 
-3.021891e-001 
-3.346777e-001 
-3.596667e-001 
-3.808423e-001 
-4.073047e-001 
-4.349712e-001 
-4.500990e-001 
-4.558514e-001 
-4.591272e-001 
-4.627357e-001 
-4.656382e-001 
-4.678748e-001 
-4.749549e-001 
-4.840880e-001 
-4.865778e-001 
-4.819979e-001 
-4.783695e-001 
-4.728232e-001 
-4.633219e-001 
-4.532127e-001 
-4.465798e-001 
-4.470256e-001 
-4.488769e-001 
-4.478668e-001 
-4.529669e-001 
-4.692555e-001 
-4.825617e-001 
-4.914415e-001 
-5.062718e-001 
-5.266633e-001 
-5.492256e-001 
-5.713293e-001 
-6.013027e-001 
-6.273366e-001 
-6.074681e-001 
-5.219482e-001 
-4.157870e-001 
-3.652238e-001 
-4.147058e-001 
-4.865690e-001 
-5.219766e-001 
-5.390426e-001 
-5.128418e-001 
-4.327818e-001 
-3.569117e-001 
-3.638977e-001 
-4.903771e-001 
-6.274552e-001 
-6.351378e-001 
-5.921946e-001 
-5.772966e-001 
-5.752428e-001 
-6.048207e-001 
-6.904415e-001 
-8.138475e-001 
-9.165826e-001 
-9.203850e-001 
-8.569791e-001 
-8.143496e-001 
-7.935992e-001 
-7.729022e-001 
-7.451183e-001 
-7.146014e-001 
-6.852622e-001 
-6.542735e-001 
-6.186981e-001 
-5.800515e-001 
-5.452139e-001 
-5.195341e-001 
-4.940827e-001 
-4.740422e-001 
-4.606137e-001 
-4.486512e-001 
-4.434427e-001 
-4.429752e-001 
-4.463399e-001 
-4.577963e-001 
-4.715888e-001 
-4.897020e-001 
-5.153393e-001 
-5.377324e-001 
-5.607782e-001 
-5.872345e-001 
-6.101718e-001 
-6.331783e-001 
-6.532268e-001 
-6.685789e-001 
-6.858723e-001 
-6.965976e-001 
-6.984460e-001 
-6.984626e-001 
-6.973682e-001 
-6.941331e-001 
-6.883354e-001 
-6.792039e-001 
-6.718188e-001 
-6.657309e-001 
-6.541914e-001 
-6.368840e-001 
-6.186539e-001 
-6.042008e-001 
-5.833774e-001 
-5.563563e-001 
-5.354555e-001 
-5.211100e-001 
-5.073202e-001 
-4.941821e-001 
-4.835518e-001 
-4.837765e-001 
-4.872673e-001 
-4.817176e-001 
-4.846373e-001 
-5.001603e-001 
-5.131584e-001 
-5.235734e-001 
-5.404139e-001 
-5.660549e-001 
-5.807128e-001 
-5.426774e-001 
-4.478763e-001 
-3.439652e-001 
-2.926337e-001 
-3.315931e-001 
-3.875297e-001 
-4.130410e-001 
-4.198446e-001 
-3.825283e-001 
-2.957372e-001 
-2.202739e-001 
-2.319043e-001 
-3.553462e-001 
-4.755393e-001 
-4.683831e-001 
-4.274373e-001 
-4.163352e-001 
-4.146121e-001 
-4.479438e-001 
-5.414972e-001 
-6.684095e-001 
-7.620302e-001 
-7.574027e-001 
-6.997424e-001 
-6.704736e-001 
-6.512404e-001 
-6.271139e-001 
-6.042187e-001 
-5.779365e-001 
-5.467708e-001 
-5.173679e-001 
-4.910593e-001 
-4.661897e-001 
-4.426921e-001 
-4.215105e-001 
-4.067348e-001 
-3.970524e-001 
-3.897687e-001 
-3.900156e-001 
-3.983018e-001 
-4.113908e-001 
-4.279275e-001 
-4.467532e-001 
-4.697882e-001 
-4.969686e-001 
-5.258566e-001 
-5.567373e-001 
-5.893077e-001 
-6.203657e-001 
-6.497297e-001 
-6.748890e-001 
-6.990050e-001 
-7.238918e-001 
-7.444376e-001 
-7.586778e-001 
-7.707728e-001 
-7.826388e-001 
-7.924557e-001 
-7.990220e-001 
-8.048698e-001 
-8.147379e-001 
-8.216266e-001 
-8.241004e-001 
-8.221706e-001 
-8.218777e-001 
-8.220433e-001 
-8.162275e-001 
-8.059444e-001 
-8.008459e-001 
-7.992846e-001 
-7.967703e-001 
-7.976546e-001 
-8.016480e-001 
-8.126924e-001 
-8.253397e-001 
-8.337061e-001 
-8.446565e-001 
-8.650074e-001 
-8.831532e-001 
-9.027110e-001 
-9.335129e-001 
-9.646614e-001 
-9.630977e-001 
-8.948607e-001 
-7.822501e-001 
-7.048634e-001 
-7.309527e-001 
-8.002142e-001 
-8.423828e-001 
-8.646238e-001 
-8.535816e-001 
-7.820393e-001 
-6.852517e-001 
-6.562811e-001 
-7.587311e-001 
-9.073827e-001 
-9.371056e-001 
-8.891548e-001 
-8.625517e-001 
-8.507058e-001 
-8.560738e-001 
-9.194171e-001 
-1.039866e+000 
-1.152588e+000 
-1.173454e+000 
-1.111249e+000 
-1.063697e+000 
-1.039968e+000 
-1.011273e+000 
-9.812226e-001 
-9.523488e-001 
-9.179046e-001 
-8.825946e-001 
-8.469111e-001 
-8.141404e-001 
-7.849433e-001 
-7.496108e-001 
-7.201975e-001 
-7.025189e-001 
-6.844756e-001 
-6.713001e-001 
-6.651385e-001 
-6.609965e-001 
-6.639751e-001 
-6.679966e-001 
-6.754686e-001 
-6.919876e-001 
-7.083661e-001 
-7.243388e-001 
-7.439920e-001 
-7.618310e-001 
-7.793542e-001 
-7.960237e-001 
-8.097890e-001 
-8.219942e-001 
-8.299087e-001 
-8.345081e-001 
-8.356175e-001 
-8.334729e-001 
-8.291289e-001 
-8.217271e-001 
-8.123505e-001 
-8.034629e-001 
-7.939922e-001 
-7.848711e-001 
-7.730523e-001 
-7.551513e-001 
-7.395406e-001 
-7.202778e-001 
-6.953628e-001 
-6.752442e-001 
-6.567866e-001 
-6.400119e-001 
-6.261365e-001 
-6.111140e-001 
-6.030994e-001 
-6.043913e-001 
-5.998063e-001 
-5.981824e-001 
-6.036682e-001 
-6.067763e-001 
-6.111832e-001 
-6.203651e-001 
-6.379108e-001 
-6.474907e-001 
-6.045720e-001 
-4.960483e-001 
-3.778489e-001 
-3.269254e-001 
-3.690740e-001 
-4.285497e-001 
-4.562775e-001 
-4.591665e-001 
-4.131234e-001 
-3.139024e-001 
-2.265977e-001 
-2.417528e-001 
-3.726286e-001 
-4.849281e-001 
-4.694754e-001 
-4.128706e-001 
-3.830143e-001 
-3.710525e-001 
-3.972593e-001 
-4.839713e-001 
-6.064777e-001 
-6.871910e-001 
-6.613601e-001 
-5.836538e-001 
-5.380680e-001 
-5.115957e-001 
-4.845307e-001 
-4.530072e-001 
-4.160487e-001 
-3.787234e-001 
-3.421650e-001 
-3.063582e-001 
-2.740112e-001 
-2.405634e-001 
-2.088689e-001 
-1.840928e-001 
-1.604857e-001 
-1.405768e-001 
-1.292770e-001 
-1.263606e-001 
-1.280333e-001 
-1.287396e-001 
-1.326219e-001 
-1.489784e-001 
-1.666734e-001 
-1.813842e-001 
-2.017194e-001 
-2.256147e-001 
-2.461894e-001 
-2.617738e-001 
-2.728739e-001 
-2.880731e-001 
-3.021439e-001 
-3.074000e-001 
-3.111793e-001 
-3.162323e-001 
-3.129166e-001 
-3.033312e-001 
-2.930445e-001 
-2.841090e-001 
-2.756847e-001 
-2.609701e-001 
-2.431868e-001 
-2.271731e-001 
-2.072143e-001 
-1.792425e-001 
-1.569809e-001 
-1.416344e-001 
-1.312903e-001 
-1.184968e-001 
-1.072561e-001 
-1.058381e-001 
-1.091267e-001 
-1.067298e-001 
-1.066810e-001 
-1.136174e-001 
-1.213319e-001 
-1.288599e-001 
-1.389482e-001 
-1.632277e-001 
-1.813738e-001 
-1.519025e-001 
-6.080804e-002 
5.268622e-002 
1.136352e-001 
7.654030e-002 
2.216289e-002 
-3.988926e-003 
-1.329816e-002 
2.355028e-002 
1.094506e-001 
1.954788e-001 
1.974320e-001 
7.444561e-002 
-4.789021e-002 
-4.287889e-002 
2.277733e-004 
2.622254e-002 
3.648535e-002 
9.462521e-003 
-6.811247e-002 
-1.854769e-001 
-2.764115e-001 
-2.661190e-001 
-2.023748e-001 
-1.643050e-001 
-1.436476e-001 
-1.324416e-001 
-1.098918e-001 
-7.513725e-002 
-4.038630e-002 
-6.335489e-003 
2.652512e-002 
5.491738e-002 
8.079840e-002 
1.014689e-001 
1.214825e-001 
1.475751e-001 
1.665061e-001 
1.752287e-001 
1.784527e-001 
1.764835e-001 
1.705968e-001 
1.621563e-001 
1.511270e-001 
1.407706e-001 
1.260345e-001 
1.048583e-001 
8.573841e-002 
6.713984e-002 
4.777043e-002 
3.147013e-002 
1.743278e-002 
7.043471e-003 
-1.860973e-003 
-9.831120e-003 
-1.121857e-002 
-7.766470e-003 
-4.520854e-003 
-6.336118e-004 
6.699831e-003 
1.694334e-002 
3.400935e-002 
5.361546e-002 
7.440135e-002 
1.009098e-001 
1.283889e-001 
1.485064e-001 
1.609735e-001 
1.708021e-001 
1.792963e-001 
1.861354e-001 
1.845178e-001 
1.805214e-001 
1.806599e-001 
1.739637e-001 
1.558155e-001 
1.369060e-001 
1.173320e-001 
8.686964e-002 
6.413264e-002 
8.559682e-002 
1.740239e-001 
2.917786e-001 
3.553066e-001 
3.098785e-001 
2.410157e-001 
2.058815e-001 
1.881288e-001 
2.172022e-001 
3.024727e-001 
3.905485e-001 
3.943919e-001 
2.678605e-001 
1.227829e-001 
1.185478e-001 
1.667421e-001 
1.877556e-001 
1.966774e-001 
1.727739e-001 
8.547323e-002 
-4.736022e-002 
-1.575827e-001 
-1.642173e-001 
-9.914574e-002 
-6.097051e-002 
-4.126506e-002 
-2.131878e-002 
2.536339e-003 
3.050899e-002 
6.327296e-002 
9.549046e-002 
1.250681e-001 
1.531086e-001 
1.789718e-001 
2.034789e-001 
2.268951e-001 
2.482922e-001 
2.682328e-001 
2.809439e-001 
2.836350e-001 
2.822245e-001 
2.767475e-001 
2.661878e-001 
2.537698e-001 
2.366601e-001 
2.148589e-001 
1.907114e-001 
1.634132e-001 
1.378906e-001 
1.168139e-001 
9.643408e-002 
7.841027e-002 
6.502271e-002 
5.269659e-002 
3.970952e-002 
2.949481e-002 
2.546564e-002 
2.364006e-002 
2.476156e-002 
3.019057e-002 
3.800959e-002 
4.959870e-002 
6.182981e-002 
7.082520e-002 
8.701381e-002 
1.085394e-001 
1.265125e-001 
1.447423e-001 
1.578635e-001 
1.653564e-001 
1.725403e-001 
1.721536e-001 
1.661410e-001 
1.658766e-001 
1.639911e-001 
1.551128e-001 
1.411438e-001 
1.245576e-001 
1.093620e-001 
8.199142e-002 
5.785508e-002 
8.501818e-002 
1.796734e-001 
2.902225e-001 
3.274509e-001 
2.682332e-001 
2.089766e-001 
1.819361e-001 
1.631383e-001 
1.928760e-001 
2.826253e-001 
3.668717e-001 
3.454060e-001 
2.033896e-001 
9.029500e-002 
1.104063e-001 
1.537967e-001 
1.695207e-001 
1.788812e-001 
1.553699e-001 
6.761532e-002 
-5.928515e-002 
-1.427992e-001 
-1.241957e-001 
-6.085704e-002 
-2.946009e-002 
-1.310112e-002 
3.998104e-003 
2.578849e-002 
4.901097e-002 
7.483195e-002 
9.950367e-002 
1.244975e-001 
1.499599e-001 
1.722474e-001 
1.910095e-001 
2.076684e-001 
2.239350e-001 
2.346364e-001 
2.374679e-001 
2.365466e-001 
2.335622e-001 
2.236547e-001 
2.104978e-001 
1.966910e-001 
1.823267e-001 
1.655114e-001 
1.424456e-001 
1.191083e-001 
1.006478e-001 
7.965855e-002 
5.733726e-002 
4.304509e-002 
3.349769e-002 
2.582038e-002 
1.983073e-002 
1.365247e-002 
1.173603e-002 
1.298339e-002 
1.297762e-002 
1.784071e-002 
2.828278e-002 
4.049907e-002 
5.725698e-002 
7.116391e-002 
8.427612e-002 
1.058952e-001 
1.277243e-001 
1.447811e-001 
1.588961e-001 
1.706688e-001 
1.791374e-001 
1.789208e-001 
1.700299e-001 
1.670775e-001 
1.658019e-001 
1.550230e-001 
1.398875e-001 
1.248527e-001 
1.076449e-001 
7.751997e-002 
5.788888e-002 
9.086267e-002 
1.874397e-001 
2.979577e-001 
3.414282e-001 
2.877503e-001 
2.265633e-001 
1.972396e-001 
1.826960e-001 
2.194711e-001 
3.078122e-001 
3.874805e-001 
3.686751e-001 
2.298243e-001 
1.098943e-001 
1.244628e-001 
1.658718e-001 
1.773919e-001 
1.805198e-001 
1.490232e-001 
5.489556e-002 
-7.891348e-002 
-1.717114e-001 
-1.611407e-001 
-1.018515e-001 
-7.397442e-002 
-5.744914e-002 
-3.494024e-002 
-1.020983e-002 
1.490735e-002 
4.276738e-002 
7.096092e-002 
9.630118e-002 
1.234842e-001 
1.514525e-001 
1.772468e-001 
1.977126e-001 
2.139094e-001 
2.268409e-001 
2.335446e-001 
2.358874e-001 
2.357896e-001 
2.340519e-001 
2.268859e-001 
2.118993e-001 
1.933531e-001 
1.759885e-001 
1.556447e-001 
1.333563e-001 
1.132285e-001 
9.485420e-002 
7.780716e-002 
5.993165e-002 
4.430750e-002 
3.551399e-002 
2.827418e-002 
1.988303e-002 
1.544765e-002 
1.485939e-002 
1.698111e-002 
2.104543e-002 
2.513252e-002 
3.055529e-002 
3.723573e-002 
4.668496e-002 
6.019228e-002 
7.624793e-002 
9.715866e-002 
1.173981e-001 
1.312229e-001 
1.396059e-001 
1.454597e-001 
1.505753e-001 
1.533617e-001 
1.488507e-001 
1.457446e-001 
1.435806e-001 
1.303755e-001 
1.137157e-001 
9.880369e-002 
7.674339e-002 
4.824097e-002 
4.266091e-002 
9.515254e-002 
2.034596e-001 
2.985723e-001 
3.033408e-001 
2.371947e-001 
1.854964e-001 
1.585651e-001 
1.567735e-001 
2.122698e-001 
3.058624e-001 
3.611055e-001 
2.973153e-001 
1.461119e-001 
7.023682e-002 
1.078515e-001 
1.424562e-001 
1.538399e-001 
1.495069e-001 
9.929831e-002 
-9.490353e-003 
-1.361669e-001 
-1.955615e-001 
-1.554100e-001 
-9.786566e-002 
-7.571150e-002 
-6.197484e-002 
-3.704152e-002 
-7.768731e-003 
1.328109e-002 
3.611942e-002 
6.254301e-002 
8.909314e-002 
1.144708e-001 
1.348274e-001 
1.592852e-001 
1.833877e-001 
1.897168e-001 
1.944668e-001 
2.058455e-001 
2.084247e-001 
2.040424e-001 
1.992187e-001 
1.904747e-001 
1.757095e-001 
1.514448e-001 
1.319972e-001 
1.199964e-001 
1.029793e-001 
8.237489e-002 
6.793199e-002 
5.494804e-002 
3.881285e-002 
2.497190e-002 
2.086869e-002 
1.732375e-002 
7.395534e-003 
1.106786e-003 
-1.651067e-003 
-4.261665e-003 
-7.180007e-003 
-7.861514e-003 
-3.987992e-003 
-1.893837e-003 
-6.574343e-003 
-5.829053e-003 
2.606413e-004 
6.863528e-003 
1.252138e-002 
2.331573e-002 
3.883636e-002 
5.183360e-002 
5.909433e-002 
6.599627e-002 
7.553800e-002 
8.733957e-002 
8.949010e-002 
8.096295e-002 
7.887604e-002 
7.649991e-002 
6.469756e-002 
5.246994e-002 
3.903083e-002 
2.010989e-002 
-7.167418e-003 
-2.142884e-002 
3.145796e-002 
1.478040e-001 
2.503913e-001 
2.693102e-001 
2.229103e-001 
1.675993e-001 
1.295940e-001 
1.219038e-001 
1.779396e-001 
2.791493e-001 
3.380698e-001 
2.772260e-001 
1.412397e-001 
6.214094e-002 
6.924969e-002 
1.034397e-001 
1.297734e-001 
1.326111e-001 
7.901866e-002 
-3.976058e-002 
-1.741692e-001 
-2.379639e-001 
-2.111302e-001 
-1.603724e-001 
-1.187169e-001 
-6.587684e-002 
-4.442676e-002 
-4.808263e-002 
-3.313000e-002 
-5.105794e-003 
2.923235e-002 
5.894105e-002 
7.790241e-002 
1.225537e-001 
1.610311e-001 
1.413900e-001 
1.465889e-001 
1.706376e-001 
1.746958e-001 
1.708407e-001 
1.603891e-001 
1.483428e-001 
1.449393e-001 
1.285293e-001 
1.009120e-001 
1.178611e-001 
1.180638e-001 
8.943303e-002 
6.838188e-002 
3.967269e-002 
9.110734e-003 
-6.946200e-004 
5.296783e-003 
2.095978e-002 
4.878046e-002 
5.257776e-002 
5.016055e-002 
3.191414e-002 
6.771528e-003 
1.237398e-002 
4.878563e-002 
8.883955e-002 
8.212563e-002 
5.945415e-002 
5.517663e-002 
3.071332e-002 
3.684305e-004 
3.678375e-002 
1.177532e-001 
1.397372e-001 
1.137818e-001 
7.317219e-002 
6.261042e-002 
7.277996e-002 
4.819342e-002 
3.859555e-002 
9.925274e-002 
9.762860e-002 
-3.830018e-003 
-3.217376e-002 
-3.232172e-002 
-4.091373e-002 
-5.825130e-002 
-1.130462e-001 
-1.408161e-001 
-1.423738e-001 
-1.573703e-001 
-6.774563e-002 
6.720437e-002 
5.921688e-002 
2.293202e-004 
-3.800684e-002 
-6.158030e-002 
-5.585055e-002 
-1.412282e-002 
7.564366e-002 
1.463459e-001 
7.410219e-002 
-5.496438e-002 
-6.547789e-002 
-1.982172e-002 
2.043770e-003 
1.322028e-002 
9.143011e-003 
-4.241542e-002 
-1.511220e-001 
-2.620328e-001 
-2.842849e-001 
-2.368486e-001 
-2.040118e-001 
-1.850697e-001 
-1.644509e-001 
-1.389271e-001 
-1.128401e-001 
-8.438750e-002 
-5.702811e-002 
-3.207115e-002 
-6.105503e-003 
2.049480e-002 
4.694155e-002 
7.327822e-002 
1.005038e-001 
1.239100e-001 
1.388236e-001 
1.468470e-001 
1.570152e-001 
1.586043e-001 
1.526030e-001 
1.472507e-001 
1.395522e-001 
1.261627e-001 
1.080522e-001 
8.630867e-002 
7.140930e-002 
5.925784e-002 
4.266110e-002 
3.046006e-002 
2.004023e-002 
9.528058e-003 
4.128199e-003 
7.849802e-003 
1.133853e-002 
9.767227e-003 
6.883877e-003 
8.210156e-003 
8.914941e-003 
1.200782e-002 
1.949122e-002 
2.981172e-002 
3.585808e-002 
2.643460e-002 
1.855489e-002 
2.601334e-002 
3.695041e-002 
3.938959e-002 
4.715025e-002 
5.940657e-002 
6.746764e-002 
6.781340e-002 
7.100351e-002 
8.282076e-002 
9.052246e-002 
8.406846e-002 
7.005300e-002 
6.906683e-002 
6.740069e-002 
5.623297e-002 
4.461026e-002 
3.536835e-002 
8.385825e-003 
-1.796144e-002 
-1.830138e-003 
9.124605e-002 
2.143635e-001 
2.744202e-001 
2.377689e-001 
1.673224e-001 
1.241948e-001 
1.029071e-001 
1.255779e-001 
2.094290e-001 
3.008548e-001 
2.924033e-001 
1.708987e-001 
4.068353e-002 
2.306973e-002 
7.131239e-002 
9.972590e-002 
1.062525e-001 
8.249631e-002 
-6.393179e-003 
-1.339362e-001 
-2.260579e-001 
-2.330045e-001 
-1.748995e-001 
-1.323186e-001 
-1.138336e-001 
-9.433565e-002 
-7.195235e-002 
-4.656695e-002 
-1.274280e-002 
1.201508e-002 
3.348229e-002 
5.861383e-002 
8.329343e-002 
1.103155e-001 
1.340006e-001 
1.491523e-001 
1.621115e-001 
1.704143e-001 
1.728981e-001 
1.757527e-001 
1.734203e-001 
1.701664e-001 
1.646774e-001 
1.514416e-001 
1.413943e-001 
1.198352e-001 
8.979532e-002 
6.826824e-002 
4.871842e-002 
3.395024e-002 
2.221829e-002 
1.019049e-002 
3.297545e-003 
-5.828968e-003 
-3.119992e-002 
-3.925609e-002 
-3.141383e-002 
-2.579132e-002 
-2.110725e-002 
-2.004222e-002 
-1.915906e-002 
-2.015953e-002 
-2.609713e-002 
-2.925612e-002 
-1.692670e-002 
-3.621917e-003 
7.327764e-003 
1.175028e-002 
1.620913e-002 
2.888080e-002 
4.383465e-002 
5.263773e-002 
5.732676e-002 
6.488760e-002 
6.867050e-002 
6.413253e-002 
5.443701e-002 
5.453400e-002 
5.715290e-002 
4.811950e-002 
2.934175e-002 
1.686995e-002 
5.731349e-004 
-2.422484e-002 
-2.547808e-002 
3.081160e-002 
1.378709e-001 
2.258914e-001 
2.192834e-001 
1.515282e-001 
1.088124e-001 
8.803682e-002 
8.897389e-002 
1.398644e-001 
2.240206e-001 
2.715456e-001 
2.000114e-001 
5.124787e-002 
-1.165744e-002 
2.564893e-002 
5.469504e-002 
5.839783e-002 
4.794195e-002 
-1.170479e-003 
-1.045397e-001 
-2.252579e-001 
-2.752637e-001 
-2.333944e-001 
-1.823175e-001 
-1.622578e-001 
-1.491196e-001 
-1.266925e-001 
-9.924956e-002 
-7.454454e-002 
-5.101271e-002 
-2.611865e-002 
-8.560948e-005 
2.696330e-002 
5.265402e-002 
7.673957e-002 
9.976096e-002 
1.171655e-001 
1.294497e-001 
1.369568e-001 
1.403800e-001 
1.411452e-001 
1.380860e-001 
1.294698e-001 
1.177435e-001 
1.025399e-001 
8.633379e-002 
6.869234e-002 
4.860654e-002 
3.102056e-002 
1.543374e-002 
1.400103e-004 
-1.299346e-002 
-2.402485e-002 
-3.183570e-002 
-3.526355e-002 
-4.161990e-002 
-4.509519e-002 
-4.323600e-002 
-4.047638e-002 
-3.583879e-002 
-2.974917e-002 
-2.489788e-002 
-1.892002e-002 
-1.735480e-002 
-1.967960e-002 
-1.599197e-002 
-1.197625e-002 
-6.706795e-003 
1.449432e-003 
7.528569e-003 
1.571866e-002 
2.838610e-002 
3.906861e-002 
5.017661e-002 
6.128423e-002 
7.043357e-002 
7.797157e-002 
7.704166e-002 
7.370543e-002 
7.592573e-002 
7.484007e-002 
6.685270e-002 
5.686747e-002 
4.504128e-002 
2.428660e-002 
5.282775e-003 
1.972559e-002 
8.932970e-002 
1.945045e-001 
2.681462e-001 
2.488472e-001 
1.796740e-001 
1.310824e-001 
1.073548e-001 
1.223922e-001 
1.813068e-001 
2.526175e-001 
2.729792e-001 
1.792019e-001 
3.427462e-002 
-1.136648e-002 
2.553613e-002 
5.343958e-002 
6.053607e-002 
3.844745e-002 
-2.925760e-002 
-1.398697e-001 
-2.455312e-001 
-2.706572e-001 
-2.168076e-001 
-1.649825e-001 
-1.388757e-001 
-1.180727e-001 
-9.406765e-002 
-6.620609e-002 
-3.591975e-002 
-5.581750e-003 
2.070711e-002 
4.548128e-002 
7.239232e-002 
9.981151e-002 
1.264350e-001 
1.506923e-001 
1.688486e-001 
1.802746e-001 
1.866326e-001 
1.872451e-001 
1.857134e-001 
1.837484e-001 
1.792854e-001 
1.702002e-001 
1.532999e-001 
1.310709e-001 
1.100845e-001 
8.940844e-002 
6.881007e-002 
5.219799e-002 
3.970219e-002 
2.987186e-002 
1.949607e-002 
5.034097e-003 
-5.786286e-003 
-1.123456e-002 
-1.186836e-002 
-7.402239e-003 
4.057451e-004 
1.184830e-002 
2.312822e-002 
2.793686e-002 
3.082720e-002 
3.962249e-002 
5.004234e-002 
5.854784e-002 
6.638557e-002 
7.843210e-002 
8.581081e-002 
8.712699e-002 
9.145784e-002 
9.803167e-002 
9.948047e-002 
9.021997e-002 
7.762922e-002 
6.642801e-002 
4.158684e-002 
2.649232e-003 
-2.875903e-002 
-5.741922e-002 
-9.607896e-002 
-1.399860e-001 
-1.814131e-001 
-2.213498e-001 
-2.689563e-001 
-3.009731e-001 
-2.714310e-001 
-1.775475e-001 
-7.635327e-002 
-4.609988e-002 
-9.811766e-002 
-1.485032e-001 
-1.667827e-001 
-1.574465e-001 
-9.361254e-002 
1.342540e-002 
9.930939e-002 
9.858302e-002 
-8.848549e-003 
-9.311972e-002 
-6.091337e-002 
-6.845113e-003 
2.500348e-002 
3.590390e-002 
3.365872e-003 
-7.542552e-002 
-1.837094e-001 
-2.639179e-001 
-2.495369e-001 
-1.991926e-001 
-1.708845e-001 
-1.552333e-001 
-1.396009e-001 
-1.078329e-001 
-8.452678e-002 
-7.435482e-002 
-4.988379e-002 
-3.765093e-002 
-1.402308e-002 
2.959207e-002 
4.677938e-002 
6.313640e-002 
8.421035e-002 
8.489553e-002 
9.395813e-002 
9.779747e-002 
8.868255e-002 
1.082152e-001 
9.748170e-002 
6.301005e-002 
5.426737e-002 
4.242775e-002 
1.976973e-002 
4.312876e-003 
-1.546370e-002 
-3.353890e-002 
-5.208901e-002 
-8.605650e-002 
-1.021663e-001 
-1.051370e-001 
-1.128747e-001 
-1.172491e-001 
-1.162901e-001 
-1.181794e-001 
-1.189898e-001 
-1.154049e-001 
-1.134790e-001 
-1.099867e-001 
-1.047820e-001 
-9.845831e-002 
-9.234477e-002 
-8.838230e-002 
-9.128562e-002 
-9.296077e-002 
-8.862883e-002 
-8.197102e-002 
-7.394620e-002 
-6.146874e-002 
-4.443512e-002 
-2.853523e-002 
-1.897510e-002 
-1.441140e-002 
-5.357994e-003 
3.456726e-003 
4.676749e-003 
3.678403e-003 
1.148634e-002 
1.653275e-002 
9.694878e-003 
-2.283272e-003 
-1.044203e-002 
-2.695311e-002 
-5.138912e-002 
-4.931342e-002 
8.560178e-003 
1.168897e-001 
2.069270e-001 
2.046387e-001 
1.411867e-001 
9.220647e-002 
6.162993e-002 
6.507071e-002 
1.198190e-001 
2.009093e-001 
2.492546e-001 
1.770798e-001 
2.223937e-002 
-4.795821e-002 
-1.823134e-002 
1.239997e-002 
2.499881e-002 
2.092968e-002 
-2.500809e-002 
-1.274926e-001 
-2.537334e-001 
-3.135354e-001 
-2.813430e-001 
-2.364548e-001 
-2.137785e-001 
-1.935977e-001 
-1.678831e-001 
-1.484560e-001 
-1.298529e-001 
-1.098916e-001 
-9.019956e-002 
-6.349639e-002 
-1.337651e-002 
3.550673e-002 
8.318854e-002 
1.047662e-001 
9.721496e-002 
9.628230e-002 
9.832118e-002 
1.047505e-001 
1.268908e-001 
1.463638e-001 
1.446482e-001 
1.320542e-001 
7.586567e-002 
3.769891e-002 
3.386902e-002 
2.645429e-002 
1.190516e-002 
-4.837761e-003 
-2.991083e-002 
-6.901325e-002 
-1.174164e-001 
-1.479945e-001 
-1.365633e-001 
-1.193732e-001 
-1.176560e-001 
-1.204701e-001 
-1.155765e-001 
-1.147600e-001 
-1.289707e-001 
-1.228600e-001 
-1.033179e-001 
-9.473610e-002 
-9.272257e-002 
-9.949078e-002 
-9.986744e-002 
-9.923683e-002 
-1.021203e-001 
-9.726067e-002 
-7.845566e-002 
-6.903665e-002 
-5.964359e-002 
-4.718567e-002 
-3.762785e-002 
-2.716430e-002 
-2.226179e-002 
-1.621153e-002 
-1.283870e-002 
-1.819306e-002 
-2.182269e-002 
-1.709263e-002 
-2.125196e-002 
-3.208226e-002 
-4.464554e-002 
-6.017144e-002 
-7.786200e-002 
-7.056785e-002 
-9.959851e-003 
1.006002e-001 
1.899873e-001 
1.792152e-001 
1.145402e-001 
7.256325e-002 
5.121240e-002 
5.298407e-002 
1.103208e-001 
1.949921e-001 
2.384700e-001 
1.617662e-001 
1.988567e-002 
-2.430513e-002 
1.591515e-002 
4.028006e-002 
4.787567e-002 
4.025165e-002 
-1.481814e-002 
-1.213162e-001 
-2.378465e-001 
-2.744554e-001 
-2.239483e-001 
-1.770115e-001 
-1.549693e-001 
-1.357737e-001 
-1.137080e-001 
-9.010412e-002 
-6.674337e-002 
-3.971479e-002 
-9.440406e-003 
1.878635e-002 
4.534199e-002 
7.116945e-002 
9.346427e-002 
1.171824e-001 
1.367219e-001 
1.518942e-001 
1.668015e-001 
1.732777e-001 
1.713291e-001 
1.656429e-001 
1.558891e-001 
1.451048e-001 
1.317677e-001 
1.131271e-001 
9.754343e-002 
8.075387e-002 
5.825105e-002 
4.018643e-002 
2.624185e-002 
1.158147e-002 
-3.574893e-003 
-1.708630e-002 
-2.446480e-002 
-2.684383e-002 
-2.931958e-002 
-3.341259e-002 
-3.419166e-002 
-3.260125e-002 
-3.245909e-002 
-3.138667e-002 
-2.931981e-002 
-2.742169e-002 
-2.333246e-002 
-2.332333e-002 
-2.904532e-002 
-2.831934e-002 
-2.271889e-002 
-1.748390e-002 
-1.030581e-002 
-1.934680e-003 
1.073006e-002 
2.934214e-002 
3.981388e-002 
5.084354e-002 
6.300439e-002 
6.310782e-002 
5.558919e-002 
4.809867e-002 
4.100561e-002 
3.761874e-002 
3.190237e-002 
1.799053e-002 
5.359534e-003 
-2.243145e-002 
-5.481665e-002 
-5.568830e-002 
3.422955e-003 
1.102241e-001 
1.982351e-001 
1.890369e-001 
1.135459e-001 
5.694305e-002 
3.945195e-002 
4.408641e-002 
8.898279e-002 
1.760490e-001 
2.197745e-001 
1.393701e-001 
-1.083924e-002 
-7.295612e-002 
-2.404650e-002 
1.880899e-002 
5.166221e-003 
-1.945412e-002 
-6.850339e-002 
-1.833615e-001 
-3.103287e-001 
-3.540202e-001 
-3.063664e-001 
-2.491419e-001 
-2.324763e-001 
-2.305192e-001 
-2.095772e-001 
-1.783340e-001 
-1.560785e-001 
-1.202721e-001 
-8.599148e-002 
-6.675773e-002 
-5.038105e-002 
-3.237583e-002 
-1.780378e-002 
2.299306e-003 
2.786477e-002 
5.163956e-002 
7.271004e-002 
7.127956e-002 
6.644196e-002 
6.648521e-002 
8.118291e-002 
8.243944e-002 
6.140630e-002 
4.953827e-002 
2.577955e-002 
-8.565405e-003 
-3.244298e-002 
-4.893981e-002 
-5.063556e-002 
-4.553481e-002 
-8.321865e-002 
-1.099294e-001 
-1.068928e-001 
-1.251364e-001 
-1.312064e-001 
-1.264242e-001 
-1.273644e-001 
-1.255537e-001 
-1.345618e-001 
-1.502062e-001 
-1.355798e-001 
-1.236096e-001 
-1.216973e-001 
-1.100108e-001 
-1.046964e-001 
-1.031736e-001 
-1.002178e-001 
-8.949662e-002 
-7.725452e-002 
-7.036600e-002 
-5.983542e-002 
-3.851280e-002 
-3.059695e-002 
-3.275419e-002 
-2.917047e-002 
-1.997803e-002 
-1.183265e-002 
-2.146636e-002 
-3.399514e-002 
-2.523164e-002 
-2.666808e-002 
-5.624506e-002 
-6.992952e-002 
-7.211743e-002 
-8.466308e-002 
-1.068509e-001 
-1.105110e-001 
-4.236253e-002 
7.579941e-002 
1.371400e-001 
1.027687e-001 
4.817688e-002 
1.851026e-002 
3.237256e-003 
6.804412e-003 
6.384849e-002 
1.739472e-001 
2.072020e-001 
8.865403e-002 
-4.842365e-002 
-6.505236e-002 
-2.091243e-002 
-1.680590e-003 
2.390257e-003 
3.395263e-003 
-4.033802e-002 
-1.644326e-001 
-2.635085e-001 
-2.643687e-001 
-2.116461e-001 
-1.813223e-001 
-1.695804e-001 
-1.490788e-001 
-1.232601e-001 
-1.011734e-001 
-7.430041e-002 
-4.420891e-002 
-3.438767e-002 
-1.949104e-002 
5.735591e-003 
4.129395e-002 
7.512478e-002 
9.944472e-002 
1.296394e-001 
1.338013e-001 
1.121466e-001 
1.029323e-001 
1.065533e-001 
1.150879e-001 
1.200765e-001 
1.077556e-001 
1.002032e-001 
8.539963e-002 
3.303478e-002 
5.922972e-003 
1.377148e-003 
-9.515125e-003 
-2.014924e-002 
-3.665518e-002 
-5.387250e-002 
-6.381052e-002 
-8.185117e-002 
-9.148212e-002 
-7.434221e-002 
-6.153868e-002 
-5.106271e-002 
-4.125707e-002 
-3.898056e-002 
-3.797847e-002 
-3.461142e-002 
-2.759727e-002 
-2.062297e-002 
-1.850599e-002 
-9.999998e-003 
-2.859525e-003 
-8.631561e-003 
-1.690751e-002 
-1.545668e-002 
-4.740298e-003 
1.229707e-002 
2.554122e-002 
3.662628e-002 
4.763198e-002 
4.456599e-002 
4.086515e-002 
4.220337e-002 
4.399385e-002 
4.651024e-002 
4.850133e-002 
4.178182e-002 
2.761610e-002 
1.007074e-002 
-6.502809e-003 
-2.857453e-002 
-4.410757e-002 
-1.258868e-002 
7.984354e-002 
1.827143e-001 
2.044227e-001 
1.413311e-001 
9.023031e-002 
6.790724e-002 
5.254316e-002 
8.256065e-002 
1.668733e-001 
2.450864e-001 
2.165698e-001 
9.099402e-002 
4.915812e-003 
1.958031e-002 
4.472680e-002 
4.914366e-002 
5.102752e-002 
2.830695e-002 
-5.375549e-002 
-1.597555e-001 
-2.177415e-001 
-2.156022e-001 
-1.773206e-001 
-1.458702e-001 
-1.262971e-001 
-1.043145e-001 
-7.624247e-002 
-5.321109e-002 
-2.937057e-002 
-1.849663e-002 
-7.562554e-003 
2.911725e-002 
6.471880e-002 
9.134074e-002 
1.178714e-001 
1.387731e-001 
1.502737e-001 
1.588764e-001 
1.644054e-001 
1.699187e-001 
1.708603e-001 
1.627815e-001 
1.540225e-001 
1.465029e-001 
1.328699e-001 
1.144152e-001 
9.530576e-002 
7.602185e-002 
5.823456e-002 
3.972653e-002 
2.250066e-002 
1.176661e-002 
3.835461e-003 
-8.184714e-003 
-1.611965e-002 
-1.912863e-002 
-1.896665e-002 
-1.695691e-002 
-1.430604e-002 
-9.427423e-003 
-9.569445e-004 
6.496419e-003 
1.383441e-002 
2.302399e-002 
2.928483e-002 
3.374050e-002 
3.609360e-002 
3.861527e-002 
4.147786e-002 
4.326538e-002 
4.879828e-002 
5.522880e-002 
5.589899e-002 
5.756693e-002 
6.729306e-002 
8.212238e-002 
9.465102e-002 
1.004285e-001 
1.059836e-001 
1.093730e-001 
9.878138e-002 
8.538044e-002 
8.196810e-002 
8.382988e-002 
8.314610e-002 
7.395600e-002 
4.932468e-002 
2.152524e-002 
2.216714e-002 
8.479336e-002 
1.969007e-001 
2.819538e-001 
2.746160e-001 
2.147613e-001 
1.621674e-001 
1.251747e-001 
1.275657e-001 
1.936185e-001 
2.781827e-001 
3.007468e-001 
2.088295e-001 
7.283828e-002 
2.929423e-002 
6.224542e-002 
8.840043e-002 
9.703443e-002 
8.035006e-002 
6.405766e-003 
-1.076000e-001 
-2.147371e-001 
-2.447496e-001 
-2.021314e-001 
-1.668622e-001 
-1.613014e-001 
-1.600787e-001 
-1.490964e-001 
-1.275373e-001 
-9.872277e-002 
-7.551016e-002 
-5.518488e-002 
-3.874785e-002 
-2.273446e-002 
-2.818199e-003 
1.908098e-002 
4.449720e-002 
7.256498e-002 
8.760306e-002 
9.168195e-002 
9.692429e-002 
9.755119e-002 
9.151899e-002 
8.575287e-002 
7.598765e-002 
6.858925e-002 
5.549279e-002 
3.213732e-002 
1.510591e-002 
1.579211e-003 
-1.863956e-002 
-4.321240e-002 
-6.309499e-002 
-7.697512e-002 
-6.550257e-002 
-6.187780e-002 
-7.990776e-002 
-7.600149e-002 
-7.766527e-002 
-9.636762e-002 
-1.014501e-001 
-9.176546e-002 
-6.129955e-002 
-3.283515e-002 
-5.984953e-002 
-7.281931e-002 
-5.140085e-002 
-7.138673e-002 
-7.723060e-002 
-5.575068e-002 
-4.385218e-002 
-4.339760e-002 
-6.362899e-002 
-8.150995e-002 
-6.041831e-002 
-4.947433e-002 
-4.537129e-002 
-1.557646e-002 
2.757884e-003 
7.451526e-003 
6.544344e-003 
1.133287e-002 
2.179660e-002 
2.177859e-002 
1.518601e-002 
1.246549e-002 
4.527951e-003 
-9.278928e-003 
-2.611602e-002 
-3.953457e-002 
-5.344543e-002 
-6.346399e-002 
-3.389649e-002 
5.213813e-002 
1.541495e-001 
1.916088e-001 
1.429179e-001 
8.774259e-002 
6.361479e-002 
5.275857e-002 
8.124320e-002 
1.566773e-001 
2.240752e-001 
2.047173e-001 
7.752310e-002 
-2.718022e-002 
-2.018248e-002 
1.411185e-002 
2.579042e-002 
2.534207e-002 
-8.496763e-003 
-9.354954e-002 
-2.089577e-001 
-2.875469e-001 
-2.730334e-001 
-2.236087e-001 
-1.981943e-001 
-1.833219e-001 
-1.664337e-001 
-1.453898e-001 
-1.200605e-001 
-9.422941e-002 
-6.905193e-002 
-4.829280e-002 
-3.287857e-002 
-8.067593e-003 
2.143359e-002 
4.664443e-002 
6.590188e-002 
8.040030e-002 
8.924508e-002 
9.209582e-002 
8.604820e-002 
8.589317e-002 
9.088516e-002 
8.360469e-002 
7.425540e-002 
5.752941e-002 
3.948515e-002 
2.119935e-002 
-1.555725e-003 
-1.745458e-002 
-2.033698e-002 
-3.291500e-002 
-4.682833e-002 
-5.235648e-002 
-6.511904e-002 
-6.876591e-002 
-7.242817e-002 
-7.183869e-002 
-6.101217e-002 
-5.280137e-002 
-5.389268e-002 
-4.617464e-002 
-3.932820e-002 
-3.660208e-002 
-3.079234e-002 
-2.776805e-002 
-2.013126e-002 
-1.740756e-002 
-2.078386e-002 
-2.228573e-002 
-1.449031e-002 
-1.483272e-002 
-2.246200e-002 
-2.148455e-002 
-1.207698e-002 
2.504999e-003 
1.605996e-002 
2.552898e-002 
3.782119e-002 
4.818899e-002 
3.790026e-002 
2.879595e-002 
3.062454e-002 
3.285955e-002 
3.472208e-002 
2.726049e-002 
1.196169e-002 
-6.977151e-004 
-2.023128e-002 
-5.097302e-002 
-5.286200e-002 
-1.877105e-004 
1.097518e-001 
2.091158e-001 
2.227232e-001 
1.601389e-001 
1.049691e-001 
7.922851e-002 
7.285491e-002 
1.172029e-001 
2.049396e-001 
2.664238e-001 
2.098925e-001 
6.869495e-002 
-1.951575e-002 
6.118084e-003 
4.340330e-002 
6.155527e-002 
6.109946e-002 
1.396892e-002 
-9.147020e-002 
-2.146035e-001 
-2.746315e-001 
-2.459752e-001 
-1.903982e-001 
-1.604439e-001 
-1.368986e-001 
-1.266165e-001 
-1.133536e-001 
-8.802792e-002 
-5.597192e-002 
-3.205804e-002 
-1.286972e-002 
8.191434e-003 
3.072713e-002 
4.643495e-002 
5.637943e-002 
7.329264e-002 
9.314454e-002 
1.042953e-001 
1.037618e-001 
1.021487e-001 
9.689177e-002 
8.850337e-002 
7.783592e-002 
6.283716e-002 
4.779310e-002 
3.182775e-002 
1.140507e-002 
-8.751802e-003 
-2.625019e-002 
-4.105649e-002 
-5.061271e-002 
-5.948134e-002 
-6.996737e-002 
-7.622721e-002 
-8.057296e-002 
-7.901708e-002 
-7.144344e-002 
-6.695814e-002 
-6.518016e-002 
-6.171939e-002 
-6.003404e-002 
-5.753167e-002 
-5.348821e-002 
-4.715483e-002 
-3.616065e-002 
-3.654254e-002 
-4.924202e-002 
-5.555541e-002 
-5.589070e-002 
-5.377624e-002 
-4.775484e-002 
-4.248125e-002 
-3.264939e-002 
-2.136046e-002 
-1.900817e-002 
-1.531343e-002 
-6.220205e-003 
2.610297e-003 
9.776797e-003 
9.318337e-003 
4.245012e-003 
4.019099e-003 
5.468337e-004 
-1.091805e-002 
-2.312610e-002 
-3.305157e-002 
-4.599623e-002 
-6.746441e-002 
-7.394663e-002 
-2.995296e-002 
6.799930e-002 
1.659265e-001 
1.881392e-001 
1.337748e-001 
8.615277e-002 
6.328859e-002 
5.960706e-002 
1.026486e-001 
1.853429e-001 
2.500642e-001 
2.108645e-001 
7.250896e-002 
-1.462905e-002 
7.743649e-003 
3.749416e-002 
4.763487e-002 
4.478552e-002 
3.424335e-003 
-9.057453e-002 
-2.097166e-001 
-2.746098e-001 
-2.445020e-001 
-1.917525e-001 
-1.665051e-001 
-1.481352e-001 
-1.294190e-001 
-1.073855e-001 
-8.160811e-002 
-5.261384e-002 
-2.339466e-002 
-2.375873e-004 
1.877786e-002 
3.812358e-002 
5.565505e-002 
7.389528e-002 
9.003413e-002 
1.009412e-001 
1.089862e-001 
1.086624e-001 
9.814583e-002 
8.540762e-002 
7.444322e-002 
6.343639e-002 
5.020450e-002 
2.948654e-002 
7.674073e-003 
-1.217687e-002 
-3.519788e-002 
-5.780892e-002 
-7.433264e-002 
-8.620567e-002 
-9.758302e-002 
-1.081006e-001 
-1.147818e-001 
-1.148144e-001 
-1.134175e-001 
-1.110788e-001 
-1.069564e-001 
-1.018268e-001 
-9.832361e-002 
-9.433973e-002 
-8.683481e-002 
-7.782348e-002 
-7.095287e-002 
-6.778633e-002 
-6.600870e-002 
-6.707955e-002 
-6.973837e-002 
-7.226848e-002 
-6.878933e-002 
-6.087930e-002 
-5.481859e-002 
-4.828345e-002 
-3.652533e-002 
-2.493632e-002 
-1.776336e-002 
-1.201239e-002 
-4.522009e-003 
4.170128e-003 
3.145387e-003 
-4.353532e-003 
-6.413061e-003 
-9.693914e-003 
-2.313771e-002 
-3.866412e-002 
-5.121145e-002 
-6.587868e-002 
-9.257891e-002 
-1.043373e-001 
-5.802516e-002 
4.151155e-002 
1.349482e-001 
1.487562e-001 
9.073315e-002 
4.275749e-002 
1.849203e-002 
1.193474e-002 
5.985771e-002 
1.478275e-001 
2.089420e-001 
1.633374e-001 
2.529115e-002 
-5.190264e-002 
-1.905280e-002 
1.698321e-002 
2.994478e-002 
2.905201e-002 
-1.069005e-002 
-1.028768e-001 
-2.189834e-001 
-2.783333e-001 
-2.405498e-001 
-1.816429e-001 
-1.547502e-001 
-1.366645e-001 
-1.144496e-001 
-8.479480e-002 
-5.561282e-002 
-2.828758e-002 
-8.049927e-004 
2.722038e-002 
5.121276e-002 
7.404357e-002 
9.531455e-002 
1.169117e-001 
1.346772e-001 
1.448961e-001 
1.513943e-001 
1.513486e-001 
1.445047e-001 
1.352483e-001 
1.245153e-001 
1.104548e-001 
9.448114e-002 
7.406220e-002 
5.404481e-002 
3.230835e-002 
8.124466e-003 
-1.232035e-002 
-2.788109e-002 
-4.299076e-002 
-5.769940e-002 
-7.218018e-002 
-8.562177e-002 
-9.349810e-002 
-9.772916e-002 
-9.870685e-002 
-9.572933e-002 
-8.905307e-002 
-8.305270e-002 
-7.870457e-002 
-7.524341e-002 
-7.095757e-002 
-6.376298e-002 
-6.044037e-002 
-5.933887e-002 
-5.661784e-002 
-5.512258e-002 
-5.378881e-002 
-4.769493e-002 
-3.988558e-002 
-2.918710e-002 
-1.439279e-002 
-1.025661e-003 
1.001627e-002 
1.518195e-002 
1.787173e-002 
2.145110e-002 
2.097467e-002 
1.435857e-002 
8.403288e-003 
3.786309e-003 
-6.688184e-003 
-2.172367e-002 
-3.705495e-002 
-5.305970e-002 
-7.621346e-002 
-8.379179e-002 
-3.903966e-002 
6.196262e-002 
1.485162e-001 
1.309686e-001 
6.225378e-002 
2.392067e-002 
3.439668e-003 
-3.362368e-003 
4.155340e-002 
1.297894e-001 
1.853920e-001 
1.055244e-001 
-4.511341e-002 
-8.389981e-002 
-4.022535e-002 
-1.835849e-002 
-1.087009e-002 
-1.026811e-002 
-5.355263e-002 
-1.546745e-001 
-2.695858e-001 
-3.017076e-001 
-2.473626e-001 
-1.999446e-001 
-1.789966e-001 
-1.577796e-001 
-1.336201e-001 
-1.104381e-001 
-8.421257e-002 
-5.685525e-002 
-3.198484e-002 
-8.112096e-003 
1.435749e-002 
3.601338e-002 
5.654963e-002 
7.116434e-002 
8.107146e-002 
8.840854e-002 
9.032670e-002 
8.643736e-002 
7.868537e-002 
6.925065e-002 
5.808624e-002 
4.245885e-002 
2.224406e-002 
5.287549e-004 
-1.994351e-002 
-3.931771e-002 
-5.690008e-002 
-7.178086e-002 
-8.467054e-002 
-9.565526e-002 
-1.060238e-001 
-1.153999e-001 
-1.193584e-001 
-1.190016e-001 
-1.186735e-001 
-1.164903e-001 
-1.132729e-001 
-1.080497e-001 
-1.017269e-001 
-9.734296e-002 
-9.341715e-002 
-9.020522e-002 
-9.027739e-002 
-9.147897e-002 
-9.236571e-002 
-9.285940e-002 
-9.363251e-002 
-9.624734e-002 
-9.535034e-002 
-9.097025e-002 
-8.409165e-002 
-7.222890e-002 
-5.594586e-002 
-4.011810e-002 
-2.794664e-002 
-2.171952e-002 
-1.465013e-002 
-7.288299e-003 
-6.659638e-003 
-8.171776e-003 
-7.624982e-003 
-9.158927e-003 
-1.796301e-002 
-3.069424e-002 
-4.283184e-002 
-6.052771e-002 
-8.487474e-002 
-8.188149e-002 
-1.941523e-002 
8.952773e-002 
1.621375e-001 
1.260460e-001 
6.197474e-002 
3.305270e-002 
1.302878e-002 
2.038917e-002 
8.269421e-002 
1.749251e-001 
2.122501e-001 
1.074343e-001 
-3.536827e-002 
-4.400589e-002 
2.821019e-003 
1.974277e-002 
2.903548e-002 
2.277180e-002 
-3.088011e-002 
-1.410254e-001 
-2.504411e-001 
-2.628621e-001 
-2.023159e-001 
-1.647740e-001 
-1.493259e-001 
-1.313007e-001 
-1.075604e-001 
-8.312277e-002 
-5.722127e-002 
-2.965557e-002 
-3.059308e-003 
2.291998e-002 
4.725525e-002 
7.059374e-002 
9.538471e-002 
1.145160e-001 
1.273766e-001 
1.363525e-001 
1.420605e-001 
1.419831e-001 
1.369336e-001 
1.298038e-001 
1.198678e-001 
1.057280e-001 
8.525638e-002 
6.398241e-002 
4.619836e-002 
2.936318e-002 
1.213497e-002 
-1.187852e-003 
-1.119079e-002 
-2.125514e-002 
-3.035664e-002 
-3.903269e-002 
-4.456550e-002 
-4.658467e-002 
-4.745190e-002 
-4.554920e-002 
-4.073891e-002 
-3.703577e-002 
-3.692630e-002 
-3.745339e-002 
-3.873605e-002 
-4.184730e-002 
-4.482320e-002 
-4.799739e-002 
-5.511820e-002 
-6.386815e-002 
-7.619599e-002 
-8.839267e-002 
-9.117015e-002 
-8.906971e-002 
-8.706177e-002 
-7.795644e-002 
-6.415359e-002 
-5.156589e-002 
-3.992252e-002 
-3.423603e-002 
-2.680949e-002 
-1.471594e-002 
-1.256415e-002 
-1.769086e-002 
-1.426545e-002 
-1.193776e-002 
-1.922730e-002 
-2.987011e-002 
-4.077243e-002 
-5.085276e-002 
-6.918194e-002 
-7.352980e-002 
-1.567097e-002 
1.001856e-001 
1.975806e-001 
1.995445e-001 
1.379094e-001 
9.238958e-002 
6.920484e-002 
6.556785e-002 
1.193384e-001 
2.152346e-001 
2.698296e-001 
2.000274e-001 
5.047881e-002 
-1.603334e-002 
1.457760e-002 
4.351828e-002 
5.693331e-002 
5.680215e-002 
7.151361e-003 
-1.020244e-001 
-2.259041e-001 
-2.766355e-001 
-2.346352e-001 
-1.825854e-001 
-1.542813e-001 
-1.345665e-001 
-1.150073e-001 
-9.484837e-002 
-7.116714e-002 
-4.323983e-002 
-1.538384e-002 
9.168296e-003 
3.235378e-002 
5.377794e-002 
7.270905e-002 
9.066740e-002 
1.038775e-001 
1.167371e-001 
1.245665e-001 
1.230352e-001 
1.156259e-001 
1.089173e-001 
1.025350e-001 
9.369126e-002 
8.083767e-002 
6.537822e-002 
4.808354e-002 
2.798148e-002 
7.207059e-003 
-7.560946e-003 
-1.642199e-002 
-2.590098e-002 
-3.603013e-002 
-4.286604e-002 
-4.830079e-002 
-4.881888e-002 
-4.766666e-002 
-4.624299e-002 
-4.001337e-002 
-3.302278e-002 
-2.672769e-002 
-2.159236e-002 
-1.764619e-002 
-1.342060e-002 
-1.083170e-002 
-1.390493e-002 
-1.491032e-002 
-1.338519e-002 
-1.319417e-002 
-1.527204e-002 
-1.851189e-002 
-1.727759e-002 
-1.388477e-002 
-9.898235e-003 
1.166318e-003 
1.779680e-002 
3.102961e-002 
3.919266e-002 
4.400977e-002 
4.932987e-002 
5.193888e-002 
4.737205e-002 
4.605938e-002 
5.012405e-002 
4.582276e-002 
3.346985e-002 
2.162320e-002 
9.570645e-003 
-1.152589e-002 
-3.451185e-002 
-1.871186e-002 
6.272484e-002 
1.769665e-001 
2.486780e-001 
2.287442e-001 
1.659849e-001 
1.236745e-001 
1.023706e-001 
1.191132e-001 
1.917523e-001 
2.797720e-001 
2.995095e-001 
1.973704e-001 
5.820428e-002 
2.186049e-002 
6.117742e-002 
8.760770e-002 
9.559110e-002 
7.965559e-002 
9.387390e-003 
-1.124104e-001 
-2.251369e-001 
-2.516704e-001 
-2.004732e-001 
-1.541248e-001 
-1.341807e-001 
-1.151389e-001 
-9.162275e-002 
-7.100563e-002 
-4.846028e-002 
-2.266845e-002 
3.930575e-003 
2.849097e-002 
4.903340e-002 
6.958515e-002 
9.009138e-002 
1.047374e-001 
1.144329e-001 
1.255934e-001 
1.340604e-001 
1.324105e-001 
1.216368e-001 
1.105853e-001 
9.714275e-002 
8.020806e-002 
6.432273e-002 
5.025298e-002 
3.377050e-002 
1.054698e-002 
-1.526137e-002 
-3.409907e-002 
-4.872998e-002 
-6.172513e-002 
-6.669271e-002 
-6.747715e-002 
-7.270156e-002 
-8.078953e-002 
-8.307107e-002 
-7.942419e-002 
-7.258388e-002 
-6.495841e-002 
-5.287023e-002 
-4.132588e-002 
-4.114129e-002 
-4.561070e-002 
-4.552669e-002 
-4.344210e-002 
-4.474538e-002 
-4.556275e-002 
-4.244866e-002 
-3.571821e-002 
-3.408615e-002 
-3.378325e-002 
-2.085503e-002 
-2.761830e-003 
1.055831e-002 
1.648717e-002 
2.184443e-002 
2.885401e-002 
3.038585e-002 
2.470534e-002 
2.394940e-002 
2.854506e-002 
2.586209e-002 
1.251383e-002 
-4.259367e-003 
-1.256396e-002 
-2.514812e-002 
-5.199804e-002 
-7.094653e-002 
-5.330162e-002 
1.808998e-002 
1.260938e-001 
1.959616e-001 
1.716425e-001 
1.108117e-001 
7.185648e-002 
5.896203e-002 
8.419151e-002 
1.523911e-001 
2.385980e-001 
2.633051e-001 
1.551969e-001 
1.202594e-002 
-1.353354e-002 
3.089014e-002 
5.771484e-002 
6.381759e-002 
4.310828e-002 
-2.460552e-002 
-1.424631e-001 
-2.526735e-001 
-2.656810e-001 
-2.045709e-001 
-1.582662e-001 
-1.357801e-001 
-1.151550e-001 
-8.930974e-002 
-6.106030e-002 
-3.284258e-002 
-2.343006e-003 
2.678671e-002 
5.027303e-002 
7.576291e-002 
1.005672e-001 
1.219692e-001 
1.390660e-001 
1.512041e-001 
1.582973e-001 
1.604192e-001 
1.557704e-001 
1.477953e-001 
1.393867e-001 
1.258731e-001 
1.083437e-001 
8.840981e-002 
6.676248e-002 
4.427954e-002 
2.364527e-002 
4.604153e-003 
-1.068819e-002 
-2.424962e-002 
-3.615839e-002 
-4.397002e-002 
-4.928643e-002 
-5.152838e-002 
-4.980679e-002 
-4.656125e-002 
-4.040176e-002 
-3.585242e-002 
-3.347286e-002 
-2.775198e-002 
-2.228983e-002 
-1.798746e-002 
-1.266610e-002 
-1.016845e-002 
-8.842797e-003 
-9.638184e-003 
-1.316376e-002 
-8.140534e-003 
-7.000575e-005 
5.060020e-003 
1.582624e-002 
2.870711e-002 
3.781684e-002 
4.399364e-002 
4.708370e-002 
5.282833e-002 
5.755212e-002 
5.393827e-002 
5.064215e-002 
5.141926e-002 
4.512665e-002 
3.226531e-002 
1.838967e-002 
4.883058e-003 
-1.559313e-002 
-4.286100e-002 
-4.755791e-002 
2.052144e-003 
1.034146e-001 
2.007414e-001 
2.161457e-001 
1.555869e-001 
1.049463e-001 
8.181701e-002 
8.297591e-002 
1.347960e-001 
2.249829e-001 
2.878165e-001 
2.369169e-001 
9.074395e-002 
9.183398e-003 
4.128681e-002 
7.799589e-002 
9.172870e-002 
9.168292e-002 
4.857324e-002 
-5.249746e-002 
-1.765528e-001 
-2.386097e-001 
-2.026603e-001 
-1.459257e-001 
-1.198892e-001 
-1.012765e-001 
-8.054412e-002 
-5.743885e-002 
-3.231605e-002 
-6.116862e-003 
2.113796e-002 
4.795367e-002 
7.372188e-002 
9.859467e-002 
1.214285e-001 
1.410645e-001 
1.557982e-001 
1.658435e-001 
1.707901e-001 
1.712046e-001 
1.651334e-001 
1.541248e-001 
1.398339e-001 
1.231385e-001 
1.032327e-001 
7.979525e-002 
5.592535e-002 
3.258239e-002 
8.627453e-003 
-1.464441e-002 
-3.428560e-002 
-5.034011e-002 
-6.298856e-002 
-7.407132e-002 
-8.199683e-002 
-8.456739e-002 
-8.502455e-002 
-8.343285e-002 
-7.951474e-002 
-7.449402e-002 
-6.719297e-002 
-6.067157e-002 
-5.564851e-002 
-4.980149e-002 
-4.472745e-002 
-4.266780e-002 
-4.126723e-002 
-4.239486e-002 
-4.286857e-002 
-3.944295e-002 
-3.417212e-002 
-2.798391e-002 
-1.859880e-002 
-5.628798e-003 
6.383785e-003 
1.643645e-002 
2.244684e-002 
2.971506e-002 
3.926374e-002 
3.984876e-002 
3.290039e-002 
2.991584e-002 
2.557245e-002 
1.486194e-002 
8.417967e-004 
-1.411573e-002 
-2.568066e-002 
-4.754069e-002 
-7.636593e-002 
-6.110888e-002 
2.145940e-002 
1.268348e-001 
1.735753e-001 
1.268609e-001 
7.289984e-002 
4.842901e-002 
2.843454e-002 
4.600898e-002 
1.270719e-001 
2.160538e-001 
2.135307e-001 
8.608782e-002 
-2.772726e-002 
-1.918752e-002 
1.493006e-002 
2.925910e-002 
3.979041e-002 
2.296393e-002 
-5.023797e-002 
-1.689878e-001 
-2.584373e-001 
-2.487794e-001 
-1.943153e-001 
-1.617070e-001 
-1.406331e-001 
-1.223072e-001 
-9.735165e-002 
-6.704204e-002 
-3.864998e-002 
-1.173812e-002 
1.512246e-002 
4.221343e-002 
6.790980e-002 
9.022581e-002 
1.127011e-001 
1.317834e-001 
1.436613e-001 
1.470438e-001 
1.457666e-001 
1.429042e-001 
1.344370e-001 
1.212242e-001 
1.058929e-001 
8.632083e-002 
6.181940e-002 
3.530072e-002 
7.381875e-003 
-1.877214e-002 
-4.334302e-002 
-6.718456e-002 
-8.644205e-002 
-1.028942e-001 
-1.167396e-001 
-1.270053e-001 
-1.354200e-001 
-1.413816e-001 
-1.437051e-001 
-1.436361e-001 
-1.392101e-001 
-1.324334e-001 
-1.274315e-001 
-1.228675e-001 
-1.185834e-001 
-1.156790e-001 
-1.130468e-001 
-1.099618e-001 
-1.060245e-001 
-1.032961e-001 
-1.033623e-001 
-1.003582e-001 
-9.453276e-002 
-8.827037e-002 
-7.735251e-002 
-6.184236e-002 
-4.504277e-002 
-3.176569e-002 
-2.557843e-002 
-1.811468e-002 
-1.038939e-002 
-1.282273e-002 
-1.572041e-002 
-1.333897e-002 
-1.603307e-002 
-2.480797e-002 
-3.814448e-002 
-5.288353e-002 
-6.845542e-002 
-9.410756e-002 
-9.995912e-002 
-4.332635e-002 
6.426724e-002 
1.561187e-001 
1.579721e-001 
9.126991e-002 
4.239770e-002 
1.911050e-002 
1.622652e-002 
7.074409e-002 
1.643712e-001 
2.177447e-001 
1.501986e-001 
3.251489e-003 
-6.192128e-002 
-2.368190e-002 
9.860654e-003 
1.908756e-002 
1.518594e-002 
-3.348331e-002 
-1.371187e-001 
-2.536615e-001 
-2.999902e-001 
-2.536678e-001 
-1.959500e-001 
-1.722985e-001 
-1.564435e-001 
-1.315328e-001 
-1.028908e-001 
-7.222356e-002 
-4.320419e-002 
-1.618308e-002 
1.157784e-002 
3.746189e-002 
6.163239e-002 
8.668104e-002 
1.080748e-001 
1.234967e-001 
1.335675e-001 
1.374106e-001 
1.362551e-001 
1.300680e-001 
1.188944e-001 
1.039907e-001 
8.379757e-002 
6.101250e-002 
3.872858e-002 
1.635649e-002 
-5.788041e-003 
-2.887242e-002 
-5.060397e-002 
-6.945558e-002 
-8.745424e-002 
-1.034170e-001 
-1.131510e-001 
-1.182195e-001 
-1.192069e-001 
-1.189256e-001 
-1.168352e-001 
-1.122424e-001 
-1.069646e-001 
-1.019965e-001 
-9.460677e-002 
-8.759827e-002 
-8.161245e-002 
-7.815331e-002 
-7.900255e-002 
-7.901033e-002 
-7.921039e-002 
-7.954740e-002 
-7.969211e-002 
-8.092846e-002 
-7.900212e-002 
-7.165869e-002 
-6.750109e-002 
-5.647890e-002 
-3.715122e-002 
-2.309294e-002 
-1.479503e-002 
-1.038170e-002 
-6.273038e-003 
-1.118581e-003 
-1.995681e-003 
-3.592486e-003 
2.112359e-003 
-6.716688e-004 
-1.546871e-002 
-3.071256e-002 
-4.467272e-002 
-6.703220e-002 
-8.931688e-002 
-7.392157e-002 
2.778111e-003 
1.129197e-001 
1.719587e-001 
1.328524e-001 
7.201572e-002 
4.213225e-002 
2.519001e-002 
4.284621e-002 
1.165636e-001 
2.055954e-001 
2.222352e-001 
1.087247e-001 
-1.884559e-002 
-2.254368e-002 
2.385642e-002 
4.401834e-002 
5.350288e-002 
4.261761e-002 
-2.145682e-002 
-1.346842e-001 
-2.333451e-001 
-2.364039e-001 
-1.755200e-001 
-1.370994e-001 
-1.191035e-001 
-9.848816e-002 
-7.294056e-002 
-4.575481e-002 
-1.677321e-002 
1.099105e-002 
3.929470e-002 
6.752536e-002 
9.200449e-002 
1.171389e-001 
1.399806e-001 
1.581866e-001 
1.723669e-001 
1.810157e-001 
1.817462e-001 
1.788994e-001 
1.730575e-001 
1.610880e-001 
1.452060e-001 
1.244457e-001 
1.019203e-001 
7.740761e-002 
5.176292e-002 
2.690739e-002 
5.761287e-003 
-1.570602e-002 
-3.948475e-002 
-5.926099e-002 
-7.235292e-002 
-8.035953e-002 
-8.678457e-002 
-8.916481e-002 
-8.914881e-002 
-8.874735e-002 
-9.004127e-002 
-8.752733e-002 
-7.720231e-002 
-6.431066e-002 
-5.573574e-002 
-5.176300e-002 
-4.963007e-002 
-4.991459e-002 
-5.292546e-002 
-5.500338e-002 
-5.227719e-002 
-4.948224e-002 
-5.160111e-002 
-5.753572e-002 
-6.038021e-002 
-5.639392e-002 
-4.995535e-002 
-3.934906e-002 
-2.131052e-002 
-5.511498e-003 
3.799550e-003 
8.474617e-003 
1.217888e-002 
1.787449e-002 
1.904337e-002 
1.403913e-002 
1.225741e-002 
9.781263e-003 
1.840274e-004 
-1.074707e-002 
-2.211488e-002 
-4.057488e-002 
-5.320931e-002 
-2.828770e-002 
5.393104e-002 
1.631196e-001 
2.191065e-001 
1.773406e-001 
1.148491e-001 
8.319265e-002 
6.711664e-002 
9.207741e-002 
1.675965e-001 
2.471398e-001 
2.481155e-001 
1.314995e-001 
9.659035e-003 
9.248246e-003 
5.274714e-002 
6.999992e-002 
7.486228e-002 
5.083341e-002 
-2.514574e-002 
-1.405799e-001 
-2.305472e-001 
-2.274678e-001 
-1.668543e-001 
-1.287372e-001 
-1.089693e-001 
-8.810509e-002 
-6.241798e-002 
-3.309840e-002 
-4.240444e-003 
2.353577e-002 
5.140632e-002 
7.879667e-002 
1.047048e-001 
1.286846e-001 
1.494187e-001 
1.679709e-001 
1.808658e-001 
1.858611e-001 
1.865816e-001 
1.820806e-001 
1.716822e-001 
1.583042e-001 
1.411561e-001 
1.202245e-001 
9.543317e-002 
6.641465e-002 
3.819420e-002 
1.207675e-002 
-1.298523e-002 
-3.701317e-002 
-5.741125e-002 
-7.538305e-002 
