67
1.7448
310.2985
13.3031
2.497676e-002
6.629904e-002
1.042639e-001
1.425104e-001
1.797585e-001
2.155119e-001
2.516279e-001
2.844597e-001
3.325146e-001
4.050302e-001
4.511869e-001
4.789935e-001
5.091210e-001
5.369773e-001
5.638527e-001
5.912111e-001
6.162425e-001
6.426034e-001
6.521248e-001
6.354631e-001
6.187339e-001
6.029605e-001
5.857069e-001
5.687539e-001
5.526646e-001
5.352825e-001
5.176007e-001
5.000993e-001
4.825487e-001
4.650270e-001
4.462903e-001
4.264297e-001
4.074024e-001
3.874096e-001
3.652256e-001
3.121572e-001
2.257297e-001
1.382982e-001
5.707061e-002
-2.239349e-002
-9.885110e-002
-1.749084e-001
-2.484750e-001
-3.397890e-001
-4.676054e-001
-5.731400e-001
-6.358324e-001
-6.929561e-001
-7.535442e-001
-8.125689e-001
-8.708748e-001
-9.265390e-001
-9.815161e-001
-1.014633e+000
-1.006403e+000
-9.862156e-001
-9.724158e-001
-9.599500e-001
-9.471090e-001
-9.344594e-001
-9.214355e-001
-9.072241e-001
-8.933041e-001
-8.792806e-001
-8.655192e-001
-8.512892e-001
-8.359999e-001
-8.208506e-001
-8.058406e-001
-7.897753e-001
-7.738823e-001
-7.586758e-001
-7.433087e-001
-7.276317e-001
-7.109887e-001
-6.950934e-001
-6.797562e-001
-6.633302e-001
-6.470147e-001
-6.318604e-001
-6.161241e-001
-5.996871e-001
-5.827028e-001
-5.667972e-001
-5.514781e-001
-5.346551e-001
-5.173503e-001
-5.008601e-001
-4.840149e-001
-4.660297e-001
-4.482689e-001
-4.315318e-001
-4.144410e-001
-3.960045e-001
-3.764648e-001
-3.565571e-001
-3.369044e-001
-3.162256e-001
-2.937457e-001
-2.417277e-001
-1.556523e-001
-6.787825e-002
1.360429e-002
9.313617e-002
1.698120e-001
2.453001e-001
3.180937e-001
4.080948e-001
5.351486e-001
6.407606e-001
7.041019e-001
7.618713e-001
8.219004e-001
8.803765e-001
9.378574e-001
9.926796e-001
1.047769e+000
1.081542e+000
1.073307e+000
1.054130e+000
1.039984e+000
1.026481e+000
1.013352e+000
1.000302e+000
9.873579e-001
9.740980e-001
9.595658e-001
9.457769e-001
9.321839e-001
9.171135e-001
9.015810e-001
8.861039e-001
8.713111e-001
8.564700e-001
8.400941e-001
8.239495e-001
8.085501e-001
7.925125e-001
7.759824e-001
7.590341e-001
7.426842e-001
7.273234e-001
7.107231e-001
6.935189e-001
6.770937e-001
6.607857e-001
6.441442e-001
6.263555e-001
6.094137e-001
5.932994e-001
5.769155e-001
5.594691e-001
5.416663e-001
5.246172e-001
5.081603e-001
4.899048e-001
4.718327e-001
4.552084e-001
4.367281e-001
4.171520e-001
3.971139e-001
3.774956e-001
3.568782e-001
3.122072e-001
2.298752e-001
1.415908e-001
6.006533e-002
-2.095240e-002
-9.847118e-002
-1.742149e-001
-2.485801e-001
-3.354827e-001
-4.559373e-001
-5.708196e-001
-6.407691e-001
-6.989918e-001
-7.602303e-001
-8.193319e-001
-8.779278e-001
-9.348856e-001
-9.902186e-001
-1.029460e+000
-1.030927e+000
-1.012377e+000
-9.983765e-001
-9.851041e-001
-9.721760e-001
-9.593253e-001
-9.466085e-001
-9.334888e-001
-9.195747e-001
-9.059857e-001
-8.921767e-001
-8.767404e-001
-8.609724e-001
-8.457679e-001
-8.305311e-001
-8.148331e-001
-7.990129e-001
-7.824632e-001
-7.662105e-001
-7.500675e-001
-7.337050e-001
-7.174243e-001
-7.008959e-001
-6.840065e-001
-6.676803e-001
-6.513782e-001
-6.344707e-001
-6.183408e-001
-6.016971e-001
-5.849360e-001
-5.675069e-001
-5.502075e-001
-5.333509e-001
-5.162919e-001
-4.981229e-001
-4.803227e-001
-4.619596e-001
-4.430651e-001
-4.251149e-001
-4.062375e-001
-3.867529e-001
-3.669776e-001
-3.461201e-001
-3.248070e-001
-3.026541e-001
-2.456622e-001
-1.575615e-001
-7.142408e-002
1.051049e-002
8.936956e-002
1.660115e-001
2.429872e-001
3.157875e-001
4.082743e-001
5.381513e-001
6.391131e-001
6.998789e-001
7.575720e-001
8.174535e-001
8.774479e-001
9.359324e-001
9.906749e-001
1.045694e+000
1.077389e+000
1.067088e+000
1.047623e+000
1.034035e+000
1.022731e+000
1.011196e+000
9.985528e-001
9.861646e-001
9.736651e-001
9.601897e-001
9.465870e-001
9.327284e-001
9.186301e-001
9.041569e-001
8.892327e-001
8.742100e-001
8.595687e-001
8.432409e-001
8.270582e-001
8.116494e-001
7.949729e-001
7.779931e-001
7.617912e-001
7.454052e-001
7.287145e-001
7.110912e-001
6.935052e-001
6.771787e-001
6.604613e-001
6.431407e-001
6.263852e-001
6.098995e-001
5.929526e-001
5.749825e-001
5.571022e-001
5.404193e-001
5.231045e-001
5.054897e-001
4.873971e-001
4.689291e-001
4.507089e-001
4.314556e-001
4.110234e-001
3.916703e-001
3.711740e-001
3.486749e-001
2.859660e-001
1.930122e-001
1.070962e-001
2.548120e-002
-5.462735e-002
-1.319480e-001
-2.084102e-001
-2.809847e-001
-3.778536e-001
-5.147779e-001
-6.106352e-001
-6.689457e-001
-7.292400e-001
-7.894075e-001
-8.481124e-001
-9.058499e-001
-9.611305e-001
-1.017721e+000
-1.046295e+000
-1.030628e+000
-1.012639e+000
-9.983018e-001
-9.853016e-001
-9.733946e-001
-9.613166e-001
-9.491043e-001
-9.358213e-001
-9.223533e-001
-9.082643e-001
-8.932723e-001
-8.782106e-001
-8.638947e-001
-8.485836e-001
-8.330260e-001
-8.175238e-001
-8.018624e-001
-7.865221e-001
-7.699997e-001
-7.531164e-001
-7.370963e-001
-7.204411e-001
-7.038116e-001
-6.884018e-001
-6.723253e-001
-6.566294e-001
-6.404685e-001
-6.231660e-001
-6.065429e-001
-5.907609e-001
-5.746067e-001
-5.587760e-001
-5.419800e-001
-5.246737e-001
-5.077319e-001
-4.896219e-001
-4.711077e-001
-4.532342e-001
-4.356198e-001
-4.169043e-001
-3.974583e-001
-3.775212e-001
-3.570957e-001
-3.359482e-001
-3.137172e-001
-2.867317e-001
-2.168255e-001
-1.238655e-001
-4.048666e-002
3.973213e-002
1.179501e-001
1.951524e-001
2.711291e-001
3.443037e-001
4.467848e-001
5.814188e-001
6.651768e-001
7.185177e-001
7.777105e-001
8.374609e-001
8.954570e-001
9.507611e-001
1.004052e+000
1.056478e+000
1.075649e+000
1.053617e+000
1.035694e+000
1.022381e+000
1.009292e+000
9.951658e-001
9.816525e-001
9.683704e-001
9.539878e-001
9.387895e-001
9.234941e-001
9.089458e-001
8.934317e-001
8.775863e-001
8.622764e-001
8.463913e-001
8.297838e-001
8.126936e-001
7.956380e-001
7.787597e-001
7.608638e-001
7.430350e-001
7.264670e-001
7.088514e-001
6.909372e-001
6.735913e-001
6.562177e-001
6.384160e-001
6.198095e-001
6.011169e-001
5.838400e-001
5.659627e-001
5.474879e-001
5.297985e-001
5.116032e-001
4.926687e-001
4.732914e-001
4.539028e-001
4.350959e-001
4.166034e-001
3.969221e-001
3.769878e-001
3.561722e-001
3.337644e-001
3.117526e-001
2.481417e-001
1.556786e-001
7.097966e-002
-1.009514e-002
-8.845803e-002
-1.649990e-001
-2.427799e-001
-3.145794e-001
-4.102979e-001
-5.477092e-001
-6.407684e-001
-6.972396e-001
-7.559599e-001
-8.148187e-001
-8.744944e-001
-9.332263e-001
-9.871375e-001
-1.042559e+000
-1.070012e+000
-1.053066e+000
-1.034971e+000
-1.020408e+000
-1.007504e+000
-9.956716e-001
-9.832105e-001
-9.698381e-001
-9.557585e-001
-9.426343e-001
-9.289875e-001
-9.137410e-001
-8.983762e-001
-8.833937e-001
-8.685921e-001
-8.533556e-001
-8.370649e-001
-8.202613e-001
-8.039056e-001
-7.865012e-001
-7.689756e-001
-7.521731e-001
-7.348028e-001
-7.177974e-001
-7.009404e-001
-6.834525e-001
-6.660804e-001
-6.487952e-001
-6.315680e-001
-6.138834e-001
-5.960229e-001
-5.785160e-001
-5.616402e-001
-5.442478e-001
-5.265272e-001
-5.083010e-001
-4.898143e-001
-4.710111e-001
-4.520713e-001
-4.338394e-001
-4.151389e-001
-3.956793e-001
-3.758147e-001
-3.549826e-001
-3.325869e-001
-3.093282e-001
-2.511712e-001
-1.617754e-001
-7.449123e-002
7.282925e-003
8.568970e-002
1.623602e-001
2.397855e-001
3.131042e-001
4.058335e-001
5.364806e-001
6.367340e-001
6.968737e-001
7.534561e-001
8.129045e-001
8.723456e-001
9.304939e-001
9.842440e-001
1.037732e+000
1.068269e+000
1.056237e+000
1.035327e+000
1.020266e+000
1.007596e+000
9.945520e-001
9.806491e-001
9.656629e-001
9.519009e-001
9.382774e-001
9.224896e-001
9.069363e-001
8.921030e-001
8.760626e-001
8.593292e-001
8.420277e-001
8.258699e-001
8.098849e-001
7.917698e-001
7.738089e-001
7.570809e-001
7.393062e-001
7.212621e-001
7.037010e-001
6.865920e-001
6.692677e-001
6.511364e-001
6.333316e-001
6.168747e-001
5.992061e-001
5.811472e-001
5.637147e-001
5.459259e-001
5.278393e-001
5.096349e-001
4.920428e-001
4.744797e-001
4.563028e-001
4.368707e-001
4.179421e-001
3.983340e-001
3.789585e-001
3.595351e-001
3.397714e-001
3.191256e-001
2.963433e-001
2.472302e-001
1.622304e-001
7.308499e-002
-8.417994e-003
-8.678189e-002
-1.631110e-001
-2.391630e-001
-3.134766e-001
-4.008894e-001
-5.233238e-001
-6.342385e-001
-7.004185e-001
-7.568617e-001
-8.164937e-001
-8.759128e-001
-9.348106e-001
-9.904623e-001
-1.044010e+000
-1.080135e+000
-1.076585e+000
-1.055503e+000
-1.039834e+000
-1.025835e+000
-1.012291e+000
-9.983184e-001
-9.846136e-001
-9.701173e-001
-9.552845e-001
-9.401743e-001
-9.239159e-001
-9.075381e-001
-8.904904e-001
-8.735705e-001
-8.577209e-001
-8.420789e-001
-8.252564e-001
-8.081887e-001
-7.907630e-001
-7.739029e-001
-7.576991e-001
-7.406751e-001
-7.239506e-001
-7.074307e-001
-6.905499e-001
-6.725231e-001
-6.541139e-001
-6.368824e-001
-6.208228e-001
-6.037415e-001
-5.857296e-001
-5.678429e-001
-5.500806e-001
-5.313912e-001
-5.116932e-001
-4.925500e-001
-4.741732e-001
-4.548498e-001
-4.345846e-001
-4.144620e-001
-3.944811e-001
-3.741912e-001
-3.533794e-001
-3.320199e-001
-3.091568e-001
-2.537551e-001
-1.647640e-001
-7.609049e-002
5.500132e-003
8.400979e-002
1.603615e-001
2.366345e-001
3.096796e-001
4.009166e-001
5.292712e-001
6.332738e-001
6.948989e-001
7.507524e-001
8.103835e-001
8.698068e-001
9.272504e-001
9.811346e-001
1.035620e+000
1.068070e+000
1.057669e+000
1.035800e+000
1.020749e+000
1.008118e+000
9.940612e-001
9.796658e-001
9.662489e-001
9.524616e-001
9.367112e-001
9.206021e-001
9.054800e-001
8.906540e-001
8.741991e-001
8.571747e-001
8.415930e-001
8.255233e-001
8.079534e-001
7.909783e-001
7.750819e-001
7.586355e-001
7.414920e-001
7.231470e-001
7.055582e-001
6.894081e-001
6.723517e-001
6.553231e-001
6.391585e-001
6.226028e-001
6.055864e-001
5.882048e-001
5.706099e-001
5.542110e-001
5.374791e-001
5.191569e-001
5.005748e-001
4.821268e-001
4.637547e-001
4.448573e-001
4.256230e-001
4.065897e-001
3.872776e-001
3.670237e-001
3.462478e-001
3.249239e-001
3.027257e-001
2.609892e-001
1.799853e-001
8.887914e-002
6.706769e-003
-7.300108e-002
-1.498811e-001
-2.257474e-001
-3.004282e-001
-3.833568e-001
-5.005595e-001
-6.197157e-001
-6.909951e-001
-7.459813e-001
-8.056945e-001
-8.639791e-001
-9.219760e-001
-9.777354e-001
-1.031660e+000
-1.073702e+000
-1.076595e+000
-1.054230e+000
-1.036875e+000
-1.022231e+000
-1.007994e+000
-9.941776e-001
-9.796558e-001
-9.647692e-001
-9.496055e-001
-9.333223e-001
-9.162045e-001
-8.997429e-001
-8.845142e-001
-8.689390e-001
-8.532059e-001
-8.363500e-001
-8.198219e-001
-8.034622e-001
-7.864339e-001
-7.698484e-001
-7.544538e-001
-7.393221e-001
-7.230932e-001
-7.060517e-001
-6.895740e-001
-6.742008e-001
-6.582176e-001
-6.419277e-001
-6.251250e-001
-6.086557e-001
-5.923608e-001
-5.747451e-001
-5.572236e-001
-5.405462e-001
-5.228569e-001
-5.043036e-001
-4.854341e-001
-4.663998e-001
-4.481598e-001
-4.289725e-001
-4.088144e-001
-3.888842e-001
-3.686161e-001
-3.471967e-001
-3.248460e-001
-2.745383e-001
-1.893297e-001
-1.007404e-001
-1.854741e-002
6.054622e-002
1.376014e-001
2.143327e-001
2.880788e-001
3.769498e-001
5.020154e-001
6.108645e-001
6.758972e-001
7.319770e-001
7.916542e-001
8.519250e-001
9.102680e-001
9.652885e-001
1.019852e+000
1.054872e+000
1.048562e+000
1.026866e+000
1.010735e+000
9.975367e-001
9.842097e-001
9.686236e-001
9.534569e-001
9.384072e-001
9.220941e-001
9.061115e-001
8.906650e-001
8.746156e-001
8.585600e-001
8.413259e-001
8.234342e-001
8.070686e-001
7.900696e-001
7.724402e-001
7.563357e-001
7.395680e-001
7.222547e-001
7.059861e-001
6.888407e-001
6.717810e-001
6.551353e-001
6.378291e-001
6.210881e-001
6.053029e-001
5.886671e-001
5.721143e-001
5.559446e-001
5.385685e-001
5.208642e-001
5.033404e-001
4.857959e-001
4.681945e-001
4.504864e-001
4.322787e-001
4.142032e-001
3.958091e-001
3.762542e-001
3.563596e-001
3.366916e-001
3.160552e-001
2.938541e-001
2.487591e-001
1.669364e-001
7.710690e-002
-5.619282e-003
-8.555817e-002
-1.623037e-001
-2.376350e-001
-3.114254e-001
-3.963034e-001
-5.156948e-001
-6.297460e-001
-6.991616e-001
-7.557720e-001
-8.151412e-001
-8.731407e-001
-9.310470e-001
-9.867907e-001
-1.040508e+000
-1.078930e+000
-1.077950e+000
-1.057117e+000
-1.040874e+000
-1.025133e+000
-1.011200e+000
-9.983342e-001
-9.843230e-001
-9.694003e-001
-9.545934e-001
-9.404743e-001
-9.259742e-001
-9.094875e-001
-8.933474e-001
-8.789971e-001
-8.636105e-001
-8.466777e-001
-8.300155e-001
-8.143653e-001
-7.983209e-001
-7.806538e-001
-7.637457e-001
-7.480428e-001
-7.313801e-001
-7.139416e-001
-6.968321e-001
-6.810163e-001
-6.647644e-001
-6.470072e-001
-6.291818e-001
-6.127619e-001
-5.957311e-001
-5.774915e-001
-5.601869e-001
-5.432682e-001
-5.261474e-001
-5.079739e-001
-4.893679e-001
-4.707453e-001
-4.527141e-001
-4.334980e-001
-4.137323e-001
-3.943495e-001
-3.738458e-001
-3.519628e-001
-3.286709e-001
-2.756669e-001
-1.879959e-001
-9.854919e-002
-1.530902e-002
6.533561e-002
1.435053e-001
2.211382e-001
2.957590e-001
3.864067e-001
5.136750e-001
6.216031e-001
6.862544e-001
7.433031e-001
8.037004e-001
8.627340e-001
9.201887e-001
9.752258e-001
1.029892e+000
1.063606e+000
1.055440e+000
1.033879e+000
1.017626e+000
1.002870e+000
9.878647e-001
9.735766e-001
9.598163e-001
9.450512e-001
9.292580e-001
9.140575e-001
8.998119e-001
8.844071e-001
8.679138e-001
8.526111e-001
8.378350e-001
8.222391e-001
8.062062e-001
7.901390e-001
7.746308e-001
7.594429e-001
7.429863e-001
7.266754e-001
7.113535e-001
6.958714e-001
6.804093e-001
6.644235e-001
6.480742e-001
6.325570e-001
6.164880e-001
5.993338e-001
5.827725e-001
5.675020e-001
5.521571e-001
5.347648e-001
5.166293e-001
4.995768e-001
4.827157e-001
4.641136e-001
4.453240e-001
4.275984e-001
4.102169e-001
3.901749e-001
3.691947e-001
3.494402e-001
3.279374e-001
2.887021e-001
2.096857e-001
1.197365e-001
3.839289e-002
-4.173354e-002
-1.200531e-001
-1.953146e-001
-2.697087e-001
-3.518176e-001
-4.654589e-001
-5.859996e-001
-6.590489e-001
-7.144396e-001
-7.742612e-001
-8.331196e-001
-8.904214e-001
-9.460542e-001
-9.991451e-001
-1.041099e+000
-1.046865e+000
-1.025219e+000
-1.008052e+000
-9.938446e-001
-9.805300e-001
-9.660007e-001
-9.512209e-001
-9.367071e-001
-9.218784e-001
-9.068656e-001
-8.913904e-001
-8.759418e-001
-8.606340e-001
-8.450162e-001
-8.281316e-001
-8.120245e-001
-7.966908e-001
-7.800891e-001
-7.638132e-001
-7.480973e-001
-7.317162e-001
-7.157457e-001
-6.992256e-001
-6.820444e-001
-6.657564e-001
-6.490489e-001
-6.321882e-001
-6.167626e-001
-6.006988e-001
-5.840859e-001
-5.678564e-001
-5.510501e-001
-5.343279e-001
-5.177177e-001
-5.011047e-001
-4.844239e-001
-4.676258e-001
-4.497164e-001
-4.314591e-001
-4.133628e-001
-3.953407e-001
-3.767630e-001
-3.573033e-001
-3.371520e-001
-3.153179e-001
-2.646368e-001
-1.784616e-001
-8.928093e-002
-7.799611e-003
7.112338e-002
1.489883e-001
2.268047e-001
3.006642e-001
3.899908e-001
5.160520e-001
6.252398e-001
6.897221e-001
7.451953e-001
8.049760e-001
8.650767e-001
9.231431e-001
9.775232e-001
1.032051e+000
1.067271e+000
1.060339e+000
1.037454e+000
1.021356e+000
1.008728e+000
9.956904e-001
9.817019e-001
9.678186e-001
9.540397e-001
9.399431e-001
9.246007e-001
9.099421e-001
8.971578e-001
8.830927e-001
8.676032e-001
8.523406e-001
8.370751e-001
8.219779e-001
8.058827e-001
7.897597e-001
7.753675e-001
7.601313e-001
7.433257e-001
7.272972e-001
7.110836e-001
6.951939e-001
6.787827e-001
6.617098e-001
6.461305e-001
6.299997e-001
6.127557e-001
5.968202e-001
5.808500e-001
5.637009e-001
5.465511e-001
5.288069e-001
5.116076e-001
4.947433e-001
4.766246e-001
4.586376e-001
4.410821e-001
4.212887e-001
4.001407e-001
3.798611e-001
3.594015e-001
3.373825e-001
2.847433e-001
1.971778e-001
1.081928e-001
2.580563e-002
-5.492659e-002
-1.318098e-001
-2.076901e-001
-2.811665e-001
-3.712252e-001
-4.988433e-001
-6.063107e-001
-6.702109e-001
-7.271276e-001
-7.871521e-001
-8.460378e-001
-9.048633e-001
-9.596930e-001
-1.014383e+000
-1.048859e+000
-1.041059e+000
-1.020305e+000
-1.005728e+000
-9.930037e-001
-9.804985e-001
-9.678327e-001
-9.537982e-001
-9.402687e-001
-9.266621e-001
-9.123859e-001
-8.978580e-001
-8.830512e-001
-8.676382e-001
-8.523943e-001
-8.361247e-001
-8.199140e-001
-8.049560e-001
-7.889424e-001
-7.719928e-001
-7.558209e-001
-7.394647e-001
-7.234332e-001
-7.068807e-001
-6.896673e-001
-6.739483e-001
-6.576784e-001
-6.402959e-001
-6.242227e-001
-6.081156e-001
-5.914595e-001
-5.752154e-001
-5.583088e-001
-5.413360e-001
-5.249051e-001
-5.076902e-001
-4.905391e-001
-4.737801e-001
-4.558237e-001
-4.375196e-001
-4.194626e-001
-4.009725e-001
-3.811714e-001
-3.614890e-001
-3.405365e-001
-3.181845e-001
-2.600279e-001
-1.707610e-001
-8.486299e-002
-4.496529e-003
7.385343e-002
1.507751e-001
2.270340e-001
2.992922e-001
3.921953e-001
5.232297e-001
6.218592e-001
6.816703e-001
7.394205e-001
7.993095e-001
8.590614e-001
9.166690e-001
9.703902e-001
1.025094e+000
1.055584e+000
1.043289e+000
1.024157e+000
1.010121e+000
9.984985e-001
9.865256e-001
9.735741e-001
9.607286e-001
9.479885e-001
9.349031e-001
9.206304e-001
9.066210e-001
8.925945e-001
8.777220e-001
8.623865e-001
8.477347e-001
8.329195e-001
8.177917e-001
8.016950e-001
7.857140e-001
7.705058e-001
7.540574e-001
7.378481e-001
7.226771e-001
7.076819e-001
6.916172e-001
6.747392e-001
6.583957e-001
6.432420e-001
6.269986e-001
6.102353e-001
5.948499e-001
5.793621e-001
5.630866e-001
5.456620e-001
5.289031e-001
5.127702e-001
4.952010e-001
4.773106e-001
4.598151e-001
4.420982e-001
4.233950e-001
4.038469e-001
3.842869e-001
3.644793e-001
3.413430e-001
2.836365e-001
1.945097e-001
1.063344e-001
2.472360e-002
-5.447263e-002
-1.320369e-001
-2.088228e-001
-2.827499e-001
-3.774944e-001
-5.093891e-001
-6.117785e-001
-6.730212e-001
-7.306445e-001
-7.916929e-001
-8.517749e-001
-9.103526e-001
-9.668746e-001
-1.023513e+000
-1.054847e+000
-1.043013e+000
-1.023918e+000
-1.009703e+000
-9.965885e-001
-9.842385e-001
-9.721414e-001
-9.592807e-001
-9.451451e-001
-9.303777e-001
-9.162039e-001
-9.019348e-001
-8.857690e-001
-8.703546e-001
-8.557738e-001
-8.395061e-001
-8.223037e-001
-8.058802e-001
-7.899032e-001
-7.740345e-001
-7.577949e-001
-7.407644e-001
-7.240908e-001
-7.078008e-001
-6.906626e-001
-6.741820e-001
-6.589204e-001
-6.429912e-001
-6.261832e-001
-6.087149e-001
-5.912832e-001
-5.748384e-001
-5.585753e-001
-5.415558e-001
-5.248708e-001
-5.073458e-001
-4.884489e-001
-4.690231e-001
-4.500933e-001
-4.318712e-001
-4.131805e-001
-3.937307e-001
-3.738759e-001
-3.536829e-001
-3.323382e-001
-3.100617e-001
-2.535337e-001
-1.655384e-001
-7.916297e-002
2.228153e-003
8.076085e-002
1.570780e-001
2.335163e-001
3.059327e-001
3.979089e-001
5.280297e-001
6.288913e-001
6.898591e-001
7.474103e-001
8.072729e-001
8.667051e-001
9.248445e-001
9.796363e-001
1.035755e+000
1.068487e+000
1.058588e+000
1.039795e+000
1.026303e+000
1.014617e+000
1.001886e+000
9.894403e-001
9.773618e-001
9.650348e-001
9.516945e-001
9.381120e-001
9.242734e-001
9.103094e-001
8.953768e-001
8.803457e-001
8.662112e-001
8.513955e-001
8.356744e-001
8.199670e-001
8.045240e-001
7.878994e-001
7.709713e-001
7.547349e-001
7.388215e-001
7.233590e-001
7.065926e-001
6.895950e-001
6.733104e-001
6.566063e-001
6.392989e-001
6.225850e-001
6.060547e-001
5.895421e-001
5.728479e-001
5.541344e-001
5.365727e-001
5.194266e-001
5.011500e-001
4.820407e-001
4.632824e-001
4.450235e-001
4.269539e-001
4.067707e-001
3.854708e-001
3.659129e-001
3.439762e-001
3.002323e-001
2.211917e-001
1.338620e-001
5.308170e-002
-2.657723e-002
-1.047872e-001
-1.804816e-001
-2.539255e-001
-3.384042e-001
-4.549691e-001
-5.693153e-001
-6.407217e-001
-6.985518e-001
-7.591442e-001
-8.178977e-001
-8.761412e-001
-9.330992e-001
-9.884324e-001
-1.030019e+000
-1.034003e+000
-1.016205e+000
-1.002288e+000
-9.895561e-001
-9.780017e-001
-9.671758e-001
-9.553371e-001
-9.419757e-001
-9.284580e-001
-9.153134e-001
-9.023690e-001
-8.876356e-001
-8.727529e-001
-8.585218e-001
-8.439244e-001
-8.276971e-001
-8.115570e-001
-7.965549e-001
-7.816913e-001
-7.654074e-001
-7.479461e-001
-7.318660e-001
-7.157155e-001
-6.980652e-001
-6.812245e-001
-6.659404e-001
-6.500174e-001
-6.334231e-001
-6.162539e-001
-5.995922e-001
-5.827132e-001
-5.643380e-001
-5.462965e-001
-5.296454e-001
-5.120390e-001
-4.928529e-001
-4.740183e-001
-4.557976e-001
-4.359143e-001
-4.147054e-001
-3.943367e-001
-3.744754e-001
-3.537033e-001
-3.315466e-001
-3.086696e-001
-2.453073e-001
-1.532858e-001
-6.746227e-002
1.322108e-002
9.012764e-002
1.658185e-001
2.420809e-001
3.120964e-001
4.073121e-001
5.432002e-001
6.342652e-001
6.896467e-001
7.478701e-001
8.073378e-001
8.663052e-001
9.230763e-001
9.759167e-001
1.031653e+000
1.058485e+000
1.040676e+000
1.023146e+000
1.010222e+000
9.988136e-001
9.862097e-001
9.732598e-001
9.604158e-001
9.470479e-001
9.329227e-001
9.183084e-001
9.037224e-001
8.892790e-001
8.744988e-001
8.585114e-001
8.428818e-001
8.273939e-001
8.106386e-001
7.942100e-001
7.783421e-001
7.618098e-001
7.450594e-001
7.286071e-001
7.117576e-001
6.952351e-001
6.784086e-001
6.614011e-001
6.451716e-001
6.280072e-001
6.097982e-001
5.922224e-001
5.755560e-001
5.581352e-001
5.396995e-001
5.216339e-001
5.035430e-001
4.846264e-001
4.652955e-001
4.459529e-001
4.271634e-001
4.087741e-001
3.887170e-001
3.681942e-001
3.480520e-001
3.267293e-001
3.044748e-001
2.417028e-001
1.495525e-001
6.430747e-002
-1.660339e-002
-9.500337e-002
-1.711885e-001
-2.477796e-001
-3.188598e-001
-4.145070e-001
-5.509026e-001
-6.453333e-001
-7.027037e-001
-7.612472e-001
-8.207314e-001
-8.808724e-001
-9.389957e-001
-9.921649e-001
-1.047856e+000
-1.075327e+000
-1.058505e+000
-1.039996e+000
-1.025235e+000
-1.012476e+000
-1.000152e+000
-9.861064e-001
-9.722010e-001
-9.590642e-001
-9.446260e-001
-9.305663e-001
-9.160110e-001
-9.003697e-001
-8.849845e-001
-8.691752e-001
-8.532083e-001
-8.380426e-001
-8.218224e-001
-8.057468e-001
-7.904445e-001
-7.745035e-001
-7.586706e-001
-7.422874e-001
-7.255426e-001
-7.096605e-001
-6.931424e-001
-6.760200e-001
-6.597046e-001
-6.427907e-001
-6.262392e-001
-6.092329e-001
-5.910955e-001
-5.736193e-001
-5.570520e-001
-5.397013e-001
-5.214214e-001
-5.024027e-001
-4.839928e-001
-4.662821e-001
-4.473720e-001
-4.274546e-001
-4.083648e-001
-3.900985e-001
-3.695628e-001
-3.476412e-001
-3.263489e-001
-2.894179e-001
-2.119799e-001
-1.203834e-001
-3.744380e-002
4.106830e-002
1.180748e-001
1.958058e-001
2.702264e-001
3.501675e-001
4.644336e-001
5.872123e-001
6.618598e-001
7.168533e-001
7.765236e-001
8.372905e-001
8.964349e-001
9.523067e-001
1.007130e+000
1.052339e+000
1.059477e+000
1.037609e+000
1.021416e+000
1.009172e+000
9.971233e-001
9.834955e-001
9.695619e-001
9.557744e-001
9.417103e-001
9.259913e-001
9.103346e-001
8.965348e-001
8.821523e-001
8.657176e-001
8.490359e-001
8.328593e-001
8.167637e-001
7.996973e-001
7.826304e-001
7.672070e-001
7.514457e-001
7.336391e-001
7.159851e-001
6.994766e-001
6.824273e-001
6.646041e-001
6.473262e-001
6.311920e-001
6.141225e-001
5.950141e-001
5.760365e-001
5.582968e-001
5.395440e-001
5.198113e-001
5.006336e-001
4.821940e-001
4.628940e-001
4.421736e-001
4.213836e-001
4.019975e-001
3.814557e-001
3.594995e-001
3.377802e-001
3.155529e-001
2.926126e-001
2.277136e-001
1.337260e-001
4.811114e-002
-3.313121e-002
-1.130691e-001
-1.899183e-001
-2.663969e-001
-3.381867e-001
-4.343881e-001
-5.714422e-001
-6.646317e-001
-7.209673e-001
-7.800028e-001
-8.396548e-001
-8.973242e-001
-9.543965e-001
-1.007785e+000
-1.062222e+000
-1.088388e+000
-1.070318e+000
-1.051054e+000
-1.035955e+000
-1.022382e+000
-1.008075e+000
-9.942741e-001
-9.797681e-001
-9.648113e-001
-9.500848e-001
-9.349945e-001
-9.186985e-001
-9.027903e-001
-8.863099e-001
-8.692601e-001
-8.532313e-001
-8.364165e-001
-8.191848e-001
-8.028466e-001
-7.858463e-001
-7.683016e-001
-7.518028e-001
-7.344283e-001
-7.171407e-001
-7.002682e-001
-6.827364e-001
-6.657708e-001
-6.491328e-001
-6.312332e-001
-6.141162e-001
-5.977777e-001
-5.795467e-001
-5.606052e-001
-5.425149e-001
-5.248569e-001
-5.066924e-001
-4.877595e-001
-4.687197e-001
-4.505032e-001
-4.309467e-001
-4.097565e-001
-3.897580e-001
-3.703158e-001
-3.494537e-001
-3.277435e-001
-3.055251e-001
-2.446489e-001
-1.527765e-001
-6.517831e-002
1.688753e-002
9.561466e-002
1.725978e-001
2.490615e-001
3.199434e-001
4.149796e-001
5.502450e-001
6.475131e-001
7.058683e-001
7.637619e-001
8.230700e-001
8.811333e-001
9.371379e-001
9.905064e-001
1.046002e+000
1.073783e+000
1.057106e+000
1.035952e+000
1.019903e+000
1.005199e+000
9.895302e-001
9.741954e-001
9.594571e-001
9.436682e-001
9.269483e-001
9.103531e-001
8.938537e-001
8.764843e-001
8.576848e-001
8.394354e-001
8.223630e-001
8.042741e-001
7.852595e-001
7.670045e-001
7.492910e-001
7.312158e-001
7.125665e-001
6.943971e-001
6.776349e-001
6.603493e-001
6.419787e-001
6.248302e-001
6.087836e-001
5.921242e-001
5.751838e-001
5.582997e-001
5.419502e-001
5.259253e-001
5.086641e-001
4.914669e-001
4.751122e-001
4.577725e-001
4.394810e-001
4.213507e-001
4.038957e-001
3.863832e-001
3.680708e-001
3.486545e-001
3.289555e-001
3.090034e-001
2.872688e-001
2.395560e-001
1.590964e-001
7.429806e-002
-5.429540e-003
-8.339850e-002
-1.592116e-001
-2.332557e-001
-3.051283e-001
-3.915072e-001
-5.114134e-001
-6.184699e-001
-6.855684e-001
-7.431416e-001
-8.029071e-001
-8.608732e-001
-9.182987e-001
-9.745096e-001
-1.028550e+000
-1.064457e+000
-1.062690e+000
-1.044097e+000
-1.028350e+000
-1.014167e+000
-1.000467e+000
-9.882050e-001
-9.749720e-001
-9.594219e-001
-9.442910e-001
-9.293344e-001
-9.126929e-001
-8.957763e-001
-8.793370e-001
-8.639736e-001
-8.488014e-001
-8.314889e-001
-8.143205e-001
-7.990329e-001
-7.830428e-001
-7.664966e-001
-7.512919e-001
-7.363707e-001
-7.213457e-001
-7.047726e-001
-6.875388e-001
-6.721920e-001
-6.569281e-001
-6.399233e-001
-6.231590e-001
-6.067056e-001
-5.891169e-001
-5.708205e-001
-5.519699e-001
-5.336474e-001
-5.157006e-001
-4.961757e-001
-4.763109e-001
-4.564583e-001
-4.364183e-001
-4.157267e-001
-3.946375e-001
-3.737174e-001
-3.529654e-001
-3.311869e-001
-3.083503e-001
-2.514158e-001
-1.634310e-001
-7.811064e-002
2.923701e-003
8.086469e-002
1.554912e-001
2.299241e-001
3.003579e-001
3.904028e-001
5.182212e-001
6.154534e-001
6.747393e-001
7.309449e-001
7.873810e-001
8.429746e-001
8.978671e-001
9.498150e-001
1.002554e+000
1.030880e+000
1.017397e+000
9.973264e-001
9.809046e-001
9.659172e-001
9.515118e-001
9.377570e-001
9.241346e-001
9.095642e-001
8.945657e-001
8.805994e-001
8.668314e-001
8.519018e-001
8.366318e-001
8.221027e-001
8.074955e-001
7.920101e-001
7.764798e-001
7.616058e-001
7.468697e-001
7.318206e-001
7.155020e-001
6.993286e-001
6.841434e-001
6.681680e-001
6.524293e-001
6.372764e-001
6.214555e-001
6.053845e-001
5.890648e-001
5.720828e-001
5.556928e-001
5.395417e-001
5.226052e-001
5.060313e-001
4.891887e-001
4.717786e-001
4.538321e-001
4.355665e-001
4.174333e-001
3.994320e-001
3.804824e-001
3.605890e-001
3.408364e-001
3.212236e-001
3.000412e-001
2.762523e-001
2.090560e-001
1.166350e-001
3.335678e-002
-4.792013e-002
-1.255043e-001
-1.998035e-001
-2.753020e-001
-3.475810e-001
-4.468127e-001
-5.832707e-001
-6.690373e-001
-7.231559e-001
-7.821432e-001
-8.393018e-001
-8.960056e-001
-9.531114e-001
-1.005905e+000
-1.057842e+000
-1.078198e+000
-1.055855e+000
-1.036966e+000
-1.020952e+000
-1.006384e+000
-9.922514e-001
-9.775736e-001
-9.606943e-001
-9.438771e-001
-9.282296e-001
-9.126665e-001
-8.967086e-001
-8.806797e-001
-8.649169e-001
-8.480600e-001
-8.303936e-001
-8.132942e-001
-7.973025e-001
-7.807038e-001
-7.644309e-001
-7.480601e-001
-7.313277e-001
-7.143782e-001
-6.967981e-001
-6.796987e-001
-6.634061e-001
-6.466941e-001
-6.299148e-001
-6.140631e-001
-5.968176e-001
-5.793940e-001
-5.626220e-001
-5.451901e-001
-5.274588e-001
-5.099081e-001
-4.923085e-001
-4.747380e-001
-4.565822e-001
-4.370851e-001
-4.185705e-001
-3.995887e-001
-3.789480e-001
-3.580651e-001
-3.373914e-001
-3.157319e-001
-2.529510e-001
-1.597120e-001
-7.335547e-002
7.495897e-003
8.694470e-002
1.646236e-001
2.411779e-001
3.125502e-001
4.086379e-001
5.453860e-001
6.405244e-001
6.972259e-001
7.557684e-001
8.160588e-001
8.744634e-001
9.315803e-001
9.855491e-001
1.040577e+000
1.067745e+000
1.050622e+000
1.030826e+000
1.015199e+000
1.001316e+000
9.871772e-001
9.734585e-001
9.590626e-001
9.442154e-001
9.295696e-001
9.146454e-001
8.986655e-001
8.826431e-001
8.668293e-001
8.509437e-001
8.353519e-001
8.192087e-001
8.031462e-001
7.871639e-001
7.712616e-001
7.554388e-001
7.390657e-001
7.229889e-001
7.074710e-001
6.913154e-001
6.748539e-001
6.585383e-001
6.422535e-001
6.261421e-001
6.096387e-001
5.929811e-001
5.770998e-001
5.602534e-001
5.430762e-001
5.264634e-001
5.098479e-001
4.927144e-001
4.752515e-001
4.579111e-001
4.400915e-001
4.214733e-001
4.028036e-001
3.848119e-001
3.657210e-001
3.454864e-001
3.235694e-001
2.694794e-001
1.820425e-001
9.429196e-002
1.293950e-002
-6.559881e-002
-1.421797e-001
-2.191319e-001
-2.922807e-001
-3.842220e-001
-5.130914e-001
-6.170701e-001
-6.797796e-001
-7.371621e-001
-7.967915e-001
-8.552830e-001
-9.130076e-001
-9.678281e-001
-1.022323e+000
-1.053766e+000
-1.044107e+000
-1.023426e+000
-1.006769e+000
-9.923045e-001
-9.782173e-001
-9.645210e-001
-9.502334e-001
-9.350153e-001
-9.197860e-001
-9.049107e-001
-8.889795e-001
-8.730055e-001
-8.572399e-001
-8.407728e-001
-8.248169e-001
-8.081604e-001
-7.917157e-001
-7.758603e-001
-7.593688e-001
-7.431742e-001
-7.269955e-001
-7.098898e-001
-6.934626e-001
-6.776610e-001
-6.610088e-001
-6.453979e-001
-6.292072e-001
-6.124396e-001
-5.960846e-001
-5.790960e-001
-5.625850e-001
-5.468780e-001
-5.301192e-001
-5.128783e-001
-4.960015e-001
-4.779278e-001
-4.595356e-001
-4.419344e-001
-4.241621e-001
-4.054403e-001
-3.860740e-001
-3.668172e-001
-3.474836e-001
-3.267580e-001
-3.044683e-001
-2.710366e-001
-1.991488e-001
-1.094964e-001
-2.780074e-002
4.990724e-002
1.249746e-001
2.004114e-001
2.752874e-001
3.519372e-001
4.580541e-001
5.811284e-001
6.582034e-001
7.120623e-001
7.703918e-001
8.294912e-001
8.880788e-001
9.427819e-001
9.941829e-001
1.040209e+000
1.052056e+000
1.031468e+000
1.014688e+000
1.001417e+000
9.884673e-001
9.741574e-001
9.592733e-001
9.448976e-001
9.302483e-001
9.142188e-001
8.983107e-001
8.829383e-001
8.671703e-001
8.508801e-001
8.346430e-001
8.179151e-001
8.010924e-001
7.841395e-001
7.676006e-001
7.518022e-001
7.354533e-001
7.193722e-001
7.039359e-001
6.873829e-001
6.703117e-001
6.546482e-001
6.387979e-001
6.226402e-001
6.061767e-001
5.895304e-001
5.736602e-001
5.568534e-001
5.390002e-001
5.224078e-001
5.065055e-001
4.887370e-001
4.702556e-001
4.525947e-001
4.354499e-001
4.173173e-001
3.975725e-001
3.779391e-001
3.591956e-001
3.384629e-001
3.156934e-001
2.551687e-001
1.658478e-001
8.075183e-002
-1.276173e-003
-8.075199e-002
-1.567136e-001
-2.326395e-001
-3.048812e-001
-3.998830e-001
-5.345508e-001
-6.305160e-001
-6.896857e-001
-7.492692e-001
-8.085227e-001
-8.659245e-001
-9.231518e-001
-9.777449e-001
-1.033544e+000
-1.062085e+000
-1.046035e+000
-1.027163e+000
-1.012242e+000
-9.980946e-001
-9.845032e-001
-9.722797e-001
-9.594656e-001
-9.450700e-001
-9.305458e-001
-9.157641e-001
-9.013991e-001
-8.863826e-001
-8.708543e-001
-8.559458e-001
-8.413898e-001
-8.251467e-001
-8.090769e-001
-7.943239e-001
-7.785641e-001
-7.628617e-001
-7.471729e-001
-7.314198e-001
-7.158597e-001
-6.992979e-001
-6.827045e-001
-6.678667e-001
-6.521235e-001
-6.345991e-001
-6.186991e-001
-6.030921e-001
-5.864612e-001
-5.691402e-001
-5.523336e-001
-5.366682e-001
-5.200936e-001
-5.020213e-001
-4.843388e-001
-4.682529e-001
-4.503877e-001
-4.310312e-001
-4.123137e-001
-3.943319e-001
-3.747722e-001
-3.538853e-001
-3.318628e-001
-2.787758e-001
-1.923369e-001
-1.038419e-001
-2.204899e-002
5.647742e-002
1.331324e-001
2.101013e-001
2.833528e-001
3.743166e-001
5.021275e-001
6.072690e-001
6.704202e-001
7.273770e-001
7.871473e-001
8.456362e-001
9.034726e-001
9.579542e-001
1.011783e+000
1.044387e+000
1.034774e+000
1.013033e+000
9.971431e-001
9.831129e-001
9.690081e-001
9.554087e-001
9.410746e-001
9.270043e-001
9.124668e-001
8.975011e-001
8.830888e-001
8.681191e-001
8.529601e-001
8.375975e-001
8.225626e-001
8.073521e-001
7.924968e-001
7.773507e-001
7.624947e-001
7.472979e-001
7.320262e-001
7.175888e-001
7.028869e-001
6.885377e-001
6.739810e-001
6.592044e-001
6.433288e-001
6.277468e-001
6.126355e-001
5.980209e-001
5.836363e-001
5.685434e-001
5.532968e-001
5.376464e-001
5.209439e-001
5.043310e-001
4.889153e-001
4.728390e-001
4.565200e-001
4.393016e-001
4.210741e-001
4.030932e-001
3.847074e-001
3.655534e-001
3.461498e-001
2.989889e-001
2.160675e-001
1.286459e-001
4.791513e-002
-3.053233e-002
-1.066017e-001
-1.813381e-001
-2.533569e-001
-3.412610e-001
-4.652651e-001
-5.743101e-001
-6.401037e-001
-6.965408e-001
-7.572328e-001
-8.158896e-001
-8.730283e-001
-9.298603e-001
-9.865346e-001
-1.022388e+000
-1.017925e+000
-9.979516e-001
-9.828633e-001
-9.695374e-001
-9.554181e-001
-9.426186e-001
-9.301023e-001
-9.150011e-001
-8.994156e-001
-8.850573e-001
-8.696180e-001
-8.539613e-001
-8.383605e-001
-8.225726e-001
-8.071923e-001
-7.901515e-001
-7.731674e-001
-7.574622e-001
-7.406415e-001
-7.233040e-001
-7.073756e-001
-6.918911e-001
-6.758830e-001
-6.590897e-001
-6.422011e-001
-6.266910e-001
-6.106574e-001
-5.935384e-001
-5.776131e-001
-5.628471e-001
-5.470468e-001
-5.297024e-001
-5.126306e-001
-4.959436e-001
-4.797113e-001
-4.621214e-001
-4.447256e-001
-4.286519e-001
-4.115917e-001
-3.930998e-001
-3.746416e-001
-3.557239e-001
-3.364269e-001
-3.164023e-001
-2.939154e-001
-2.324490e-001
-1.414753e-001
-5.612127e-002
2.430518e-002
1.026666e-001
1.792570e-001
2.550289e-001
3.261587e-001
4.220413e-001
5.571119e-001
6.511248e-001
7.078430e-001
7.663161e-001
8.265375e-001
8.849594e-001
9.415864e-001
9.949393e-001
1.050135e+000
1.076411e+000
1.058766e+000
1.039016e+000
1.024578e+000
1.011478e+000
9.971897e-001
9.833797e-001
9.694007e-001
9.553334e-001
9.404623e-001
9.252931e-001
9.101124e-001
8.959149e-001
8.804437e-001
8.644489e-001
8.493778e-001
8.339885e-001
8.184119e-001
8.023980e-001
7.863499e-001
7.708607e-001
7.556916e-001
7.392537e-001
7.229616e-001
7.070287e-001
6.905238e-001
6.741075e-001
6.577794e-001
6.415105e-001
6.253866e-001
6.089282e-001
5.919226e-001
5.750021e-001
5.581662e-001
5.407850e-001
5.230757e-001
5.055185e-001
4.880267e-001
4.699991e-001
4.516526e-001
4.334390e-001
4.147282e-001
3.952870e-001
3.747538e-001
3.538635e-001
3.332107e-001
2.687996e-001
1.747960e-001
8.970736e-002
8.551691e-003
-6.989226e-002
-1.465713e-001
-2.240679e-001
-2.952269e-001
-3.924381e-001
-5.320276e-001
-6.244723e-001
-6.795878e-001
-7.381023e-001
-7.976926e-001
-8.572517e-001
-9.161753e-001
-9.704198e-001
-1.026152e+000
-1.051747e+000
-1.031759e+000
-1.012138e+000
-9.977997e-001
-9.851907e-001
-9.726859e-001
-9.601064e-001
-9.457651e-001
-9.312090e-001
-9.164524e-001
-9.020265e-001
-8.873996e-001
-8.725592e-001
-8.572271e-001
-8.420353e-001
-8.257890e-001
-8.097159e-001
-7.937008e-001
-7.777435e-001
-7.625873e-001
-7.461622e-001
-7.300336e-001
-7.145501e-001
-6.979217e-001
-6.814908e-001
-6.657714e-001
-6.491725e-001
-6.336147e-001
-6.175053e-001
-6.013621e-001
-5.858926e-001
-5.695208e-001
-5.530801e-001
-5.374145e-001
-5.206969e-001
-5.035255e-001
-4.866319e-001
-4.696496e-001
-4.523433e-001
-4.334556e-001
-4.155474e-001
-3.974047e-001
-3.779642e-001
-3.575460e-001
-3.367417e-001
-3.161462e-001
-2.531651e-001
-1.595912e-001
-7.486657e-002
4.496290e-003
8.316508e-002
1.596168e-001
2.358792e-001
3.061597e-001
4.020900e-001
5.398253e-001
6.321061e-001
6.871732e-001
7.458118e-001
8.055840e-001
8.641451e-001
9.213258e-001
9.752093e-001
1.031569e+000
1.057818e+000
1.039854e+000
1.021825e+000
1.007777e+000
9.957803e-001
9.838210e-001
9.712696e-001
9.584580e-001
9.452730e-001
9.313513e-001
9.173046e-001
9.027684e-001
8.888895e-001
8.749354e-001
8.601634e-001
8.448994e-001
8.297468e-001
8.142549e-001
7.976101e-001
7.811769e-001
7.657832e-001
7.499654e-001
7.325813e-001
7.155620e-001
6.996850e-001
6.836792e-001
6.668306e-001
6.505450e-001
6.353919e-001
6.192924e-001
6.018012e-001
5.847840e-001
5.693465e-001
5.535361e-001
5.360957e-001
5.187776e-001
5.022742e-001
4.848149e-001
4.663470e-001
4.490633e-001
4.322999e-001
4.141668e-001
3.947568e-001
3.741978e-001
3.533677e-001
3.310659e-001
2.802486e-001
2.010974e-001
1.216190e-001
4.604492e-002
-2.709333e-002
-9.750699e-002
-1.669933e-001
-2.326581e-001
-3.138532e-001
-4.262580e-001
-5.171860e-001
-5.717510e-001
-6.206323e-001
-6.702692e-001
-7.180150e-001
-7.644804e-001
-8.084241e-001
-8.509060e-001
-8.729576e-001
-8.586874e-001
-8.348643e-001
-8.155175e-001
-7.967982e-001
-7.787959e-001
-7.626724e-001
-7.465598e-001
-7.298222e-001
-7.141714e-001
-7.006535e-001
-6.876344e-001
-6.737679e-001
-6.604020e-001
-6.485280e-001
-6.373017e-001
-6.261187e-001
-6.153146e-001
-6.062960e-001
-5.979743e-001
-5.883082e-001
-5.793422e-001
-5.715230e-001
-5.636509e-001
-5.564984e-001
-5.491037e-001
-5.416541e-001
-5.350429e-001
-5.273283e-001
-5.190228e-001
-5.114802e-001
-5.038672e-001
-4.961474e-001
-4.876423e-001
-4.781763e-001
-4.688625e-001
-4.585344e-001
-4.472257e-001
-4.360208e-001
-4.242613e-001
-4.124296e-001
-3.994678e-001
-3.847886e-001
-3.699234e-001
-3.541291e-001
-3.366952e-001
-2.819589e-001
-1.968890e-001
-1.158450e-001
-3.975797e-002
3.494306e-002
1.085207e-001
1.816822e-001
2.499877e-001
3.410394e-001
4.712201e-001
5.655975e-001
6.230386e-001
6.800610e-001
7.391129e-001
7.975960e-001
8.540636e-001
9.074588e-001
9.626678e-001
9.921671e-001
9.787226e-001
9.605206e-001
9.468656e-001
9.351447e-001
9.228591e-001
9.102259e-001
8.976972e-001
8.846428e-001
8.708297e-001
8.565258e-001
8.428782e-001
8.291540e-001
8.146110e-001
7.989453e-001
7.836074e-001
7.690392e-001
7.530132e-001
7.367456e-001
7.222318e-001
7.076479e-001
6.915137e-001
6.746809e-001
6.582681e-001
6.435240e-001
6.279309e-001
6.110995e-001
5.961248e-001
5.812601e-001
5.643456e-001
5.464996e-001
5.298001e-001
5.142698e-001
4.977437e-001
4.801982e-001
4.632542e-001
4.460149e-001
4.274307e-001
4.083161e-001
3.896674e-001
3.718111e-001
3.530056e-001
3.332273e-001
3.136750e-001
2.931536e-001
2.710670e-001
2.109798e-001
1.212727e-001
3.695939e-002
-4.274441e-002
-1.206641e-001
-1.961632e-001
-2.714854e-001
-3.429690e-001
-4.373389e-001
-5.706490e-001
-6.659227e-001
-7.233686e-001
-7.810238e-001
-8.401469e-001
-8.984352e-001
-9.564524e-001
-1.011339e+000
-1.066444e+000
-1.094616e+000
-1.079672e+000
-1.061001e+000
-1.046849e+000
-1.034577e+000
-1.022823e+000
-1.010775e+000
-9.973288e-001
-9.827541e-001
-9.684443e-001
-9.546908e-001
-9.402968e-001
-9.255658e-001
-9.110355e-001
-8.961121e-001
-8.800963e-001
-8.639025e-001
-8.474022e-001
-8.318058e-001
-8.163793e-001
-7.996852e-001
-7.832890e-001
-7.675392e-001
-7.506459e-001
-7.333219e-001
-7.169283e-001
-7.001372e-001
-6.836728e-001
-6.669041e-001
-6.499541e-001
-6.337819e-001
-6.166744e-001
-5.985221e-001
-5.810027e-001
-5.637629e-001
-5.453566e-001
-5.266333e-001
-5.086742e-001
-4.906318e-001
-4.711626e-001
-4.514676e-001
-4.316695e-001
-4.115330e-001
-3.912026e-001
-3.696066e-001
-3.481599e-001
-2.850187e-001
-1.913430e-001
-1.060385e-001
-2.591269e-002
5.297168e-002
1.291593e-001
2.049445e-001
2.760092e-001
3.725052e-001
5.103250e-001
6.027756e-001
6.573538e-001
7.163498e-001
7.767703e-001
8.346966e-001
8.920530e-001
9.467758e-001
1.002597e+000
1.028668e+000
1.009811e+000
9.906290e-001
9.770851e-001
9.636149e-001
9.490594e-001
9.360545e-001
9.224406e-001
9.077704e-001
8.933576e-001
8.784650e-001
8.635597e-001
8.485566e-001
8.316544e-001
8.155296e-001
8.001785e-001
7.841887e-001
7.683074e-001
7.525055e-001
7.367541e-001
7.205380e-001
7.035092e-001
6.870443e-001
6.716837e-001
6.557132e-001
6.394358e-001
6.232749e-001
6.072300e-001
5.908786e-001
5.732927e-001
5.564018e-001
5.407669e-001
5.240798e-001
5.064601e-001
4.889921e-001
4.715606e-001
4.536788e-001
4.349988e-001
4.156097e-001
3.972024e-001
3.789569e-001
3.594639e-001
3.396594e-001
3.200810e-001
3.001346e-001
2.784917e-001
2.374010e-001
1.591923e-001
7.103960e-002
-1.017346e-002
-8.977715e-002
-1.666388e-001
-2.413789e-001
-3.149395e-001
-3.976124e-001
-5.122809e-001
-6.292957e-001
-7.022707e-001
-7.589669e-001
-8.189316e-001
-8.773679e-001
-9.350591e-001
-9.920100e-001
-1.046298e+000
-1.087751e+000
-1.093053e+000
-1.073963e+000
-1.058045e+000
-1.044129e+000
-1.030237e+000
-1.017150e+000
-1.003782e+000
-9.880980e-001
-9.727765e-001
-9.586808e-001
-9.439179e-001
-9.276118e-001
-9.105571e-001
-8.940729e-001
-8.783641e-001
-8.609674e-001
-8.436002e-001
-8.278781e-001
-8.117911e-001
-7.943757e-001
-7.764180e-001
-7.595438e-001
-7.438904e-001
-7.271498e-001
-7.098635e-001
-6.934140e-001
-6.766033e-001
-6.592757e-001
-6.419772e-001
-6.245285e-001
-6.074450e-001
-5.900953e-001
-5.715512e-001
-5.533203e-001
-5.356652e-001
-5.179902e-001
-4.998661e-001
-4.810025e-001
-4.610094e-001
-4.413942e-001
-4.218832e-001
-4.009168e-001
-3.804899e-001
-3.601415e-001
-3.389280e-001
-2.739447e-001
-1.801521e-001
-9.535980e-002
-1.628719e-002
6.125569e-002
1.376737e-001
2.128789e-001
2.826937e-001
3.790812e-001
5.173218e-001
6.073082e-001
6.602568e-001
7.177449e-001
7.764647e-001
8.336854e-001
8.901254e-001
9.431006e-001
9.974694e-001
1.021953e+000
1.000694e+000
9.807748e-001
9.656819e-001
9.518150e-001
9.384738e-001
9.248762e-001
9.098012e-001
8.947142e-001
8.798947e-001
8.638965e-001
8.481988e-001
8.336652e-001
8.189676e-001
8.028488e-001
7.858521e-001
7.695764e-001
7.532312e-001
7.366745e-001
7.204074e-001
7.052154e-001
6.897701e-001
6.729648e-001
6.555857e-001
6.387721e-001
6.228290e-001
6.065428e-001
5.904666e-001
5.739908e-001
5.573682e-001
5.406780e-001
5.240137e-001
5.067458e-001
4.896279e-001
4.728450e-001
4.549507e-001
4.362582e-001
4.175146e-001
4.000788e-001
3.825854e-001
3.636625e-001
3.438533e-001
3.248712e-001
3.053322e-001
2.841880e-001
2.627405e-001
2.009789e-001
1.102849e-001
2.591037e-002
-5.515604e-002
-1.323660e-001
-2.060224e-001
-2.811191e-001
-3.512910e-001
-4.455833e-001
-5.804234e-001
-6.720475e-001
-7.272615e-001
-7.856971e-001
-8.434796e-001
-9.000691e-001
-9.567822e-001
-1.010200e+000
-1.064603e+000
-1.089526e+000
-1.070557e+000
-1.051198e+000
-1.036284e+000
-1.021480e+000
-1.006705e+000
-9.933668e-001
-9.795359e-001
-9.635418e-001
-9.477833e-001
-9.327457e-001
-9.165021e-001
-8.995665e-001
-8.820638e-001
-8.650764e-001
-8.491097e-001
-8.319066e-001
-8.140741e-001
-7.977391e-001
-7.808279e-001
-7.628933e-001
-7.457920e-001
-7.290770e-001
-7.122312e-001
-6.953198e-001
-6.778350e-001
-6.608878e-001
-6.442682e-001
-6.270447e-001
-6.103001e-001
-5.943322e-001
-5.773996e-001
-5.595073e-001
-5.417679e-001
-5.240949e-001
-5.058868e-001
-4.873609e-001
-4.689688e-001
-4.500804e-001
-4.304624e-001
-4.103827e-001
-3.903587e-001
-3.705045e-001
-3.497111e-001
-3.279549e-001
-3.051757e-001
-2.472538e-001
-1.566411e-001
-6.826842e-002
1.339481e-002
9.177712e-002
1.684807e-001
2.454319e-001
3.175494e-001
4.099923e-001
5.408828e-001
6.416578e-001
7.011718e-001
7.573177e-001
8.161524e-001
8.752258e-001
9.329507e-001
9.864579e-001
1.040548e+000
1.070511e+000
1.056986e+000
1.035785e+000
1.020133e+000
1.006339e+000
9.933995e-001
9.800870e-001
9.655600e-001
9.507824e-001
9.362708e-001
9.214442e-001
9.064336e-001
8.909606e-001
8.755142e-001
8.595791e-001
8.435514e-001
8.267378e-001
8.106152e-001
7.952947e-001
7.793355e-001
7.634561e-001
7.477420e-001
7.315994e-001
7.154090e-001
6.994504e-001
6.827278e-001
6.669326e-001
6.510656e-001
6.354064e-001
6.197031e-001
6.035773e-001
5.875957e-001
5.711282e-001
5.538270e-001
5.365534e-001
5.194723e-001
5.017025e-001
4.838269e-001
4.648230e-001
4.461697e-001
4.276793e-001
4.085721e-001
3.889372e-001
3.690488e-001
3.482506e-001
3.253165e-001
2.704161e-001
1.827601e-001
9.658794e-002
1.609881e-002
-6.241530e-002
-1.387789e-001
-2.145487e-001
-2.867070e-001
-3.766756e-001
-5.032531e-001
-6.048654e-001
-6.660565e-001
-7.237592e-001
-7.832783e-001
-8.420192e-001
-8.993138e-001
-9.527149e-001
-1.006321e+000
-1.037860e+000
-1.027933e+000
-1.008359e+000
-9.934039e-001
-9.797601e-001
-9.663401e-001
-9.526783e-001
-9.387892e-001
-9.246891e-001
-9.100997e-001
-8.956244e-001
-8.807841e-001
-8.654805e-001
-8.491231e-001
-8.329110e-001
-8.174729e-001
-8.007673e-001
-7.843880e-001
-7.685692e-001
-7.520857e-001
-7.360134e-001
-7.193920e-001
-7.021099e-001
-6.863510e-001
-6.699555e-001
-6.535562e-001
-6.384612e-001
-6.222193e-001
-6.055151e-001
-5.898241e-001
-5.726240e-001
-5.557527e-001
-5.396871e-001
-5.227215e-001
-5.061470e-001
-4.887028e-001
-4.701647e-001
-4.523535e-001
-4.343507e-001
-4.149486e-001
-3.965568e-001
-3.776688e-001
-3.578084e-001
-3.377242e-001
-3.164592e-001
-2.942337e-001
-2.504593e-001
-1.696725e-001
-8.074677e-002
-7.250931e-005
7.855219e-002
1.550184e-001
2.303785e-001
3.036825e-001
3.867617e-001
5.036344e-001
6.172761e-001
6.856060e-001
7.398436e-001
7.989119e-001
8.568768e-001
9.133480e-001
9.672914e-001
1.019561e+000
1.058936e+000
1.059807e+000
1.037882e+000
1.021805e+000
1.008146e+000
9.940549e-001
9.801545e-001
9.655859e-001
9.517607e-001
9.381602e-001
9.229964e-001
9.078495e-001
8.929704e-001
8.768845e-001
8.611854e-001
8.449130e-001
8.286996e-001
8.132887e-001
7.966101e-001
7.802292e-001
7.638653e-001
7.465753e-001
7.299646e-001
7.139805e-001
6.971467e-001
6.807257e-001
6.639433e-001
6.470656e-001
6.311444e-001
6.137723e-001
5.966154e-001
5.808018e-001
5.639085e-001
5.460836e-001
5.284397e-001
5.107475e-001
4.937142e-001
4.765080e-001
4.578922e-001
4.402769e-001
4.221837e-001
4.024212e-001
3.824345e-001
3.625888e-001
3.421683e-001
3.209034e-001
2.630212e-001
1.734553e-001
8.786039e-002
7.051709e-003
-7.216091e-002
-1.482824e-001
-2.237175e-001
-2.956854e-001
-3.883003e-001
-5.197056e-001
-6.190330e-001
-6.787662e-001
-7.370035e-001
-7.971412e-001
-8.549521e-001
-9.121653e-001
-9.666655e-001
-1.020714e+000
-1.050193e+000
-1.037586e+000
-1.017850e+000
-1.002911e+000
-9.895261e-001
-9.759491e-001
-9.631390e-001
-9.493545e-001
-9.345721e-001
-9.199907e-001
-9.056743e-001
-8.905917e-001
-8.751120e-001
-8.591438e-001
-8.435049e-001
-8.273784e-001
-8.108599e-001
-7.948453e-001
-7.793033e-001
-7.640535e-001
-7.477070e-001
-7.305200e-001
-7.139836e-001
-6.980733e-001
-6.813413e-001
-6.655652e-001
-6.496888e-001
-6.334482e-001
-6.169881e-001
-5.998950e-001
-5.832801e-001
-5.674696e-001
-5.512372e-001
-5.349352e-001
-5.189291e-001
-5.017441e-001
-4.842300e-001
-4.668670e-001
-4.489390e-001
-4.306918e-001
-4.126053e-001
-3.945646e-001
-3.760544e-001
-3.561832e-001
-3.347786e-001
-3.125413e-001
-2.594199e-001
-1.722177e-001
-8.437295e-002
-3.184404e-003
7.512528e-002
1.524510e-001
2.302008e-001
3.039649e-001
3.944166e-001
5.215611e-001
6.267914e-001
6.903460e-001
7.470761e-001
8.064923e-001
8.661596e-001
9.236668e-001
9.782146e-001
1.032402e+000
1.065162e+000
1.057142e+000
1.036985e+000
1.021235e+000
1.007544e+000
9.941136e-001
9.805772e-001
9.673288e-001
9.528940e-001
9.380939e-001
9.234949e-001
9.085315e-001
8.930196e-001
8.775913e-001
8.622178e-001
8.469847e-001
8.320421e-001
8.163305e-001
8.002188e-001
7.842736e-001
7.683797e-001
7.525652e-001
7.362288e-001
7.194732e-001
7.039728e-001
6.885277e-001
6.714284e-001
6.547209e-001
6.385248e-001
6.223874e-001
6.059724e-001
5.889242e-001
5.724114e-001
5.562814e-001
5.384946e-001
5.207967e-001
5.042954e-001
4.871612e-001
4.690967e-001
4.514004e-001
4.335910e-001
4.154616e-001
3.964130e-001
3.767854e-001
3.579902e-001
3.364257e-001
2.857487e-001
2.010073e-001
1.139192e-001
3.312597e-002
-4.544016e-002
-1.220273e-001
-1.972560e-001
-2.703133e-001
-3.601357e-001
-4.841374e-001
-5.918205e-001
-6.570654e-001
-7.136569e-001
-7.730005e-001
-8.324182e-001
-8.903928e-001
-9.454194e-001
-9.992111e-001
-1.033034e+000
-1.027872e+000
-1.007317e+000
-9.912432e-001
-9.787305e-001
-9.669509e-001
-9.530554e-001
-9.383628e-001
-9.239072e-001
-9.091363e-001
-8.948390e-001
-8.797755e-001
-8.647365e-001
-8.501365e-001
-8.339356e-001
-8.173147e-001
-8.017626e-001
-7.863309e-001
-7.702245e-001
-7.546273e-001
-7.382995e-001
-7.222676e-001
-7.063444e-001
-6.895710e-001
-6.737254e-001
-6.578940e-001
-6.411338e-001
-6.244209e-001
-6.079201e-001
-5.912650e-001
-5.754146e-001
-5.585131e-001
-5.417596e-001
-5.257829e-001
-5.085413e-001
-4.909993e-001
-4.736085e-001
-4.562540e-001
-4.390781e-001
-4.208862e-001
-4.021335e-001
-3.842311e-001
-3.653513e-001
-3.448981e-001
-3.235724e-001
-3.019570e-001
-2.497186e-001
-1.643896e-001
-7.806594e-002
2.179754e-003
8.007250e-002
1.561457e-001
2.331063e-001
3.059059e-001
3.941108e-001
5.197135e-001
6.228301e-001
6.848616e-001
7.411986e-001
7.997816e-001
8.582485e-001
9.161428e-001
9.690319e-001
1.021591e+000
1.054076e+000
1.045454e+000
1.024726e+000
1.009280e+000
9.960414e-001
9.830612e-001
9.691934e-001
9.543281e-001
9.395783e-001
9.249719e-001
9.105730e-001
8.958871e-001
8.809880e-001
8.650540e-001
8.489705e-001
8.321872e-001
8.156447e-001
7.996061e-001
7.834110e-001
7.677256e-001
7.514242e-001
7.341963e-001
7.176476e-001
7.017250e-001
6.849525e-001
6.692219e-001
6.529121e-001
6.360260e-001
6.195530e-001
6.018176e-001
5.847780e-001
5.690236e-001
5.521317e-001
5.347868e-001
5.178065e-001
4.996015e-001
4.811645e-001
4.624106e-001
4.441209e-001
4.264073e-001
4.078947e-001
3.882794e-001
3.683822e-001
3.482330e-001
3.269317e-001
3.046126e-001
2.441434e-001
1.538554e-001
6.839825e-002
-1.183661e-002
-8.986361e-002
-1.655268e-001
-2.410124e-001
-3.126011e-001
-4.074967e-001
-5.413075e-001
-6.367279e-001
-6.939682e-001
-7.513967e-001
-8.107152e-001
-8.691404e-001
-9.266645e-001
-9.813321e-001
-1.036276e+000
-1.062967e+000
-1.046728e+000
-1.027662e+000
-1.013003e+000
-9.999249e-001
-9.869537e-001
-9.740602e-001
-9.609080e-001
-9.460902e-001
-9.306947e-001
-9.167621e-001
-9.022474e-001
-8.860739e-001
-8.702877e-001
-8.550081e-001
-8.397827e-001
-8.242751e-001
-8.075004e-001
-7.914741e-001
-7.763067e-001
-7.593919e-001
-7.425900e-001
-7.269802e-001
-7.113341e-001
-6.958806e-001
-6.793963e-001
-6.623366e-001
-6.467704e-001
-6.305668e-001
-6.137573e-001
-5.977533e-001
-5.811490e-001
-5.642763e-001
-5.471649e-001
-5.294013e-001
-5.122113e-001
-4.946982e-001
-4.762058e-001
-4.579330e-001
-4.393142e-001
-4.201651e-001
-4.011178e-001
-3.815141e-001
-3.610273e-001
-3.392470e-001
-3.165723e-001
-2.512573e-001
-1.586639e-001
-7.566506e-002
3.660692e-003
8.109775e-002
1.570812e-001
2.332048e-001
3.033107e-001
3.998446e-001
5.370863e-001
6.254284e-001
6.794006e-001
7.388657e-001
7.983810e-001
8.565874e-001
9.128371e-001
9.657029e-001
1.021272e+000
1.045657e+000
1.025588e+000
1.007630e+000
9.933019e-001
9.803740e-001
9.668650e-001
9.529923e-001
9.393221e-001
9.252605e-001
9.107094e-001
8.958221e-001
8.803575e-001
8.650337e-001
8.493715e-001
8.331581e-001
8.176553e-001
8.020156e-001
7.859755e-001
7.701015e-001
7.542784e-001
7.379050e-001
7.212268e-001
7.052392e-001
6.895733e-001
6.743571e-001
6.584651e-001
6.421232e-001
6.266418e-001
6.106085e-001
5.934614e-001
5.769929e-001
5.607069e-001
5.437220e-001
5.272792e-001
5.100525e-001
4.928895e-001
4.761187e-001
4.581506e-001
4.398349e-001
4.217663e-001
4.032648e-001
3.847110e-001
3.664704e-001
3.464104e-001
3.256842e-001
3.041441e-001
2.438570e-001
1.546374e-001
7.116661e-002
-8.027528e-003
-8.442460e-002
-1.594591e-001
-2.350406e-001
-3.049939e-001
-3.982050e-001
-5.304255e-001
-6.238140e-001
-6.805489e-001
-7.386697e-001
-7.971695e-001
-8.548959e-001
-9.111750e-001
-9.642115e-001
-1.019264e+000
-1.047049e+000
-1.031570e+000
-1.014276e+000
-1.000959e+000
-9.876513e-001
-9.747166e-001
-9.618592e-001
-9.484780e-001
-9.349974e-001
-9.207242e-001
-9.071071e-001
-8.937137e-001
-8.782123e-001
-8.624369e-001
-8.472825e-001
-8.316170e-001
-8.159360e-001
-8.004618e-001
-7.848857e-001
-7.696878e-001
-7.528283e-001
-7.360532e-001
-7.204700e-001
-7.042494e-001
-6.877233e-001
-6.719727e-001
-6.560358e-001
-6.397920e-001
-6.232427e-001
-6.065110e-001
-5.905559e-001
-5.736646e-001
-5.557274e-001
-5.390514e-001
-5.230658e-001
-5.058439e-001
-4.883215e-001
-4.709218e-001
-4.530148e-001
-4.343956e-001
-4.152461e-001
-3.965628e-001
-3.786720e-001
-3.598322e-001
-3.387609e-001
-3.170919e-001
-2.568260e-001
-1.670980e-001
-8.299902e-002
-3.336744e-003
7.313341e-002
1.477621e-001
2.238333e-001
2.954469e-001
3.888652e-001
5.212421e-001
6.151714e-001
6.725444e-001
7.300982e-001
7.888201e-001
8.480254e-001
9.057761e-001
9.583894e-001
1.012449e+000
1.040926e+000
1.025951e+000
1.007541e+000
9.935936e-001
9.820318e-001
9.702047e-001
9.562904e-001
9.424868e-001
9.299014e-001
9.168841e-001
9.027076e-001
8.881645e-001
8.737928e-001
8.591415e-001
8.428320e-001
8.266102e-001
8.121845e-001
7.975943e-001
7.822119e-001
7.663627e-001
7.505360e-001
7.348743e-001
7.188407e-001
7.025871e-001
6.881521e-001
6.737894e-001
6.577610e-001
6.421130e-001
6.269934e-001
6.112341e-001
5.951954e-001
5.798439e-001
5.647827e-001
5.496245e-001
5.328967e-001
5.155722e-001
4.990909e-001
4.816536e-001
4.631792e-001
4.453454e-001
4.277705e-001
4.090942e-001
3.896872e-001
3.691596e-001
3.483608e-001
3.273205e-001
2.635682e-001
1.729387e-001
9.191017e-002
1.408254e-002
-6.206198e-002
-1.368290e-001
-2.117199e-001
-2.799698e-001
-3.742643e-001
-5.086423e-001
-5.953878e-001
-6.479944e-001
-7.061244e-001
-7.646203e-001
-8.219287e-001
-8.767352e-001
-9.284017e-001
-9.824777e-001
-1.006427e+000
-9.871891e-001
-9.704517e-001
-9.573378e-001
-9.445958e-001
-9.321095e-001
-9.192982e-001
-9.062927e-001
-8.921854e-001
-8.783122e-001
-8.644211e-001
-8.497118e-001
-8.344528e-001
-8.197263e-001
-8.052655e-001
-7.897101e-001
-7.739459e-001
-7.585883e-001
-7.434359e-001
-7.271289e-001
-7.111178e-001
-6.956369e-001
-6.802335e-001
-6.644568e-001
-6.479153e-001
-6.316424e-001
-6.156003e-001
-5.991375e-001
-5.831781e-001
-5.683491e-001
-5.528789e-001
-5.371569e-001
-5.211559e-001
-5.045771e-001
-4.874801e-001
-4.699961e-001
-4.530558e-001
-4.368708e-001
-4.190989e-001
-4.005919e-001
-3.826972e-001
-3.648472e-001
-3.454471e-001
-3.246906e-001
-3.041141e-001
-2.843747e-001
-2.220959e-001
-1.307948e-001
-4.943491e-002
2.825136e-002
1.044194e-001
1.795182e-001
2.542531e-001
3.225845e-001
4.153375e-001
5.494689e-001
6.383359e-001
6.918810e-001
7.503163e-001
8.086582e-001
8.662717e-001
9.223898e-001
9.743751e-001
1.028468e+000
1.054708e+000
1.037456e+000
1.020857e+000
1.008032e+000
9.958136e-001
9.840624e-001
9.715958e-001
9.593260e-001
9.469729e-001
9.336147e-001
9.201861e-001
9.061080e-001
8.917277e-001
8.771746e-001
8.623218e-001
8.474560e-001
8.329424e-001
8.167416e-001
8.007138e-001
7.853731e-001
7.692431e-001
7.536508e-001
7.373563e-001
7.212433e-001
7.058037e-001
6.892475e-001
6.721446e-001
6.565355e-001
6.402607e-001
6.240957e-001
6.086694e-001
5.923621e-001
5.764366e-001
5.596321e-001
5.417529e-001
5.245336e-001
5.081644e-001
4.914320e-001
4.750038e-001
4.576768e-001
4.394270e-001
4.209169e-001
4.012466e-001
3.818093e-001
3.628030e-001
3.423239e-001
2.923191e-001
2.097287e-001
1.249888e-001
4.659225e-002
-2.964450e-002
-1.039261e-001
-1.761434e-001
-2.459320e-001
-3.327000e-001
-4.540779e-001
-5.559529e-001
-6.179516e-001
-6.733871e-001
-7.319049e-001
-7.888589e-001
-8.440633e-001
-8.974947e-001
-9.505092e-001
-9.832253e-001
-9.765485e-001
-9.577915e-001
-9.434983e-001
-9.307559e-001
-9.181468e-001
-9.055561e-001
-8.924685e-001
-8.792517e-001
-8.646690e-001
-8.499362e-001
-8.348031e-001
-8.192224e-001
-8.042043e-001
-7.886380e-001
-7.722334e-001
-7.559095e-001
-7.393522e-001
-7.221259e-001
-7.057720e-001
-6.890488e-001
-6.732531e-001
-6.569927e-001
-6.396772e-001
-6.225342e-001
-6.054769e-001
-5.884190e-001
-5.719534e-001
-5.550692e-001
-5.377035e-001
-5.213320e-001
-5.041762e-001
-4.866337e-001
-4.692709e-001
-4.513146e-001
-4.330967e-001
-4.146467e-001
-3.949219e-001
-3.759948e-001
-3.572319e-001
-3.367807e-001
-3.161722e-001
-2.952929e-001
-2.732144e-001
-2.509294e-001
-2.276950e-001
-1.636829e-001
-7.440381e-002
7.860775e-003
8.726027e-002
1.638094e-001
2.391278e-001
3.144023e-001
3.836335e-001
4.777099e-001
6.100476e-001
6.980235e-001
7.525986e-001
8.104361e-001
8.690494e-001
9.262325e-001
9.811226e-001
1.032980e+000
1.087340e+000
1.113359e+000
1.096845e+000
1.081139e+000
1.069523e+000
1.058838e+000
1.046890e+000
1.035609e+000
1.024926e+000
1.013381e+000
1.001356e+000
9.893688e-001
9.774192e-001
9.649918e-001
9.517106e-001
9.384085e-001
9.259944e-001
9.128046e-001
8.998377e-001
8.867848e-001
8.733536e-001
8.602899e-001
8.464477e-001
8.321103e-001
8.190668e-001
8.059743e-001
7.923178e-001
7.790582e-001
7.651212e-001
7.517325e-001
7.380241e-001
7.232539e-001
7.090997e-001
6.952083e-001
6.801335e-001
6.653546e-001
6.504764e-001
6.352352e-001
6.191177e-001
6.026433e-001
5.867076e-001
5.702282e-001
5.529437e-001
5.356583e-001
5.186229e-001
4.998763e-001
4.805503e-001
4.219725e-001
3.368645e-001
2.587511e-001
1.835029e-001
1.110417e-001
4.089065e-002
-2.962143e-002
-9.528041e-002
-1.837013e-001
-3.106407e-001
-3.953481e-001
-4.462774e-001
-5.002230e-001
-5.544489e-001
-6.077815e-001
-6.591047e-001
-7.071770e-001
-7.565119e-001
-7.781958e-001
-7.586913e-001
-7.391075e-001
-7.224685e-001
-7.069344e-001
-6.910121e-001
-6.749962e-001
-6.593093e-001
-6.423622e-001
-6.255410e-001
-6.091454e-001
-5.911355e-001
-5.721772e-001
-5.540128e-001
-5.356801e-001
-5.164007e-001
-4.971090e-001
-4.777121e-001
-4.583899e-001
-4.381767e-001
-4.169341e-001
-3.969409e-001
-3.771112e-001
-3.551707e-001
-3.334318e-001
-3.128589e-001
-2.917371e-001
-2.699477e-001
-2.476154e-001
-2.264520e-001
-2.061159e-001
-1.834571e-001
-1.604965e-001
-1.388798e-001
-1.168417e-001
-9.371187e-002
-6.959573e-002
-4.624237e-002
-2.361146e-002
9.242580e-004
2.649809e-002
5.066635e-002
7.490928e-002
1.004560e-001
1.279579e-001
1.565049e-001
2.057761e-001
2.921262e-001
3.872094e-001
4.737461e-001
5.573026e-001
6.397266e-001
7.222511e-001
8.025331e-001
8.922910e-001
1.015051e+000
1.134673e+000
1.210713e+000
1.272760e+000
1.338992e+000
1.405324e+000
1.470623e+000
1.532523e+000
1.592518e+000
1.638645e+000
1.647941e+000
1.635752e+000
1.628588e+000
1.624849e+000
1.621106e+000
1.616581e+000
1.610882e+000
1.605376e+000
1.599838e+000
1.593355e+000
1.586759e+000
1.580238e+000
1.572267e+000
1.563447e+000
1.553582e+000
1.543184e+000
1.533128e+000
1.521825e+000
1.510211e+000
1.498373e+000
1.484876e+000
1.470471e+000
1.455793e+000
1.439884e+000
1.424339e+000
1.408312e+000
1.391842e+000
1.375396e+000
1.358115e+000
1.339726e+000
1.321707e+000
1.303755e+000
1.285055e+000
1.266191e+000
1.247334e+000
1.228735e+000
1.208432e+000
1.187557e+000
1.167093e+000
1.147315e+000
1.126627e+000
1.105003e+000
1.083501e+000
1.061603e+000
1.037883e+000
9.715501e-001
8.794325e-001
7.955787e-001
7.141666e-001
6.357556e-001
5.599690e-001
4.836195e-001
4.118227e-001
3.140057e-001
1.773234e-001
8.679052e-002
2.927836e-002
-3.118743e-002
-9.059868e-002
-1.509195e-001
-2.105535e-001
-2.665440e-001
-3.238428e-001
-3.514783e-001
-3.368663e-001
-3.230452e-001
-3.120191e-001
-3.039221e-001
-2.970736e-001
-2.890005e-001
-2.808178e-001
-2.724333e-001
-2.651067e-001
-2.578676e-001
-2.494930e-001
-2.416329e-001
-2.344990e-001
-2.269221e-001
-2.191971e-001
-2.126838e-001
-2.064673e-001
-2.000176e-001
-1.924272e-001
-1.850606e-001
-1.782095e-001
-1.713353e-001
-1.644379e-001
-1.580536e-001
-1.518872e-001
-1.445786e-001
-1.370423e-001
-1.291786e-001
-1.221120e-001
-1.155879e-001
-1.083810e-001
-1.007951e-001
-9.339656e-002
-8.550564e-002
-7.690235e-002
-6.808393e-002
-5.913642e-002
-5.153371e-002
-4.334567e-002
-3.346719e-002
-2.328659e-002
-1.325554e-002
-2.207819e-003
1.042407e-002
2.342412e-002
7.362730e-002
1.532570e-001
2.286228e-001
2.996668e-001
3.676536e-001
4.332471e-001
4.988403e-001
5.597911e-001
6.431211e-001
7.654302e-001
8.497417e-001
8.969792e-001
9.450842e-001
9.944905e-001
1.042654e+000
1.089355e+000
1.133184e+000
1.178410e+000
1.197042e+000
1.172921e+000
1.146186e+000
1.124606e+000
1.105022e+000
1.084906e+000
1.064477e+000
1.044212e+000
1.024657e+000
1.004990e+000
9.849497e-001
9.650729e-001
9.453306e-001
9.246426e-001
9.036714e-001
8.831977e-001
8.632191e-001
8.435832e-001
8.227866e-001
8.022800e-001
7.824404e-001
7.621354e-001
7.417461e-001
7.227176e-001
7.035414e-001
6.840684e-001
6.643000e-001
6.443877e-001
6.252043e-001
6.055159e-001
5.854250e-001
5.659767e-001
5.468176e-001
5.265016e-001
5.058782e-001
4.853990e-001
4.650635e-001
4.444207e-001
4.226283e-001
4.005075e-001
3.792538e-001
3.574546e-001
3.346624e-001
3.114468e-001
2.878813e-001
2.639314e-001
1.989939e-001
1.046537e-001
1.931876e-002
-6.094342e-002
-1.397613e-001
-2.165243e-001
-2.934669e-001
-3.649663e-001
-4.608006e-001
-5.972676e-001
-6.907755e-001
-7.462062e-001
-8.052090e-001
-8.655874e-001
-9.253547e-001
-9.837154e-001
-1.037866e+000
-1.094100e+000
-1.123570e+000
-1.108876e+000
-1.092177e+000
-1.081012e+000
-1.072091e+000
-1.063343e+000
-1.054066e+000
-1.045378e+000
-1.037600e+000
-1.030097e+000
-1.020917e+000
-1.011146e+000
-1.002741e+000
-9.947936e-001
-9.861350e-001
-9.775482e-001
-9.696688e-001
-9.618640e-001
-9.537115e-001
-9.442835e-001
-9.355097e-001
-9.279514e-001
-9.199299e-001
-9.107180e-001
-9.017666e-001
-8.933102e-001
-8.842666e-001
-8.744029e-001
-8.644378e-001
-8.551012e-001
-8.459032e-001
-8.362786e-001
-8.258361e-001
-8.163531e-001
-8.063516e-001
-7.952698e-001
-7.843353e-001
-7.734332e-001
-7.619338e-001
-7.501689e-001
-7.380253e-001
-7.251399e-001
-7.121242e-001
-6.986139e-001
-6.844970e-001
-6.688464e-001
-6.162211e-001
-5.333592e-001
-4.548137e-001
-3.810490e-001
-3.096113e-001
-2.403191e-001
-1.714663e-001
-1.062703e-001
-1.880735e-002
1.065497e-001
1.970350e-001
2.497947e-001
3.018950e-001
3.553197e-001
4.082404e-001
4.601529e-001
5.091667e-001
5.599526e-001
5.853375e-001
5.674429e-001
5.454000e-001
5.284606e-001
5.131940e-001
4.986900e-001
4.848020e-001
4.712193e-001
4.581556e-001
4.439206e-001
4.296649e-001
4.166109e-001
4.029291e-001
3.894666e-001
3.764215e-001
3.630631e-001
3.497350e-001
3.366019e-001
3.232979e-001
3.107817e-001
2.971978e-001
2.831159e-001
2.700118e-001
2.561070e-001
2.417992e-001
2.276550e-001
2.135306e-001
1.995405e-001
1.846042e-001
1.686123e-001
1.538719e-001
1.391828e-001
1.234653e-001
1.072888e-001
9.135687e-002
7.541729e-002
5.866983e-002
4.075334e-002
2.296763e-002
5.526408e-003
-1.301683e-002
-3.174786e-002
-5.068079e-002
-6.982799e-002
-9.061221e-002
-1.125600e-001
-1.752061e-001
-2.659440e-001
-3.494895e-001
-4.292016e-001
-5.065932e-001
-5.820529e-001
-6.585861e-001
-7.309026e-001
-8.269652e-001
-9.631395e-001
-1.058439e+000
-1.120039e+000
-1.259899e+000
-1.444071e+000
-1.609798e+000
-1.772739e+000
-1.930804e+000
-2.089399e+000
-2.224504e+000
-2.311132e+000
-2.445749e+000
-2.654426e+000
-2.779631e+000
-2.853570e+000
-2.944265e+000
-3.037141e+000
-3.130327e+000
-3.224783e+000
-3.315143e+000
-3.409844e+000
-3.453867e+000
-3.426105e+000
-3.407911e+000
-3.397660e+000
-3.387594e+000
-3.377621e+000
-3.368453e+000
-3.357572e+000
-3.345099e+000
-3.332967e+000
-3.321324e+000
-3.309115e+000
-3.296108e+000
-3.282993e+000
-3.270586e+000
-3.257288e+000
-3.241910e+000
-3.226021e+000
-3.211575e+000
-3.196555e+000
-3.180515e+000
-3.164625e+000
-3.148197e+000
-3.131085e+000
-3.112477e+000
-3.092809e+000
-3.074417e+000
-3.056100e+000
-3.036751e+000
-3.017654e+000
-2.998187e+000
-2.978251e+000
-2.958658e+000
-2.938233e+000
-2.917910e+000
-2.897989e+000
-2.877510e+000
-2.857762e+000
-2.838557e+000
-2.819298e+000
-2.800008e+000
-2.780606e+000
-2.760730e+000
-2.741583e+000
-2.722889e+000
-2.704646e+000
-2.687124e+000
-2.669747e+000
-2.652035e+000
-2.633176e+000
-2.614562e+000
-2.596305e+000
-2.578268e+000
-2.560413e+000
-2.542624e+000
-2.524903e+000
-2.507362e+000
-2.489408e+000
-2.471393e+000
-2.454311e+000
-2.436472e+000
-2.418872e+000
-2.401232e+000
-2.383173e+000
-2.365919e+000
-2.349167e+000
-2.332349e+000
-2.316145e+000
-2.300144e+000
-2.283437e+000
-2.267264e+000
-2.250958e+000
-2.235063e+000
-2.219905e+000
-2.204823e+000
-2.189787e+000
-2.174284e+000
-2.157964e+000
-2.141575e+000
-2.126504e+000
-2.111301e+000
-2.096330e+000
-2.082542e+000
-2.068581e+000
-2.053818e+000
-2.038607e+000
-2.023982e+000
-2.010346e+000
-1.996894e+000
-1.983231e+000
-1.971367e+000
-1.959557e+000
-1.946091e+000
-1.932929e+000
-1.920698e+000
-1.908442e+000
-1.895890e+000
-1.883377e+000
-1.871355e+000
-1.859071e+000
-1.844701e+000
-1.829185e+000
-1.814695e+000
-1.799067e+000
-1.781983e+000
-1.765753e+000
-1.750646e+000
-1.735597e+000
-1.719007e+000
-1.701578e+000
-1.684615e+000
-1.668096e+000
-1.650803e+000
-1.634514e+000
-1.619130e+000
-1.603425e+000
-1.585725e+000
-1.560203e+000
-1.515807e+000
-1.443893e+000
-1.385017e+000
-1.365727e+000
-1.357856e+000
-1.343602e+000
-1.324546e+000
-1.299291e+000
-1.259860e+000
-1.197768e+000
-1.148898e+000
-1.165200e+000
-1.191489e+000
-1.174467e+000
-1.138842e+000
-1.106385e+000
-1.076975e+000
-1.050667e+000
-1.036470e+000
-1.049392e+000
-1.066878e+000
-1.044410e+000
-9.940968e-001
-9.441805e-001
-8.981881e-001
-8.507355e-001
-8.005914e-001
-7.499936e-001
-6.997174e-001
-6.488408e-001
-5.964906e-001
-5.447077e-001
-4.967113e-001
-4.513928e-001
-4.097598e-001
-3.741511e-001
-3.451066e-001
-3.204383e-001
-2.982747e-001
-2.793902e-001
-2.647953e-001
-2.547436e-001
-2.482199e-001
-2.450145e-001
-2.444963e-001
-2.440854e-001
-2.420885e-001
-2.382937e-001
-2.327140e-001
-2.265644e-001
-2.198478e-001
-2.094725e-001
-1.954666e-001
-1.790889e-001
-1.587027e-001
-1.355115e-001
-1.102533e-001
-8.497862e-002
-6.143322e-002
-3.750810e-002
-1.289882e-002
1.024618e-002
3.194756e-002
5.453765e-002
7.676042e-002
9.880595e-002
1.212483e-001
1.455754e-001
1.705002e-001
1.965154e-001
2.237534e-001
2.519875e-001
2.825011e-001
3.125145e-001
3.426876e-001
3.706194e-001
3.921914e-001
4.094437e-001
4.276042e-001
4.441529e-001
4.611543e-001
4.772605e-001
4.892457e-001
4.987210e-001
5.022146e-001
5.023082e-001
5.104296e-001
5.388145e-001
5.988636e-001
6.928353e-001
7.550705e-001
7.564357e-001
7.414283e-001
7.377149e-001
7.481345e-001
7.767223e-001
8.289640e-001
9.024943e-001
9.401982e-001
8.825149e-001
8.196715e-001
8.219761e-001
8.531214e-001
8.770788e-001
8.918150e-001
8.937325e-001
8.702028e-001
8.081204e-001
7.496932e-001
7.550773e-001
7.988662e-001
8.407946e-001
8.755919e-001
9.108838e-001
9.485351e-001
9.864595e-001
1.022938e+000
1.059398e+000
1.096737e+000
1.131505e+000
1.161201e+000
1.185572e+000
1.202106e+000
1.211200e+000
1.212885e+000
1.208981e+000
1.200444e+000
1.187392e+000
1.168163e+000
1.142773e+000
1.112586e+000
1.078841e+000
1.044326e+000
1.010620e+000
9.775898e-001
9.463896e-001
9.187799e-001
8.925497e-001
8.684703e-001
8.497030e-001
8.365745e-001
8.291169e-001
8.253171e-001
8.238375e-001
8.263939e-001
8.300679e-001
8.320571e-001
8.346130e-001
8.384115e-001
8.422160e-001
8.450611e-001
8.463302e-001
8.481764e-001
8.515277e-001
8.552199e-001
8.602545e-001
8.666127e-001
8.758348e-001
8.868645e-001
8.992379e-001
9.131349e-001
9.281409e-001
9.438339e-001
9.569322e-001
9.633607e-001
9.667629e-001
9.727245e-001
9.784665e-001
9.843238e-001
9.886061e-001
9.915240e-001
9.918069e-001
9.865712e-001
9.787317e-001
9.779035e-001
9.937228e-001
1.035889e+000
1.109996e+000
1.168369e+000
1.173309e+000
1.156500e+000
1.151856e+000
1.160272e+000
1.183067e+000
1.228569e+000
1.296829e+000
1.344079e+000
1.309534e+000
1.252704e+000
1.252799e+000
1.286201e+000
1.313976e+000
1.335001e+000
1.348315e+000
1.339777e+000
1.297058e+000
1.248535e+000
1.251288e+000
1.294369e+000
1.337500e+000
1.373790e+000
1.410292e+000
1.448636e+000
1.487504e+000
1.525119e+000
1.561100e+000
1.597818e+000
1.632442e+000
1.664170e+000
1.692147e+000
1.713705e+000
1.727418e+000
1.732404e+000
1.730218e+000
1.724595e+000
1.714723e+000
1.699744e+000
1.680398e+000
1.654366e+000
1.623006e+000
1.588919e+000
1.554531e+000
1.522352e+000
1.492344e+000
1.463341e+000
1.437060e+000
1.411914e+000
1.388806e+000
1.369930e+000
1.356742e+000
1.348700e+000
1.343680e+000
1.341513e+000
1.341925e+000
1.342855e+000
1.342835e+000
1.342661e+000
1.342334e+000
1.344165e+000
1.345575e+000
1.346964e+000
1.350671e+000
1.354884e+000
1.357722e+000
1.361848e+000
1.368871e+000
1.378878e+000
1.389252e+000
1.398197e+000
1.405673e+000
1.407736e+000
1.404128e+000
1.399955e+000
1.399004e+000
1.398544e+000
1.395413e+000
1.389524e+000
1.382260e+000
1.370380e+000
1.353632e+000
1.341922e+000
1.353691e+000
1.396204e+000
1.464486e+000
1.509564e+000
1.495897e+000
1.463507e+000
1.441501e+000
1.431131e+000
1.442616e+000
1.481253e+000
1.534347e+000
1.556940e+000
1.495443e+000
1.418829e+000
1.406335e+000
1.423926e+000
1.438186e+000
1.446120e+000
1.439570e+000
1.407721e+000
1.344158e+000
1.281912e+000
1.277143e+000
1.313890e+000
1.349981e+000
1.379147e+000
1.406804e+000
1.436436e+000
1.466811e+000
1.496456e+000
1.524087e+000
1.551438e+000
1.578308e+000
1.599758e+000
1.615681e+000
1.625311e+000
1.627114e+000
1.621966e+000
1.609513e+000
1.592026e+000
1.571313e+000
1.544112e+000
1.510403e+000
1.472895e+000
1.431881e+000
1.388866e+000
1.345521e+000
1.302635e+000
1.263142e+000
1.225342e+000
1.189134e+000
1.157951e+000
1.130377e+000
1.098366e+000
1.068720e+000
1.051337e+000
1.041200e+000
1.034824e+000
1.029175e+000
1.024529e+000
1.021281e+000
1.010448e+000
9.930091e-001
9.900406e-001
9.962572e-001
9.963913e-001
9.915166e-001
9.945728e-001
1.016944e+000
1.022567e+000
1.000866e+000
9.983195e-001
1.014064e+000
1.021863e+000
1.019929e+000
1.014712e+000
1.025767e+000
1.023139e+000
9.700909e-001
9.354243e-001
9.431844e-001
9.376866e-001
9.187678e-001
8.985548e-001
8.754326e-001
8.548922e-001
8.427647e-001
8.748956e-001
9.522973e-001
9.758449e-001
9.355756e-001
8.978394e-001
8.731109e-001
8.580724e-001
8.657032e-001
9.077956e-001
9.570268e-001
9.358210e-001
8.406904e-001
7.881618e-001
7.952767e-001
8.075895e-001
8.118302e-001
8.106654e-001
7.935375e-001
7.439967e-001
6.669101e-001
6.248302e-001
6.476427e-001
6.826062e-001
7.094616e-001
7.332088e-001
7.576768e-001
7.849776e-001
8.132589e-001
8.397965e-001
8.652753e-001
8.868577e-001
9.033990e-001
9.155396e-001
9.216138e-001
9.219672e-001
9.148629e-001
9.004418e-001
8.807468e-001
8.544327e-001
8.224081e-001
7.858509e-001
7.451427e-001
7.029795e-001
6.578775e-001
6.111406e-001
5.670529e-001
5.241716e-001
4.821146e-001
4.433396e-001
4.081937e-001
3.799098e-001
3.558333e-001
3.343591e-001
3.190660e-001
3.080031e-001
2.980576e-001
2.880551e-001
2.800111e-001
2.749216e-001
2.702125e-001
2.627856e-001
2.548712e-001
2.485174e-001
2.433954e-001
2.380571e-001
2.345214e-001
2.341470e-001
2.336453e-001
2.340200e-001
2.349241e-001
2.344458e-001
2.342487e-001
2.321685e-001
2.254066e-001
2.159395e-001
2.043967e-001
1.940234e-001
1.850255e-001
1.726489e-001
1.575479e-001
1.415205e-001
1.230393e-001
1.028089e-001
9.705171e-002
1.276124e-001
1.989572e-001
2.622254e-001
2.603471e-001
2.196262e-001
1.894633e-001
1.738395e-001
1.711789e-001
1.986575e-001
2.570673e-001
2.985757e-001
2.490191e-001
1.499775e-001
1.132913e-001
1.309512e-001
1.456156e-001
1.507875e-001
1.483939e-001
1.209582e-001
5.306330e-002
-2.957289e-002
-5.688517e-002
-2.377371e-002
1.463623e-002
4.415676e-002
7.300291e-002
1.034904e-001
1.346666e-001
1.654694e-001
1.956401e-001
2.259292e-001
2.543295e-001
2.801010e-001
3.010843e-001
3.145360e-001
3.209016e-001
3.181285e-001
3.082598e-001
2.938793e-001
2.753894e-001
2.525345e-001
2.233549e-001
1.862171e-001
1.460388e-001
1.030164e-001
5.848181e-002
1.765574e-002
-1.996650e-002
-5.539665e-002
-8.867109e-002
-1.209366e-001
-1.489254e-001
-1.713758e-001
-1.895642e-001
-2.008787e-001
-2.076605e-001
-2.120875e-001
-2.154620e-001
-2.185910e-001
-2.213071e-001
-2.235909e-001
-2.271548e-001
-2.293250e-001
-2.308301e-001
-2.336027e-001
-2.365338e-001
-2.377188e-001
-2.371213e-001
-2.368648e-001
-2.346142e-001
-2.305220e-001
-2.235654e-001
-2.159187e-001
-2.100159e-001
-2.045286e-001
-2.009819e-001
-2.063579e-001
-2.135836e-001
-2.180874e-001
-2.232332e-001
-2.268314e-001
-2.331221e-001
-2.424740e-001
-2.529020e-001
-2.705852e-001
-2.872728e-001
-2.795704e-001
-2.379134e-001
-1.596907e-001
-1.041792e-001
-1.152640e-001
-1.501048e-001
-1.730994e-001
-1.831782e-001
-1.718818e-001
-1.327053e-001
-6.849816e-002
-3.422938e-002
-9.765764e-002
-1.812088e-001
-1.965725e-001
-1.731245e-001
-1.546135e-001
-1.454157e-001
-1.481272e-001
-1.749651e-001
-2.419452e-001
-3.099301e-001
-3.157562e-001
-2.756415e-001
-2.348687e-001
-2.027316e-001
-1.714604e-001
-1.362871e-001
-9.998409e-002
-6.456018e-002
-3.035638e-002
2.987520e-003
3.657976e-002
6.748225e-002
9.365806e-002
1.130356e-001
1.243055e-001
1.261278e-001
1.206109e-001
1.091239e-001
9.456310e-002
7.557288e-002
5.058674e-002
1.969969e-002
-1.694245e-002
-5.603998e-002
-9.547689e-002
-1.340905e-001
-1.705415e-001
-2.033331e-001
-2.341609e-001
-2.619610e-001
-2.879087e-001
-3.088637e-001
-3.237483e-001
-3.345210e-001
-3.404925e-001
-3.429491e-001
-3.430476e-001
-3.420679e-001
-3.412735e-001
-3.413446e-001
-3.414180e-001
-3.427025e-001
-3.433039e-001
-3.445480e-001
-3.461948e-001
-3.471404e-001
-3.464359e-001
-3.443165e-001
-3.431974e-001
-3.407052e-001
-3.339001e-001
-3.249036e-001
-3.146761e-001
-3.034091e-001
-2.928604e-001
-2.855040e-001
-2.871208e-001
-2.933835e-001
-2.957825e-001
-2.968949e-001
-2.990545e-001
-3.027578e-001
-3.099042e-001
-3.202160e-001
-3.367676e-001
-3.547448e-001
-3.581084e-001
-3.313057e-001
-2.658174e-001
-1.947450e-001
-1.831891e-001
-2.179521e-001
-2.474209e-001
-2.608672e-001
-2.600658e-001
-2.350633e-001
-1.772573e-001
-1.203514e-001
-1.431200e-001
-2.338304e-001
-2.762671e-001
-2.573963e-001
-2.347179e-001
-2.241739e-001
-2.181921e-001
-2.305670e-001
-2.815090e-001
-3.566158e-001
-3.897116e-001
-3.584267e-001
-3.143189e-001
-2.808164e-001
-2.489168e-001
-2.128735e-001
-1.773769e-001
-1.408148e-001
-1.040035e-001
-6.729720e-002
-3.172949e-002
1.062875e-003
3.158863e-002
5.799997e-002
7.582847e-002
8.391486e-002
8.434696e-002
7.757919e-002
6.654112e-002
4.965989e-002
2.676810e-002
-1.247540e-003
-3.456011e-002
-7.267588e-002
-1.145601e-001
-1.557798e-001
-1.930488e-001
-2.286386e-001
-2.628385e-001
-2.931286e-001
-3.201857e-001
-3.431773e-001
-3.640445e-001
-3.803791e-001
-3.885565e-001
-3.926184e-001
-3.949989e-001
-3.932923e-001
-3.905877e-001
-3.885996e-001
-3.883757e-001
-3.895424e-001
-3.878740e-001
-3.857867e-001
-3.853762e-001
-3.843175e-001
-3.812243e-001
-3.781440e-001
-3.750458e-001
-3.699626e-001
-3.609656e-001
-3.486155e-001
-3.364035e-001
-3.258723e-001
-3.154856e-001
-3.096798e-001
-3.117052e-001
-3.148953e-001
-3.163404e-001
-3.175848e-001
-3.183739e-001
-3.229934e-001
-3.303490e-001
-3.396580e-001
-3.557095e-001
-3.674222e-001
-3.571031e-001
-3.145663e-001
-2.381082e-001
-1.791743e-001
-1.860600e-001
-2.225609e-001
-2.511261e-001
-2.639602e-001
-2.519329e-001
-2.123676e-001
-1.507197e-001
-1.139444e-001
-1.672769e-001
-2.519864e-001
-2.749699e-001
-2.535682e-001
-2.283092e-001
-2.122942e-001
-2.120506e-001
-2.382119e-001
-3.002698e-001
-3.668377e-001
-3.766590e-001
-3.354522e-001
-2.871474e-001
-2.484068e-001
-2.149803e-001
-1.797738e-001
-1.434327e-001
-1.052901e-001
-6.773091e-002
-3.066039e-002
6.613515e-003
4.113347e-002
6.985458e-002
9.482331e-002
1.130200e-001
1.218257e-001
1.234042e-001
1.188155e-001
1.092532e-001
9.383386e-002
7.191801e-002
4.538096e-002
1.524802e-002
-2.080597e-002
-6.038922e-002
-9.871990e-002
-1.347233e-001
-1.696263e-001
-2.027502e-001
-2.326499e-001
-2.580826e-001
-2.796945e-001
-2.989456e-001
-3.124850e-001
-3.184517e-001
-3.204770e-001
-3.198852e-001
-3.178719e-001
-3.153185e-001
-3.122869e-001
-3.117908e-001
-3.123742e-001
-3.094203e-001
-3.045330e-001
-2.986709e-001
-2.915284e-001
-2.853757e-001
-2.796262e-001
-2.742905e-001
-2.671486e-001
-2.565799e-001
-2.453398e-001
-2.354646e-001
-2.303408e-001
-2.314156e-001
-2.352762e-001
-2.402057e-001
-2.430002e-001
-2.426142e-001
-2.450186e-001
-2.494168e-001
-2.574241e-001
-2.719905e-001
-2.787820e-001
-2.557721e-001
-1.935408e-001
-1.099533e-001
-7.549972e-002
-1.009803e-001
-1.303452e-001
-1.473954e-001
-1.523075e-001
-1.304328e-001
-7.599068e-002
-1.399527e-002
-1.408030e-002
-9.999384e-002
-1.584741e-001
-1.481846e-001
-1.244884e-001
-1.090212e-001
-1.004660e-001
-1.099690e-001
-1.535831e-001
-2.276396e-001
-2.735475e-001
-2.511095e-001
-2.056792e-001
-1.675832e-001
-1.330748e-001
-9.701383e-002
-5.928468e-002
-2.145469e-002
1.600231e-002
5.176320e-002
8.447346e-002
1.154808e-001
1.437429e-001
1.688532e-001
1.871665e-001
1.964660e-001
1.977848e-001
1.921522e-001
1.804020e-001
1.640447e-001
1.434294e-001
1.173237e-001
8.730843e-002
5.296835e-002
1.540745e-002
-2.266121e-002
-5.813873e-002
-9.170409e-002
-1.228264e-001
-1.502428e-001
-1.749943e-001
-1.951294e-001
-2.107179e-001
-2.233308e-001
-2.311293e-001
-2.342847e-001
-2.357910e-001
-2.345370e-001
-2.320182e-001
-2.295790e-001
-2.269553e-001
-2.256061e-001
-2.248459e-001
-2.217388e-001
-2.160087e-001
-2.091606e-001
-2.024989e-001
-1.945689e-001
-1.852108e-001
-1.756959e-001
-1.667835e-001
-1.583578e-001
-1.494976e-001
-1.451511e-001
-1.483547e-001
-1.527146e-001
-1.545834e-001
-1.579171e-001
-1.635671e-001
-1.726655e-001
-1.808864e-001
-1.903669e-001
-2.066768e-001
-2.152155e-001
-1.928265e-001
-1.328042e-001
-5.168292e-002
-1.809872e-002
-4.315316e-002
-7.008193e-002
-8.513482e-002
-8.833677e-002
-6.606097e-002
-1.448050e-002
4.659560e-002
4.931005e-002
-3.869999e-002
-1.018532e-001
-9.474027e-002
-7.238647e-002
-5.920359e-002
-5.517560e-002
-6.890550e-002
-1.140936e-001
-1.912857e-001
-2.448858e-001
-2.272431e-001
-1.818613e-001
-1.424207e-001
-1.107891e-001
-7.751444e-002
-4.068996e-002
-1.928705e-003
3.600413e-002
7.170092e-002
1.078141e-001
1.431632e-001
1.719340e-001
1.934082e-001
2.093604e-001
2.170724e-001
2.175525e-001
2.095095e-001
1.966387e-001
1.806450e-001
1.570374e-001
1.249590e-001
8.935111e-002
5.158455e-002
1.282368e-002
-2.596562e-002
-6.337385e-002
-9.722745e-002
-1.302429e-001
-1.624005e-001
-1.904741e-001
-2.115188e-001
-2.263034e-001
-2.367724e-001
-2.429447e-001
-2.452393e-001
-2.476617e-001
-2.492348e-001
-2.482427e-001
-2.447063e-001
-2.405988e-001
-2.382458e-001
-2.370235e-001
-2.354308e-001
-2.353631e-001
-2.342803e-001
-2.297402e-001
-2.228519e-001
-2.141536e-001
-2.060119e-001
-1.949463e-001
-1.838535e-001
-1.743986e-001
-1.649477e-001
-1.586789e-001
-1.586510e-001
-1.605363e-001
-1.639309e-001
-1.668384e-001
-1.691128e-001
-1.761276e-001
-1.833082e-001
-1.943896e-001
-2.105955e-001
-2.215898e-001
-2.092287e-001
-1.598074e-001
-7.568259e-002
-3.066737e-002
-5.323124e-002
-9.036658e-002
-1.139897e-001
-1.205441e-001
-1.060258e-001
-6.207360e-002
5.257021e-003
2.947123e-002
-4.959762e-002
-1.262574e-001
-1.276190e-001
-9.964853e-002
-7.896784e-002
-6.805380e-002
-7.343174e-002
-1.062359e-001
-1.756962e-001
-2.366223e-001
-2.256828e-001
-1.758542e-001
-1.312869e-001
-9.424419e-002
-5.922893e-002
-2.310506e-002
1.740987e-002
5.688741e-002
9.402921e-002
1.316743e-001
1.664843e-001
1.979530e-001
2.246968e-001
2.434083e-001
2.553284e-001
2.586616e-001
2.551619e-001
2.471126e-001
2.327569e-001
2.140378e-001
1.910691e-001
1.611555e-001
1.276801e-001
9.041977e-002
5.227679e-002
1.879755e-002
-1.346641e-002
-4.410112e-002
-7.224790e-002
-9.911928e-002
-1.217363e-001
-1.384928e-001
-1.508314e-001
-1.559041e-001
-1.567397e-001
-1.559505e-001
-1.544337e-001
-1.528021e-001
-1.496494e-001
-1.455418e-001
-1.408990e-001
-1.344723e-001
-1.268696e-001
-1.182382e-001
-1.080584e-001
-1.000118e-001
-8.955247e-002
-7.681443e-002
-6.528941e-002
-5.391509e-002
-4.332162e-002
-3.737045e-002
-3.598040e-002
-3.987103e-002
-4.557681e-002
-4.768668e-002
-5.161234e-002
-5.781512e-002
-6.463677e-002
-7.467079e-002
-9.095549e-002
-1.014809e-001
-8.365256e-002
-2.675680e-002
5.600641e-002
9.139232e-002
6.444159e-002
3.075579e-002
1.093967e-002
3.799085e-003
2.325809e-002
7.226579e-002
1.330499e-001
1.396310e-001
5.051622e-002
-1.707022e-002
-1.036891e-002
1.451056e-002
2.997267e-002
3.654929e-002
2.421991e-002
-1.748702e-002
-9.330333e-002
-1.476521e-001
-1.284762e-001
-8.111382e-002
-4.199514e-002
-1.106636e-002
2.081112e-002
5.519075e-002
9.001455e-002
1.239261e-001
1.570853e-001
1.887265e-001
2.179955e-001
2.409159e-001
2.589440e-001
2.723481e-001
2.773850e-001
2.761086e-001
2.689754e-001
2.557789e-001
2.377433e-001
2.138105e-001
1.856744e-001
1.560516e-001
1.230857e-001
8.898926e-002
5.621544e-002
2.338443e-002
-6.723213e-003
-3.429638e-002
-5.839522e-002
-7.798704e-002
-9.552827e-002
-1.075792e-001
-1.149667e-001
-1.203200e-001
-1.225401e-001
-1.213235e-001
-1.180275e-001
-1.139225e-001
-1.119580e-001
-1.095648e-001
-1.047842e-001
-1.008875e-001
-9.521458e-002
-8.732155e-002
-7.884674e-002
-7.017001e-002
-6.091183e-002
-5.191839e-002
-4.390478e-002
-3.560985e-002
-3.070861e-002
-3.193521e-002
-3.631389e-002
-4.210499e-002
-4.600160e-002
-4.845169e-002
-5.537342e-002
-6.363181e-002
-7.154119e-002
-8.852782e-002
-1.008089e-001
-8.072228e-002
-1.670002e-002
7.394408e-002
1.085170e-001
7.850788e-002
4.724851e-002
2.828080e-002
1.985121e-002
4.113460e-002
9.793122e-002
1.667759e-001
1.677113e-001
6.907197e-002
3.652798e-003
1.157109e-002
3.269758e-002
4.673299e-002
5.371279e-002
4.114867e-002
-6.896078e-003
-9.178329e-002
-1.491235e-001
-1.311868e-001
-8.922068e-002
-5.342695e-002
-2.205986e-002
1.036186e-002
4.428461e-002
7.802708e-002
1.101942e-001
1.392244e-001
1.676533e-001
1.962002e-001
2.209547e-001
2.410790e-001
2.530641e-001
2.552438e-001
2.507066e-001
2.406346e-001
2.258618e-001
2.085584e-001
1.858105e-001
1.573802e-001
1.255218e-001
8.868127e-002
5.078978e-002
1.604287e-002
-1.596802e-002
-4.578035e-002
-7.375923e-002
-9.826026e-002
-1.190171e-001
-1.366296e-001
-1.505046e-001
-1.587205e-001
-1.615755e-001
-1.612671e-001
-1.599941e-001
-1.566562e-001
-1.522580e-001
-1.507672e-001
-1.491945e-001
-1.473405e-001
-1.443614e-001
-1.389674e-001
-1.322902e-001
-1.243261e-001
-1.152578e-001
-1.081486e-001
-9.877626e-002
-8.548567e-002
-7.277944e-002
-5.975590e-002
-4.740654e-002
-3.976562e-002
-3.845407e-002
-4.136614e-002
-4.401946e-002
-4.403807e-002
-4.577728e-002
-5.024944e-002
-5.527749e-002
-6.255402e-002
-7.571367e-002
-8.510119e-002
-6.644606e-002
-9.992430e-003
7.416227e-002
1.155028e-001
9.430701e-002
6.403268e-002
4.748270e-002
4.204778e-002
5.972761e-002
1.085081e-001
1.713507e-001
1.837881e-001
9.904490e-002
2.801881e-002
2.928510e-002
5.242835e-002
6.498765e-002
6.943119e-002
5.700084e-002
1.479235e-002
-6.174386e-002
-1.207528e-001
-1.084559e-001
-6.400341e-002
-2.571192e-002
4.173347e-003
3.562919e-002
7.050670e-002
1.083238e-001
1.449521e-001
1.794808e-001
2.124299e-001
2.435032e-001
2.680553e-001
2.878286e-001
3.018665e-001
3.086968e-001
3.083571e-001
2.999425e-001
2.856162e-001
2.671170e-001
2.420326e-001
2.118677e-001
1.795882e-001
1.430193e-001
1.057031e-001
6.893259e-002
3.259880e-002
-1.343046e-003
-3.402371e-002
-6.353978e-002
-8.639764e-002
-1.065018e-001
-1.224259e-001
-1.326089e-001
-1.393075e-001
-1.431587e-001
-1.458243e-001
-1.465406e-001
-1.432241e-001
-1.415433e-001
-1.425771e-001
-1.412489e-001
-1.385059e-001
-1.348246e-001
-1.302003e-001
-1.239557e-001
-1.164193e-001
-1.081028e-001
-9.990365e-002
-9.166378e-002
-8.292067e-002
-7.605470e-002
-7.559502e-002
-7.930732e-002
-8.406719e-002
-8.926691e-002
-9.303394e-002
-9.914443e-002
-1.090221e-001
-1.193554e-001
-1.337752e-001
-1.529405e-001
-1.619250e-001
-1.413804e-001
-8.174185e-002
-2.167259e-003
2.553704e-002
-5.233734e-003
-3.768148e-002
-5.526814e-002
-5.844107e-002
-3.708094e-002
1.445379e-002
7.451370e-002
7.183020e-002
-2.062521e-002
-8.423659e-002
-7.508773e-002
-5.067628e-002
-3.716574e-002
-3.280236e-002
-4.599635e-002
-9.266722e-002
-1.703989e-001
-2.219718e-001
-2.013860e-001
-1.548523e-001
-1.178440e-001
-8.692608e-002
-5.307050e-002
-1.792126e-002
1.751957e-002
5.321342e-002
8.629548e-002
1.196855e-001
1.504951e-001
1.772023e-001
2.005071e-001
2.158091e-001
2.209395e-001
2.192464e-001
2.116182e-001
1.997266e-001
1.834444e-001
1.608809e-001
1.341830e-001
1.025717e-001
6.603792e-002
2.741795e-002
-9.100387e-003
-4.181858e-002
-7.220011e-002
-1.020901e-001
-1.295797e-001
-1.538097e-001
-1.740553e-001
-1.901338e-001
-2.001974e-001
-2.040383e-001
-2.052524e-001
-2.056579e-001
-2.048897e-001
-2.035631e-001
-2.021612e-001
-1.999267e-001
-1.975000e-001
-1.935650e-001
-1.889282e-001
-1.834257e-001
-1.773598e-001
-1.699868e-001
-1.626852e-001
-1.524493e-001
-1.401594e-001
-1.291931e-001
-1.195680e-001
-1.134057e-001
-1.146136e-001
-1.194307e-001
-1.240347e-001
-1.288542e-001
-1.309583e-001
-1.357090e-001
-1.444690e-001
-1.552687e-001
-1.722375e-001
-1.872419e-001
-1.745521e-001
-1.226142e-001
-3.608350e-002
1.425931e-002
-5.137371e-003
-3.831697e-002
-5.653396e-002
-6.507114e-002
-5.072983e-002
-3.416728e-003
6.508155e-002
8.828482e-002
7.581553e-003
-6.933246e-002
-6.958899e-002
-4.496444e-002
-2.978461e-002
-2.113613e-002
-2.732491e-002
-6.335068e-002
-1.400883e-001
-2.049547e-001
-1.971599e-001
-1.543387e-001
-1.162911e-001
-8.486982e-002
-5.267410e-002
-1.663367e-002
2.058686e-002
5.717779e-002
9.406327e-002
1.288578e-001
1.611750e-001
1.902789e-001
2.155940e-001
2.356172e-001
2.477520e-001
2.517174e-001
2.494727e-001
2.416107e-001
2.283732e-001
2.093239e-001
1.859407e-001
1.594529e-001
1.280256e-001
9.428854e-002
6.102907e-002
2.802517e-002
-2.987476e-003
-3.222770e-002
-6.008033e-002
-8.206851e-002
-1.008186e-001
-1.170362e-001
-1.283156e-001
-1.354370e-001
-1.392420e-001
-1.405521e-001
-1.397119e-001
-1.354120e-001
-1.301081e-001
-1.280743e-001
-1.260181e-001
-1.218943e-001
-1.166755e-001
-1.124320e-001
-1.060172e-001
-9.794106e-002
-8.956098e-002
-8.059856e-002
-7.237951e-002
-6.379986e-002
-5.689632e-002
-5.672705e-002
-6.202925e-002
-6.603172e-002
-7.145009e-002
-7.461793e-002
-7.946708e-002
-8.838097e-002
-9.801228e-002
-1.127842e-001
-1.330076e-001
-1.402359e-001
-1.134664e-001
-4.431413e-002
2.488390e-002
2.854562e-002
-7.061548e-003
-3.507153e-002
-5.031373e-002
-5.185886e-002
-2.625972e-002
3.405512e-002
8.791726e-002
5.246102e-002
-3.948877e-002
-7.447048e-002
-5.357613e-002
-3.084780e-002
-2.002164e-002
-1.481390e-002
-2.674093e-002
-7.919326e-002
-1.522277e-001
-1.759044e-001
-1.403895e-001
-9.500411e-002
-6.129657e-002
-3.048775e-002
5.403147e-003
4.138780e-002
7.556271e-002
1.108730e-001
1.439284e-001
1.734417e-001
2.017995e-001
2.271007e-001
2.452503e-001
2.553495e-001
2.571317e-001
2.538308e-001
2.459552e-001
2.303885e-001
2.114191e-001
1.920709e-001
1.657261e-001
1.322556e-001
9.818182e-002
6.351555e-002
3.060545e-002
-8.728644e-004
-3.082890e-002
-5.674428e-002
-8.016141e-002
-1.040550e-001
-1.232418e-001
-1.367924e-001
-1.458613e-001
-1.502822e-001
-1.525047e-001
-1.547446e-001
-1.559165e-001
-1.569129e-001
-1.570843e-001
-1.537380e-001
-1.488280e-001
-1.421874e-001
-1.356536e-001
-1.295519e-001
-1.209116e-001
-1.108597e-001
-1.033506e-001
-9.554273e-002
-9.085285e-002
-9.182332e-002
-9.543004e-002
-1.001068e-001
-1.021707e-001
-1.030669e-001
-1.090495e-001
-1.173956e-001
-1.258359e-001
-1.401131e-001
-1.512737e-001
-1.390936e-001
-8.742957e-002
-1.131112e-002
1.895840e-002
-8.937092e-003
-4.028383e-002
-5.717967e-002
-6.389925e-002
-4.896130e-002
-3.428616e-003
5.783501e-002
6.264219e-002
-1.999750e-002
-8.127946e-002
-7.392623e-002
-4.990004e-002
-3.423787e-002
-2.550129e-002
-3.167174e-002
-6.743578e-002
-1.369899e-001
-1.841243e-001
-1.643936e-001
-1.189096e-001
-8.226694e-002
-5.248553e-002
-2.199248e-002
9.930056e-003
4.192240e-002
7.470331e-002
1.082383e-001
1.397458e-001
1.675878e-001
1.910057e-001
2.111031e-001
2.240947e-001
2.278369e-001
2.266325e-001
2.213104e-001
2.104960e-001
1.941675e-001
1.731501e-001
1.491026e-001
1.211251e-001
8.870919e-002
5.573867e-002
2.448391e-002
-6.165590e-003
-3.483421e-002
-6.087082e-002
-8.414382e-002
-1.043958e-001
-1.214798e-001
-1.342138e-001
-1.430176e-001
-1.496957e-001
-1.517175e-001
-1.503539e-001
-1.490693e-001
-1.469433e-001
-1.423422e-001
-1.364649e-001
-1.314254e-001
-1.274033e-001
-1.218691e-001
-1.111945e-001
-1.015969e-001
-9.448364e-002
-8.837202e-002
-8.401615e-002
-8.646090e-002
-9.349713e-002
-9.935912e-002
-1.033225e-001
-1.067562e-001
-1.145207e-001
-1.249392e-001
-1.372752e-001
-1.521562e-001
-1.704656e-001
-1.751095e-001
-1.468061e-001
-8.003844e-002
-2.171814e-002
-2.415020e-002
-6.073658e-002
-9.201385e-002
-1.098540e-001
-1.132447e-001
-8.950392e-002
-3.359126e-002
9.366618e-003
-3.575084e-002
-1.229086e-001
-1.556564e-001
-1.410201e-001
-1.207808e-001
-1.087446e-001
-1.048950e-001
-1.206743e-001
-1.760722e-001
-2.454053e-001
-2.616262e-001
-2.247643e-001
-1.777532e-001
-1.404188e-001
-1.071590e-001
-7.010177e-002
-3.445690e-002
6.605258e-004
3.941872e-002
7.713574e-002
1.115099e-001
1.429332e-001
1.696199e-001
1.932188e-001
2.072181e-001
2.124970e-001
2.166370e-001
2.144287e-001
2.036658e-001
1.895112e-001
1.715653e-001
1.485864e-001
1.197497e-001
8.761653e-002
5.887470e-002
3.086362e-002
1.391099e-003
-2.453197e-002
-4.759943e-002
-6.933300e-002
-8.934724e-002
-1.058878e-001
-1.150152e-001
-1.192022e-001
-1.214299e-001
-1.203825e-001
-1.152055e-001
-1.069433e-001
-9.606810e-002
-8.592412e-002
-7.393240e-002
-5.885691e-002
-4.617439e-002
-3.578671e-002
-2.684090e-002
-2.105592e-002
-1.974485e-002
-2.198937e-002
-2.679144e-002
-2.996612e-002
-3.247464e-002
-3.785910e-002
-4.440726e-002
-5.266692e-002
-6.559002e-002
-7.329269e-002
-5.214029e-002
1.222614e-002
9.938446e-002
1.313444e-001
1.048511e-001
7.823275e-002
6.344598e-002
5.817702e-002
7.763138e-002
1.329103e-001
2.005697e-001
1.974238e-001
1.014389e-001
4.329368e-002
5.462514e-002
7.446433e-002
8.614607e-002
9.187684e-002
8.067751e-002
3.386035e-002
-4.877808e-002
-1.002421e-001
-7.825961e-002
-3.534652e-002
-1.009982e-003
2.926021e-002
6.126991e-002
9.446770e-002
1.279445e-001
1.612391e-001
1.923113e-001
2.217321e-001
2.493766e-001
2.726375e-001
2.911674e-001
3.021091e-001
3.051596e-001
3.035861e-001
2.955927e-001
2.821279e-001
2.660515e-001
2.459672e-001
2.205706e-001
1.920634e-001
1.607341e-001
1.298008e-001
1.000628e-001
7.167689e-002
4.800189e-002
2.571979e-002
4.989495e-003
-1.276992e-002
-2.458637e-002
-3.246862e-002
-3.713311e-002
-3.636241e-002
-2.867017e-002
-1.794508e-002
-7.699440e-003
3.979756e-003
1.915846e-002
3.476771e-002
4.360404e-002
5.199221e-002
5.892097e-002
5.981789e-002
5.604319e-002
5.066851e-002
4.684399e-002
4.419541e-002
3.508935e-002
2.555260e-002
1.839521e-002
2.607776e-003
-6.267090e-004
3.485084e-002
1.146490e-001
1.823865e-001
1.817043e-001
1.487079e-001
1.293728e-001
1.156890e-001
1.125159e-001
1.434552e-001
2.092251e-001
2.547816e-001
1.987383e-001
1.061173e-001
8.216324e-002
1.006500e-001
1.127370e-001
1.185520e-001
1.164815e-001
8.964289e-002
1.901811e-002
-6.183129e-002
-8.103675e-002
-4.759276e-002
-1.167998e-002
1.608186e-002
4.328773e-002
7.333035e-002
1.042565e-001
1.366175e-001
1.692805e-001
1.987082e-001
2.268356e-001
2.512674e-001
2.700793e-001
2.835847e-001
2.896884e-001
2.895302e-001
2.852256e-001
2.739706e-001
2.593690e-001
2.415066e-001
2.157151e-001
1.859099e-001
1.533769e-001
1.183238e-001
8.478151e-002
5.303490e-002
2.355217e-002
-1.400599e-003
-2.634871e-002
-5.029846e-002
-6.887460e-002
-8.296474e-002
-9.306064e-002
-9.761968e-002
-9.874664e-002
-9.653231e-002
-9.050780e-002
-8.235082e-002
-7.387303e-002
-6.330916e-002
-4.938872e-002
-3.720462e-002
-2.727685e-002
-1.785897e-002
-8.735959e-003
-3.672329e-003
-6.878805e-003
-1.317249e-002
-1.574394e-002
-1.937554e-002
-2.860375e-002
-3.760687e-002
-4.539649e-002
-5.809310e-002
-7.715994e-002
-7.812845e-002
-3.435656e-002
4.765602e-002
8.880986e-002
6.460132e-002
3.153358e-002
1.194020e-002
-1.722497e-003
-1.889745e-003
3.615292e-002
1.071128e-001
1.310909e-001
4.677156e-002
-2.764524e-002
-2.573255e-002
-3.614858e-003
7.483216e-003
1.541887e-002
1.715165e-002
-1.032872e-002
-8.338102e-002
-1.460096e-001
-1.343599e-001
-9.223050e-002
-5.721593e-002
-2.555060e-002
7.496259e-003
4.118945e-002
7.398620e-002
1.058036e-001
1.356697e-001
1.637831e-001
1.898539e-001
2.128141e-001
2.302430e-001
2.394949e-001
2.408992e-001
2.354127e-001
2.247411e-001
2.093817e-001
1.911128e-001
1.679085e-001
1.390642e-001
1.061387e-001
7.119890e-002
3.527094e-002
1.134381e-003
-3.006291e-002
-5.883858e-002
-8.516613e-002
-1.093073e-001
-1.308092e-001
-1.473934e-001
-1.583015e-001
-1.660263e-001
-1.696505e-001
-1.703213e-001
-1.682338e-001
-1.645767e-001
-1.589787e-001
-1.504483e-001
-1.386764e-001
-1.273235e-001
-1.173585e-001
-1.053264e-001
-9.224590e-002
-7.999454e-002
-6.947896e-002
-5.833984e-002
-5.124814e-002
-5.057624e-002
-5.572785e-002
-6.026517e-002
-6.118489e-002
-6.459089e-002
-7.099711e-002
-7.594577e-002
-8.326170e-002
-1.000207e-001
-1.121088e-001
-9.069207e-002
-1.724290e-002
6.389538e-002
7.723755e-002
4.621944e-002
2.549618e-002
1.095842e-002
2.380736e-003
2.376933e-002
8.887323e-002
1.547873e-001
1.282873e-001
3.002057e-002
-8.104595e-003
1.255199e-002
2.804015e-002
3.883771e-002
4.871763e-002
3.850197e-002
-1.431428e-002
-9.357478e-002
-1.257525e-001
-9.102018e-002
-4.799830e-002
-1.501896e-002
1.774093e-002
5.008145e-002
8.326296e-002
1.172210e-001
1.480231e-001
1.765324e-001
2.042344e-001
2.280192e-001
2.460264e-001
2.586096e-001
2.637238e-001
2.637697e-001
2.566895e-001
2.427614e-001
2.275269e-001
2.079929e-001
1.821210e-001
1.520936e-001
1.207858e-001
8.909008e-002
5.864693e-002
2.868397e-002
2.013864e-003
-2.154803e-002
-4.439689e-002
-6.431277e-002
-7.977594e-002
-9.074025e-002
-9.942879e-002
-1.051133e-001
-1.077354e-001
-1.085358e-001
-1.087421e-001
-1.074506e-001
-1.049266e-001
-1.026274e-001
-1.009717e-001
-9.782353e-002
-9.225062e-002
-8.649999e-002
-8.041293e-002
-7.210832e-002
-6.200364e-002
-5.238809e-002
-4.325313e-002
-3.485013e-002
-3.090580e-002
-3.314998e-002
-3.756927e-002
-4.157144e-002
-4.341745e-002
-4.761802e-002
-5.486033e-002
-6.273855e-002
-7.505428e-002
-9.387362e-002
-1.032744e-001
-8.109357e-002
-1.824042e-002
6.459093e-002
9.186129e-002
6.321456e-002
3.178736e-002
1.288947e-002
7.110411e-003
2.848094e-002
8.194712e-002
1.440913e-001
1.393685e-001
4.554572e-002
-1.564560e-002
-7.745827e-003
1.542248e-002
2.803724e-002
3.279042e-002
1.924063e-002
-2.898335e-002
-1.118992e-001
-1.658698e-001
-1.471909e-001
-1.026691e-001
-6.674124e-002
-3.718489e-002
-5.815225e-003
2.645166e-002
5.876638e-002
8.894537e-002
1.203439e-001
1.535081e-001
1.833723e-001
2.079375e-001
2.278551e-001
2.386658e-001
2.431756e-001
2.411320e-001
2.333070e-001
2.241471e-001
2.108290e-001
1.911329e-001
1.662695e-001
1.357433e-001
1.010848e-001
6.630483e-002
3.292044e-002
3.240722e-003
-2.419872e-002
-5.056292e-002
-7.603529e-002
-9.945461e-002
-1.188828e-001
-1.348444e-001
-1.443793e-001
-1.472459e-001
-1.492998e-001
-1.498620e-001
-1.484122e-001
-1.486938e-001
-1.491482e-001
-1.490310e-001
-1.474592e-001
-1.407841e-001
-1.346353e-001
-1.301223e-001
-1.236961e-001
-1.171018e-001
-1.100814e-001
-1.010138e-001
-8.916420e-002
-7.627947e-002
-6.633419e-002
-6.646316e-002
-7.213893e-002
-7.751469e-002
-8.165390e-002
-8.594638e-002
-8.972812e-002
-9.422212e-002
-1.034823e-001
-1.186572e-001
-1.396620e-001
-1.499123e-001
-1.304513e-001
-7.132014e-002
9.456214e-003
3.836235e-002
7.693930e-003
-2.287821e-002
-3.857379e-002
-4.331618e-002
-2.313531e-002
2.828560e-002
9.221709e-002
9.090553e-002
-2.936428e-003
-6.190718e-002
-4.967236e-002
-2.931976e-002
-1.874363e-002
-1.365640e-002
-2.527660e-002
-6.859620e-002
-1.458332e-001
-1.952976e-001
-1.715749e-001
-1.288957e-001
-9.591932e-002
-6.637389e-002
-3.431185e-002
6.313814e-004
3.726064e-002
7.246965e-002
1.059686e-001
1.377844e-001
1.664969e-001
1.925319e-001
2.136797e-001
2.304323e-001
2.397743e-001
2.408526e-001
2.352210e-001
2.231331e-001
2.066028e-001
1.861263e-001
1.597627e-001
1.310227e-001
1.015136e-001
6.798067e-002
3.340476e-002
5.439675e-004
-3.094853e-002
-5.972436e-002
-8.613856e-002
-1.099031e-001
-1.276864e-001
-1.421749e-001
-1.549324e-001
-1.639781e-001
-1.689262e-001
-1.722752e-001
-1.724832e-001
-1.712409e-001
-1.702861e-001
-1.685375e-001
-1.685589e-001
-1.708693e-001
-1.722689e-001
-1.718815e-001
-1.693146e-001
-1.640264e-001
-1.602614e-001
-1.539772e-001
-1.433828e-001
-1.330874e-001
-1.240406e-001
-1.132764e-001
-1.028015e-001
-9.776698e-002
-1.018421e-001
-1.072816e-001
-1.075360e-001
-1.090780e-001
-1.154494e-001
-1.240244e-001
-1.320856e-001
-1.451228e-001
-1.645759e-001
-1.833501e-001
-1.857718e-001
-1.583711e-001
-9.354780e-002
-4.229393e-002
-5.083318e-002
-8.775028e-002
-1.173485e-001
-1.321756e-001
-1.317321e-001
-1.040387e-001
-4.168855e-002
3.583633e-003
-4.593354e-002
-1.280184e-001
-1.504242e-001
-1.293468e-001
-1.066288e-001
-9.107392e-002
-8.146484e-002
-9.423347e-002
-1.488126e-001
-2.127040e-001
-2.191390e-001
-1.752184e-001
-1.260909e-001
-8.693652e-002
-5.119461e-002
-1.545624e-002
2.054224e-002
5.834237e-002
9.600886e-002
1.337751e-001
1.687835e-001
1.993780e-001
2.261396e-001
2.466510e-001
2.596644e-001
2.667200e-001
2.669855e-001
2.616719e-001
2.507496e-001
2.341203e-001
2.124954e-001
1.837750e-001
1.507045e-001
1.174389e-001
8.387365e-002
5.123354e-002
2.004330e-002
-9.348084e-003
-3.674593e-002
-6.464669e-002
-8.938849e-002
-1.058134e-001
-1.177706e-001
-1.272029e-001
-1.319677e-001
-1.341013e-001
-1.341629e-001
-1.359987e-001
-1.370696e-001
-1.326984e-001
-1.251696e-001
-1.201394e-001
-1.136738e-001
-1.050773e-001
-9.737568e-002
-8.961070e-002
-8.259117e-002
-7.375976e-002
-6.527465e-002
-6.315696e-002
-6.750352e-002
-7.154565e-002
-7.659211e-002
-8.238501e-002
-8.679822e-002
-9.239865e-002
-9.996279e-002
-1.111207e-001
-1.266985e-001
-1.288595e-001
-9.583926e-002
-2.459607e-002
4.188492e-002
4.804936e-002
1.391514e-002
-1.357438e-002
-2.865205e-002
-3.060235e-002
-1.799664e-003
5.820824e-002
1.039040e-001
6.353473e-002
-2.481855e-002
-5.757416e-002
-3.972619e-002
-2.185683e-002
-1.205209e-002
-9.437116e-003
-2.909577e-002
-8.686560e-002
-1.589487e-001
-1.788262e-001
-1.431625e-001
-9.985850e-002
-6.362265e-002
-3.006753e-002
5.011384e-003
4.289994e-002
7.994320e-002
1.161570e-001
1.508197e-001
1.822395e-001
2.101617e-001
2.329531e-001
2.478002e-001
2.571320e-001
2.609131e-001
2.566224e-001
2.452996e-001
2.288322e-001
2.076218e-001
1.804962e-001
1.502970e-001
1.181846e-001
8.589528e-002
5.263050e-002
1.865403e-002
-1.436623e-002
-4.319245e-002
-6.898826e-002
-9.149848e-002
-1.080750e-001
-1.203750e-001
-1.291318e-001
-1.334738e-001
-1.350718e-001
-1.340928e-001
-1.300020e-001
-1.254328e-001
-1.191652e-001
-1.098982e-001
-9.945321e-002
-8.783414e-002
-7.738989e-002
-6.724782e-002
-5.511817e-002
-4.357714e-002
-3.244454e-002
-2.245070e-002
-1.636109e-002
-1.544996e-002
-1.936084e-002
-2.490144e-002
-2.774820e-002
-3.180607e-002
-3.736764e-002
-4.403596e-002
-5.543184e-002
-6.975129e-002
-6.947914e-002
-3.080856e-002
5.258329e-002
1.220213e-001
1.211946e-001
8.512345e-002
5.910202e-002
4.494476e-002
4.693071e-002
8.247581e-002
1.498296e-001
1.942571e-001
1.388917e-001
4.352156e-002
1.792200e-002
4.132436e-002
5.915126e-002
6.988962e-002
6.877658e-002
3.978621e-002
-2.864404e-002
-1.072802e-001
-1.247784e-001
-8.452736e-002
-4.158752e-002
-7.301575e-003
2.537912e-002
5.926071e-002
9.686695e-002
1.345538e-001
1.684279e-001
2.017725e-001
2.340558e-001
2.613938e-001
2.831537e-001
2.988329e-001
3.076545e-001
3.078514e-001
3.007356e-001
2.886864e-001
2.730741e-001
2.500523e-001
2.203944e-001
1.883892e-001
1.535936e-001
1.144870e-001
7.552617e-002
3.935612e-002
6.198441e-003
-2.535245e-002
-5.434399e-002
-7.881711e-002
-9.840337e-002
-1.139751e-001
-1.242985e-001
-1.296330e-001
-1.312380e-001
-1.293424e-001
-1.274349e-001
-1.241074e-001
-1.186968e-001
-1.090090e-001
-9.681627e-002
-8.515214e-002
-7.604369e-002
-6.384162e-002
-5.044112e-002
-4.049535e-002
-3.055641e-002
-2.009949e-002
-1.395750e-002
-1.547654e-002
-2.185681e-002
-2.822613e-002
-3.035462e-002
-3.572993e-002
-4.564944e-002
-5.436673e-002
-6.558527e-002
-8.407550e-002
-8.831058e-002
-5.424788e-002
2.495184e-002
9.404264e-002
8.693502e-002
4.532997e-002
2.129355e-002
5.309671e-003
4.086091e-004
3.051120e-002
9.434538e-002
1.400688e-001
8.120413e-002
-2.509216e-002
-5.422106e-002
-3.267495e-002
-2.089322e-002
-1.627254e-002
-1.775337e-002
-4.399269e-002
-1.135091e-001
-1.977044e-001
-2.180275e-001
-1.766776e-001
-1.332263e-001
-1.017880e-001
-7.119434e-002
-3.610780e-002
2.296552e-005
3.456569e-002
6.830369e-002
1.018512e-001
1.344245e-001
1.616617e-001
1.817674e-001
1.978459e-001
2.057283e-001
2.041213e-001
1.973942e-001
1.861585e-001
1.703023e-001
1.492163e-001
1.217033e-001
9.129900e-002
5.817697e-002
2.145147e-002
-1.286686e-002
-4.366028e-002
-7.397983e-002
-1.032523e-001
-1.300803e-001
-1.533329e-001
-1.715433e-001
-1.849836e-001
-1.923870e-001
-1.958047e-001
-1.976757e-001
-1.979757e-001
-1.956701e-001
-1.925973e-001
-1.887190e-001
-1.825379e-001
-1.738074e-001
-1.637459e-001
-1.542174e-001
-1.439010e-001
-1.333293e-001
-1.216222e-001
-1.089576e-001
-9.541873e-002
-8.100428e-002
-6.810260e-002
-6.140069e-002
-6.203284e-002
-6.672278e-002
-7.071634e-002
-7.126740e-002
-7.312752e-002
-7.839061e-002
-8.403238e-002
-9.435685e-002
-1.124934e-001
-1.241665e-001
-1.023583e-001
-3.567915e-002
4.577276e-002
6.970928e-002
4.248772e-002
1.950650e-002
6.122683e-003
1.308030e-003
2.480603e-002
8.537676e-002
1.498905e-001
1.404007e-001
5.058411e-002
3.461660e-003
1.973622e-002
3.896003e-002
5.035097e-002
5.937263e-002
4.947118e-002
1.883375e-003
-7.623696e-002
-1.194268e-001
-9.495640e-002
-5.606815e-002
-2.525026e-002
4.956394e-003
3.741071e-002
6.968391e-002
1.020130e-001
1.329857e-001
1.624990e-001
1.898899e-001
2.152644e-001
2.384627e-001
2.564650e-001
2.666255e-001
2.694208e-001
2.659781e-001
2.543876e-001
2.373706e-001
2.181804e-001
1.963172e-001
1.693563e-001
1.378316e-001
1.038413e-001
6.880735e-002
3.346481e-002
-1.385203e-003
-3.256641e-002
-5.834253e-002
-8.159974e-002
-1.034810e-001
-1.216080e-001
-1.362397e-001
-1.472691e-001
-1.540970e-001
-1.580278e-001
-1.581923e-001
-1.546606e-001
-1.525136e-001
-1.518085e-001
-1.526314e-001
-1.531006e-001
-1.495856e-001
-1.438485e-001
-1.371780e-001
-1.271098e-001
-1.167829e-001
-1.069335e-001
-9.649279e-002
-8.734499e-002
-7.503086e-002
-6.327456e-002
-6.007170e-002
-6.151219e-002
-6.205919e-002
-6.330989e-002
-6.360451e-002
-6.596589e-002
-7.149073e-002
-7.677008e-002
-8.772688e-002
-1.029950e-001
-9.942584e-002
-6.053599e-002
1.625078e-002
7.871735e-002
7.245674e-002
3.625665e-002
1.517920e-002
5.333332e-003
1.098108e-002
4.518413e-002
1.060681e-001
1.473831e-001
9.130143e-002
2.146947e-004
-1.983286e-002
3.589992e-003
2.017813e-002
2.777938e-002
2.424168e-002
-1.607240e-004
-6.436082e-002
-1.396154e-001
-1.518212e-001
-1.134898e-001
-7.643423e-002
-4.795291e-002
-2.156332e-002
7.320757e-003
3.819238e-002
6.713558e-002
9.815422e-002
1.287109e-001
1.551227e-001
1.797866e-001
2.021286e-001
2.178935e-001
2.257725e-001
2.264722e-001
2.205595e-001
2.102318e-001
1.950446e-001
1.756326e-001
1.526633e-001
1.261898e-001
9.398440e-002
5.983079e-002
2.649971e-002
-5.468894e-003
-3.378629e-002
-6.130484e-002
-8.724480e-002
-1.104494e-001
-1.317332e-001
-1.500238e-001
-1.615508e-001
-1.677186e-001
-1.690447e-001
-1.692100e-001
-1.694030e-001
-1.675161e-001
-1.663066e-001
-1.649565e-001
-1.620082e-001
-1.579687e-001
-1.521200e-001
-1.469712e-001
-1.424660e-001
-1.365338e-001
-1.300660e-001
-1.211128e-001
-1.106799e-001
-9.941751e-002
-8.881987e-002
-8.673737e-002
-9.117540e-002
-9.540192e-002
-1.012831e-001
-1.038243e-001
-1.048028e-001
-1.082575e-001
-1.124498e-001
-1.246493e-001
-1.452751e-001
-1.530558e-001
-1.295861e-001
-6.348535e-002
9.978414e-003
2.629929e-002
-2.709708e-003
-3.115641e-002
-4.977519e-002
-5.588512e-002
-3.348898e-002
2.484704e-002
8.089408e-002
5.671883e-002
-2.908396e-002
-7.183610e-002
-5.812540e-002
-3.870859e-002
-2.686916e-002
-1.796105e-002
-2.686476e-002
-7.520844e-002
-1.467044e-001
-1.770616e-001
-1.481756e-001
-1.075399e-001
-7.557070e-002
-4.357020e-002
-7.997340e-003
2.830579e-002
6.243179e-002
9.591325e-002
1.289359e-001
1.577028e-001
1.827880e-001
2.097617e-001
2.339905e-001
2.501004e-001
2.564467e-001
2.531805e-001
2.457160e-001
2.334061e-001
2.152823e-001
1.961868e-001
1.759088e-001
1.484907e-001
1.163653e-001
8.103033e-002
4.547635e-002
1.548188e-002
-1.418894e-002
-4.242393e-002
-6.583376e-002
-8.698599e-002
-1.070460e-001
-1.225116e-001
-1.337246e-001
-1.396463e-001
-1.421435e-001
-1.434183e-001
-1.409968e-001
-1.368440e-001
-1.323122e-001
-1.269952e-001
-1.183855e-001
-1.102664e-001
-1.061663e-001
-9.896448e-002
-8.623764e-002
-7.538371e-002
-6.652250e-002
-6.037613e-002
-5.805001e-002
-6.086170e-002
-6.916896e-002
-7.571479e-002
-7.538380e-002
-7.761346e-002
-8.459148e-002
-9.346618e-002
-1.065686e-001
-1.229566e-001
-1.276470e-001
-9.693687e-002
-2.610207e-002
3.604291e-002
4.080554e-002
1.195822e-002
-1.303743e-002
-2.668387e-002
-2.709918e-002
1.111731e-003
6.051445e-002
1.027323e-001
6.192316e-002
-1.824920e-002
-4.877761e-002
-3.384724e-002
-1.735441e-002
-9.108834e-003
-5.862891e-003
-2.364106e-002
-7.978679e-002
-1.473766e-001
-1.669232e-001
-1.357987e-001
-9.721727e-002
-6.860370e-002
-3.930916e-002
-5.732265e-003
2.752872e-002
6.131726e-002
9.490643e-002
1.277151e-001
1.590429e-001
1.867127e-001
2.118460e-001
2.344651e-001
2.499372e-001
2.566777e-001
2.563202e-001
2.516212e-001
2.418857e-001
2.278625e-001
2.108270e-001
1.898707e-001
1.655923e-001
1.369003e-001
1.050120e-001
7.536208e-002
4.704492e-002
1.912161e-002
-3.880728e-003
-2.567489e-002
-4.658911e-002
-6.461442e-002
-8.005434e-002
-9.111063e-002
-9.800909e-002
-1.032338e-001
-1.033058e-001
-1.003751e-001
-9.892482e-002
-9.617214e-002
-9.066345e-002
-8.640814e-002
-8.280522e-002
-7.497384e-002
-6.681772e-002
-5.939565e-002
-5.523863e-002
-5.645630e-002
-6.091227e-002
-6.814517e-002
-7.804654e-002
-8.301361e-002
-8.685400e-002
-9.539968e-002
-1.046334e-001
-1.185157e-001
-1.378539e-001
-1.486497e-001
-1.258403e-001
-5.925195e-002
-1.085867e-003
-2.551461e-003
-3.282279e-002
-5.574596e-002
-7.040898e-002
-7.511948e-002
-5.157600e-002
1.008896e-002
5.696760e-002
1.541263e-002
-6.219869e-002
-8.458186e-002
-6.573312e-002
-4.963747e-002
-4.036604e-002
-3.345848e-002
-4.542575e-002
-9.626076e-002
-1.599953e-001
-1.747101e-001
-1.415988e-001
-1.045886e-001
-7.640946e-002
-4.835509e-002
-1.753526e-002
1.582802e-002
5.004814e-002
8.204468e-002
1.128342e-001
1.422683e-001
1.694628e-001
1.936440e-001
2.138500e-001
2.298241e-001
2.397884e-001
2.414670e-001
2.359634e-001
2.257006e-001
2.113176e-001
1.938680e-001
1.739870e-001
1.519155e-001
1.262063e-001
9.658492e-002
6.602399e-002
3.652110e-002
9.941786e-003
-1.231770e-002
-3.144993e-002
-4.797806e-002
-6.386226e-002
-7.750614e-002
-8.682405e-002
-9.313487e-002
-9.698031e-002
-9.487137e-002
-8.931991e-002
-8.278074e-002
-7.652285e-002
-7.139500e-002
-6.289209e-002
-5.366910e-002
-4.856883e-002
-4.275292e-002
-3.471083e-002
-3.365907e-002
-3.899541e-002
-4.791993e-002
-5.575046e-002
-6.141714e-002
-7.038637e-002
-8.194107e-002
-8.972248e-002
-1.011306e-001
-1.207458e-001
-1.265370e-001
-9.572023e-002
-2.816512e-002
1.563356e-002
3.175039e-003
-2.552133e-002
-4.324201e-002
-5.632126e-002
-5.723526e-002
-2.567457e-002
3.534348e-002
6.541504e-002
7.407464e-003
-5.955267e-002
-6.727685e-002
-4.819493e-002
-3.445261e-002
-2.483067e-002
-2.282582e-002
-4.406750e-002
-1.014426e-001
-1.568893e-001
-1.558180e-001
-1.203212e-001
-8.606219e-002
-5.683517e-002
-2.894421e-002
1.070838e-003
3.407686e-002
6.717540e-002
1.003777e-001
1.328292e-001
1.630361e-001
1.909975e-001
2.133234e-001
2.291211e-001
2.403696e-001
2.444630e-001
2.434356e-001
2.380970e-001
2.265103e-001
2.104458e-001
1.893944e-001
1.631010e-001
1.366612e-001
1.084106e-001
8.013952e-002
5.367109e-002
2.627915e-002
5.603200e-004
-2.227610e-002
-4.426806e-002
-6.221250e-002
-7.468089e-002
-8.378589e-002
-8.903290e-002
-9.098823e-002
-8.755384e-002
-8.058809e-002
-7.301069e-002
-6.403047e-002
-5.137895e-002
-3.736824e-002
-2.587945e-002
-1.689329e-002
-8.047432e-003
-4.436621e-003
-7.692044e-003
-1.175194e-002
-1.362864e-002
-1.475930e-002
-1.991094e-002
-2.871882e-002
-3.757353e-002
-4.948631e-002
-6.890601e-002
-8.245215e-002
-6.823391e-002
-1.530650e-002
5.211617e-002
7.417588e-002
4.923523e-002
1.996332e-002
1.425036e-004
-8.578608e-003
7.172116e-003
5.670414e-002
1.150864e-001
1.121538e-001
3.592970e-002
-1.520526e-002
-1.002270e-002
1.098711e-002
2.775931e-002
3.746331e-002
3.246781e-002
-4.175126e-003
-7.112542e-002
-1.125628e-001
-9.411511e-002
-5.321272e-002
-1.638895e-002
1.331455e-002
4.247121e-002
7.626863e-002
1.098924e-001
1.421266e-001
1.728387e-001
2.027124e-001
2.302017e-001
2.528543e-001
2.712026e-001
2.850402e-001
2.917748e-001
2.907928e-001
2.840617e-001
2.722229e-001
2.586659e-001
2.396913e-001
2.163280e-001
1.894550e-001
1.594139e-001
1.270215e-001
9.449174e-002
6.449839e-002
3.919874e-002
1.632105e-002
-7.285745e-003
-2.805779e-002
-4.381037e-002
-5.451441e-002
-6.068454e-002
-6.035129e-002
-5.392045e-002
-4.396826e-002
-3.411570e-002
-2.597824e-002
-1.720326e-002
-9.069062e-003
-5.952096e-003
-6.652710e-003
-9.942538e-003
-1.432624e-002
-1.814329e-002
-2.467951e-002
-3.550873e-002
-4.633178e-002
-5.840297e-002
-7.439863e-002
-9.053856e-002
-8.387848e-002
-3.381969e-002
3.877046e-002
6.106618e-002
2.812384e-002
-5.049297e-003
-2.368410e-002
-3.498493e-002
-2.684203e-002
2.082774e-002
8.555094e-002
8.634922e-002
-1.290708e-003
-5.946361e-002
-5.009417e-002
-2.721916e-002
-1.122112e-002
1.474688e-003
1.870157e-004
-3.419517e-002
-1.048422e-001
-1.507219e-001
-1.264769e-001
-8.003598e-002
-4.137645e-002
-8.545626e-003
2.185012e-002
5.381917e-002
8.680225e-002
1.171879e-001
1.486318e-001
1.791870e-001
2.051997e-001
2.265372e-001
2.422810e-001
2.512014e-001
2.525980e-001
2.465393e-001
2.359843e-001
2.225145e-001
2.054611e-001
1.835176e-001
1.563651e-001
1.255679e-001
9.132399e-002
5.644752e-002
2.430164e-002
-4.735175e-003
-3.028826e-002
-5.332345e-002
-7.576865e-002
-9.534781e-002
-1.098903e-001
-1.186461e-001
-1.187444e-001
-1.130051e-001
-1.038392e-001
-9.190112e-002
-7.889907e-002
-6.706338e-002
-5.553136e-002
-4.494806e-002
-3.657110e-002
-3.206037e-002
-3.354785e-002
-3.729751e-002
-4.119372e-002
-4.679523e-002
-5.636116e-002
-6.560683e-002
-7.598902e-002
-9.127751e-002
-1.046969e-001
-8.978581e-002
-2.814177e-002
4.968422e-002
7.074872e-002
3.870899e-002
8.044723e-003
-1.099660e-002
-2.033902e-002
-4.590144e-003
5.225495e-002
1.164035e-001
1.041149e-001
1.178844e-002
-4.088097e-002
-2.990071e-002
-7.312004e-003
8.488147e-003
1.744511e-002
8.904316e-003
-3.877262e-002
-1.161434e-001
-1.569356e-001
-1.309654e-001
-8.531585e-002
-4.510323e-002
-1.279742e-002
1.884333e-002
5.235280e-002
8.630381e-002
1.212128e-001
1.541687e-001
1.833528e-001
2.097795e-001
2.300314e-001
2.437613e-001
2.510026e-001
2.509391e-001
2.460486e-001
2.362469e-001
2.203237e-001
1.987488e-001
1.722796e-001
1.419550e-001
1.092192e-001
7.246155e-002
3.663690e-002
3.691521e-003
-2.698310e-002
-5.603841e-002
-8.276520e-002
-1.056453e-001
-1.239421e-001
-1.387893e-001
-1.496221e-001
-1.539328e-001
-1.536600e-001
-1.500008e-001
-1.432452e-001
-1.335231e-001
-1.231303e-001
-1.113188e-001
-9.810276e-002
-8.552686e-002
-7.514052e-002
-6.559763e-002
-5.837768e-002
-5.636898e-002
-6.053103e-002
-6.674119e-002
-7.029556e-002
-7.537042e-002
-8.491706e-002
-9.435671e-002
-1.021755e-001
-1.160553e-001
-1.295502e-001
-1.161075e-001
-5.624708e-002
2.867106e-002
6.169030e-002
3.578753e-002
7.857275e-003
-8.310889e-003
-1.853357e-002
-5.135071e-003
4.682267e-002
1.135738e-001
1.150657e-001
2.398900e-002
-3.916057e-002
-3.184267e-002
-1.187258e-002
-6.679831e-004
7.354010e-003
-4.784706e-004
-4.297912e-002
-1.204273e-001
-1.725137e-001
-1.526064e-001
-1.075725e-001
-6.974456e-002
-3.457738e-002
9.614876e-004
3.841454e-002
7.729079e-002
1.134483e-001
1.473969e-001
1.783986e-001
2.049393e-001
2.274552e-001
2.431573e-001
2.506139e-001
2.517625e-001
2.447504e-001
2.318691e-001
2.141288e-001
1.907216e-001
1.641423e-001
1.331498e-001
9.902801e-002
6.344619e-002
2.541314e-002
-1.104090e-002
-4.473203e-002
-7.633521e-002
-1.030153e-001
-1.252471e-001
-1.434994e-001
-1.563294e-001
-1.669359e-001
-1.733897e-001
-1.748144e-001
-1.745704e-001
-1.714238e-001
-1.673932e-001
-1.637202e-001
-1.603899e-001
-1.590592e-001
-1.595761e-001
-1.591074e-001
-1.574432e-001
-1.526004e-001
-1.464372e-001
-1.411025e-001
-1.337939e-001
