100
0.9125
1.0816e+003
31.8178
4.010467e-002 
1.064550e-001 
1.684250e-001 
2.315088e-001 
2.938895e-001 
3.555706e-001 
4.183670e-001 
4.768008e-001 
5.613886e-001 
6.856582e-001 
7.698312e-001 
8.259786e-001 
8.844779e-001 
9.399759e-001 
9.937797e-001 
1.046575e+000 
1.097989e+000 
1.154478e+000 
1.185046e+000 
1.174354e+000 
1.160943e+000 
1.147168e+000 
1.133833e+000 
1.121110e+000 
1.109520e+000 
1.099275e+000 
1.087362e+000 
1.073704e+000 
1.060546e+000 
1.049265e+000 
1.041696e+000 
1.037056e+000 
1.031693e+000 
1.025948e+000 
1.020113e+000 
1.014996e+000 
1.014138e+000 
1.015074e+000 
1.014615e+000 
1.013351e+000 
1.009285e+000 
1.003464e+000 
1.001029e+000 
1.001599e+000 
1.004720e+000 
1.006019e+000 
1.004320e+000 
1.003490e+000 
1.004087e+000 
1.004421e+000 
1.003744e+000 
9.994032e-001 
9.910961e-001 
9.796092e-001 
9.675874e-001 
9.610951e-001 
9.577550e-001 
9.523469e-001 
9.434272e-001 
9.307514e-001 
9.172973e-001 
9.065923e-001 
8.983785e-001 
8.918188e-001 
8.848723e-001 
8.756294e-001 
8.646415e-001 
8.527530e-001 
8.426502e-001 
8.354007e-001 
8.297546e-001 
8.239506e-001 
8.182939e-001 
8.148184e-001 
8.112623e-001 
8.028784e-001 
7.915995e-001 
7.826455e-001 
7.746213e-001 
7.664156e-001 
7.587186e-001 
7.529446e-001 
7.471819e-001 
7.379785e-001 
7.262422e-001 
7.173153e-001 
7.118806e-001 
7.045635e-001 
6.965645e-001 
6.916120e-001 
6.893744e-001 
6.882310e-001 
6.881921e-001 
6.897867e-001 
6.941659e-001 
6.990193e-001 
7.010447e-001 
7.024463e-001 
7.002939e-001 
6.884272e-001 
6.690453e-001 
6.461009e-001 
6.172648e-001 
5.780308e-001 
5.213159e-001 
4.430681e-001 
3.478405e-001 
2.410727e-001 
1.321910e-001 
2.877276e-002 
-7.418377e-002 
-1.821047e-001 
-2.944005e-001 
-4.082997e-001 
-5.151577e-001 
-6.038991e-001 
-6.699261e-001 
-7.170553e-001 
-7.534702e-001 
-7.804693e-001 
-7.935534e-001 
-7.904071e-001 
-7.707945e-001 
-7.327485e-001 
-6.762609e-001 
-6.096063e-001 
-5.401361e-001 
-4.683744e-001 
-3.950296e-001 
-3.238227e-001 
-2.566599e-001 
-1.949647e-001 
-1.351838e-001 
-7.704958e-002 
-2.382773e-002 
2.665874e-002 
7.458510e-002 
1.188969e-001 
1.609926e-001 
2.020791e-001 
2.411742e-001 
2.784959e-001 
3.124408e-001 
3.446712e-001 
3.762647e-001 
4.076180e-001 
4.364544e-001 
4.605832e-001 
4.823328e-001 
5.011699e-001 
5.191543e-001 
5.371496e-001 
5.539163e-001 
5.671928e-001 
5.790791e-001 
5.865580e-001 
5.916735e-001 
5.974804e-001 
6.018451e-001 
6.048440e-001 
6.063086e-001 
6.067139e-001 
6.063686e-001 
6.067692e-001 
6.048968e-001 
6.032874e-001 
6.019601e-001 
6.006751e-001 
6.004550e-001 
6.019458e-001 
6.016426e-001 
5.989424e-001 
5.956765e-001 
5.918470e-001 
5.890295e-001 
5.868317e-001 
5.855220e-001 
5.825564e-001 
5.776190e-001 
5.713338e-001 
5.669877e-001 
5.642026e-001 
5.612131e-001 
5.565619e-001 
5.499214e-001 
5.417172e-001 
5.334788e-001 
5.273698e-001 
5.211970e-001 
5.141489e-001 
5.060750e-001 
4.977315e-001 
4.889949e-001 
4.803213e-001 
4.730123e-001 
4.660740e-001 
4.574613e-001 
4.474189e-001 
4.380749e-001 
4.300415e-001 
4.211305e-001 
4.102022e-001 
3.985946e-001 
3.891001e-001 
3.796515e-001 
3.700633e-001 
3.617297e-001 
3.514118e-001 
3.379115e-001 
3.227948e-001 
3.081442e-001 
2.957188e-001 
2.854157e-001 
2.711498e-001 
2.568142e-001 
2.425060e-001 
2.247374e-001 
2.074226e-001 
1.915987e-001 
1.762041e-001 
1.611495e-001 
1.454666e-001 
1.288396e-001 
1.150214e-001 
9.994283e-002 
8.323499e-002 
6.622066e-002 
5.078217e-002 
3.694387e-002 
2.391531e-002 
1.204352e-002 
-4.116133e-004 
-1.311664e-002 
-2.544133e-002 
-3.661362e-002 
-4.686522e-002 
-5.434117e-002 
-6.338951e-002 
-7.226433e-002 
-8.121104e-002 
-8.987471e-002 
-9.605631e-002 
-1.027006e-001 
-1.120478e-001 
-1.221170e-001 
-1.303864e-001 
-1.381359e-001 
-1.442320e-001 
-1.516658e-001 
-1.590094e-001 
-1.684156e-001 
-1.805447e-001 
-1.907028e-001 
-1.966867e-001 
-2.014900e-001 
-2.069141e-001 
-2.129042e-001 
-2.192967e-001 
-2.233967e-001 
-2.268209e-001 
-2.291660e-001 
-2.296982e-001 
-2.305369e-001 
-2.314982e-001 
-2.317989e-001 
-2.316428e-001 
-2.293313e-001 
-2.266136e-001 
-2.247635e-001 
-2.236558e-001 
-2.219053e-001 
-2.178712e-001 
-2.132840e-001 
-2.116571e-001 
-2.107353e-001 
-2.085517e-001 
-2.071088e-001 
-2.043035e-001 
-2.028369e-001 
-2.016615e-001 
-1.998517e-001 
-2.001409e-001 
-2.012708e-001 
-1.998626e-001 
-1.984983e-001 
-1.997029e-001 
-2.013882e-001 
-2.050471e-001 
-2.076582e-001 
-2.094705e-001 
-2.124185e-001 
-2.161647e-001 
-2.204805e-001 
-2.261454e-001 
-2.313195e-001 
-2.339658e-001 
-2.376659e-001 
-2.422598e-001 
-2.472175e-001 
-2.518639e-001 
-2.556167e-001 
-2.585513e-001 
-2.617975e-001 
-2.643533e-001 
-2.669334e-001 
-2.721085e-001 
-2.760404e-001 
-2.775069e-001 
-2.793345e-001 
-2.822951e-001 
-2.846992e-001 
-2.868569e-001 
-2.880716e-001 
-2.900924e-001 
-2.931582e-001 
-2.961883e-001 
-3.008236e-001 
-3.061656e-001 
-3.086568e-001 
-3.087539e-001 
-3.095505e-001 
-3.112888e-001 
-3.129126e-001 
-3.103981e-001 
-3.051482e-001 
-2.967838e-001 
-2.865288e-001 
-2.792110e-001 
-2.769235e-001 
-2.777822e-001 
-2.839793e-001 
-2.944172e-001 
-3.085838e-001 
-3.322228e-001 
-3.657139e-001 
-4.149668e-001 
-4.823767e-001 
-5.628077e-001 
-6.544042e-001 
-7.571443e-001 
-8.634592e-001 
-9.717821e-001 
-1.082104e+000 
-1.194080e+000 
-1.308416e+000 
-1.417404e+000 
-1.514384e+000 
-1.595519e+000 
-1.657853e+000 
-1.701939e+000 
-1.731118e+000 
-1.746553e+000 
-1.747403e+000 
-1.730920e+000 
-1.694540e+000 
-1.639809e+000 
-1.571691e+000 
-1.495219e+000 
-1.413877e+000 
-1.330400e+000 
-1.245205e+000 
-1.159807e+000 
-1.079059e+000 
-1.002309e+000 
-9.298341e-001 
-8.614852e-001 
-7.944719e-001 
-7.307222e-001 
-6.724155e-001 
-6.188869e-001 
-5.700459e-001 
-5.242920e-001 
-4.784914e-001 
-4.341288e-001 
-3.911833e-001 
-3.515583e-001 
-3.163783e-001 
-2.847573e-001 
-2.543150e-001 
-2.224650e-001 
-1.930837e-001 
-1.682634e-001 
-1.467166e-001 
-1.281891e-001 
-1.128409e-001 
-9.872107e-002 
-8.642033e-002 
-7.483900e-002 
-6.575628e-002 
-6.023822e-002 
-5.478710e-002 
-4.845062e-002 
-4.336308e-002 
-3.935659e-002 
-3.581731e-002 
-3.336052e-002 
-3.013172e-002 
-2.494371e-002 
-1.987236e-002 
-1.609718e-002 
-1.299007e-002 
-1.071295e-002 
-6.633944e-003 
-1.177632e-003 
3.507557e-003 
9.015506e-003 
1.353262e-002 
1.509439e-002 
1.723283e-002 
1.977729e-002 
2.268239e-002 
2.657157e-002 
2.875597e-002 
2.982337e-002 
3.255165e-002 
3.498456e-002 
3.652709e-002 
3.589932e-002 
3.375838e-002 
3.129377e-002 
2.969740e-002 
2.939341e-002 
3.021437e-002 
3.061751e-002 
2.817390e-002 
2.302011e-002 
1.774736e-002 
1.397638e-002 
1.100599e-002 
8.507174e-003 
3.256110e-003 
-2.852091e-003 
-1.075085e-002 
-1.994059e-002 
-2.860477e-002 
-3.729701e-002 
-4.630075e-002 
-5.524994e-002 
-6.555893e-002 
-7.531897e-002 
-8.398023e-002 
-9.664317e-002 
-1.099152e-001 
-1.239944e-001 
-1.375702e-001 
-1.496558e-001 
-1.639407e-001 
-1.783302e-001 
-1.915242e-001 
-2.070769e-001 
-2.236409e-001 
-2.381426e-001 
-2.528923e-001 
-2.666692e-001 
-2.827740e-001 
-3.001863e-001 
-3.143510e-001 
-3.277541e-001 
-3.407230e-001 
-3.537001e-001 
-3.673057e-001 
-3.811730e-001 
-3.939874e-001 
-4.052043e-001 
-4.134699e-001 
-4.201321e-001 
-4.263968e-001 
-4.329946e-001 
-4.401563e-001 
-4.451478e-001 
-4.489676e-001 
-4.515966e-001 
-4.529555e-001 
-4.535688e-001 
-4.529395e-001 
-4.528899e-001 
-4.548870e-001 
-4.565519e-001 
-4.595181e-001 
-4.632404e-001 
-4.653108e-001 
-4.666919e-001 
-4.669193e-001 
-4.668841e-001 
-4.684950e-001 
-4.684421e-001 
-4.658762e-001 
-4.630992e-001 
-4.588013e-001 
-4.555459e-001 
-4.528019e-001 
-4.492457e-001 
-4.448571e-001 
-4.401654e-001 
-4.334763e-001 
-4.247060e-001 
-4.140268e-001 
-4.017940e-001 
-3.891942e-001 
-3.752221e-001 
-3.625442e-001 
-3.538916e-001 
-3.498215e-001 
-3.465729e-001 
-3.437301e-001 
-3.413261e-001 
-3.404310e-001 
-3.427241e-001 
-3.457699e-001 
-3.514640e-001 
-3.590287e-001 
-3.638847e-001 
-3.671420e-001 
-3.732307e-001 
-3.797581e-001 
-3.879582e-001 
-3.978205e-001 
-4.070725e-001 
-4.174926e-001 
-4.251368e-001 
-4.275474e-001 
-4.278968e-001 
-4.260137e-001 
-4.212157e-001 
-4.189126e-001 
-4.210815e-001 
-4.239475e-001 
-4.232398e-001 
-4.182759e-001 
-4.107099e-001 
-4.030212e-001 
-3.976293e-001 
-3.939211e-001 
-3.895661e-001 
-3.816804e-001 
-3.655319e-001 
-3.426571e-001 
-3.199691e-001 
-2.991698e-001 
-2.822094e-001 
-2.698043e-001 
-2.579164e-001 
-2.479928e-001 
-2.431367e-001 
-2.405406e-001 
-2.410939e-001 
-2.472778e-001 
-2.572071e-001 
-2.698288e-001 
-2.828831e-001 
-2.938662e-001 
-3.061656e-001 
-3.198716e-001 
-3.322488e-001 
-3.475919e-001 
-3.687453e-001 
-3.933326e-001 
-4.194833e-001 
-4.458924e-001 
-4.718131e-001 
-5.012090e-001 
-5.351948e-001 
-5.763152e-001 
-6.297172e-001 
-6.954824e-001 
-7.727611e-001 
-8.635745e-001 
-9.647404e-001 
-1.070924e+000 
-1.181589e+000 
-1.296230e+000 
-1.412827e+000 
-1.527956e+000 
-1.635193e+000 
-1.731204e+000 
-1.812194e+000 
-1.871433e+000 
-1.907278e+000 
-1.927823e+000 
-1.936226e+000 
-1.928253e+000 
-1.898439e+000 
-1.844125e+000 
-1.767066e+000 
-1.671119e+000 
-1.560868e+000 
-1.443157e+000 
-1.326498e+000 
-1.213258e+000 
-1.105662e+000 
-1.006761e+000 
-9.200572e-001 
-8.439086e-001 
-7.798788e-001 
-7.259990e-001 
-6.807071e-001 
-6.465577e-001 
-6.246581e-001 
-6.104146e-001 
-5.978171e-001 
-5.833119e-001 
-5.674729e-001 
-5.555992e-001 
-5.459247e-001 
-5.384981e-001 
-5.317385e-001 
-5.186131e-001 
-4.935549e-001 
-4.573504e-001 
-4.161100e-001 
-3.747585e-001 
-3.350427e-001 
-2.951822e-001 
-2.547353e-001 
-2.153162e-001 
-1.792224e-001 
-1.492148e-001 
-1.259061e-001 
-1.094366e-001 
-9.637567e-002 
-8.571573e-002 
-7.536501e-002 
-6.651751e-002 
-6.194777e-002 
-5.757987e-002 
-5.169232e-002 
-4.429541e-002 
-3.832884e-002 
-3.241645e-002 
-2.578335e-002 
-1.554306e-002 
-4.702899e-003 
4.862710e-003 
1.631595e-002 
2.969402e-002 
4.512780e-002 
6.019862e-002 
7.593548e-002 
8.829151e-002 
9.496492e-002 
9.477463e-002 
9.330709e-002 
9.981333e-002 
1.175659e-001 
1.414648e-001 
1.625229e-001 
1.760360e-001 
1.764163e-001 
1.671680e-001 
1.545459e-001 
1.433555e-001 
1.366006e-001 
1.299956e-001 
1.157341e-001 
9.308863e-002 
6.683870e-002 
3.929193e-002 
1.638894e-002 
4.937288e-004 
-1.096036e-002 
-2.103289e-002 
-3.524483e-002 
-5.559320e-002 
-7.845004e-002 
-9.973789e-002 
-1.169318e-001 
-1.248139e-001 
-1.226609e-001 
-1.168165e-001 
-1.101141e-001 
-1.040824e-001 
-9.897208e-002 
-9.453952e-002 
-9.205595e-002 
-9.295143e-002 
-9.479161e-002 
-9.884194e-002 
-1.069559e-001 
-1.151059e-001 
-1.218750e-001 
-1.268750e-001 
-1.325877e-001 
-1.426053e-001 
-1.541316e-001 
-1.634996e-001 
-1.720609e-001 
-1.819673e-001 
-1.937469e-001 
-2.060091e-001 
-2.164002e-001 
-2.254860e-001 
-2.325673e-001 
-2.347656e-001 
-2.367219e-001 
-2.443899e-001 
-2.603510e-001 
-2.816484e-001 
-3.010343e-001 
-3.161063e-001 
-3.294264e-001 
-3.407377e-001 
-3.501850e-001 
-3.616655e-001 
-3.742961e-001 
-3.876242e-001 
-3.999268e-001 
-4.087074e-001 
-4.164123e-001 
-4.237737e-001 
-4.291980e-001 
-4.353514e-001 
-4.428297e-001 
-4.490530e-001 
-4.535985e-001 
-4.539934e-001 
-4.487683e-001 
-4.388727e-001 
-4.265837e-001 
-4.156783e-001 
-4.081497e-001 
-4.052316e-001 
-4.050751e-001 
-4.048102e-001 
-4.020703e-001 
-3.935176e-001 
-3.781579e-001 
-3.589462e-001 
-3.383248e-001 
-3.209796e-001 
-3.128395e-001 
-3.087431e-001 
-3.057226e-001 
-3.015159e-001 
-2.934503e-001 
-2.826026e-001 
-2.727721e-001 
-2.646300e-001 
-2.614941e-001 
-2.644723e-001 
-2.675687e-001 
-2.722106e-001 
-2.772511e-001 
-2.820263e-001 
-2.880994e-001 
-2.956329e-001 
-3.043359e-001 
-3.198262e-001 
-3.414620e-001 
-3.613242e-001 
-3.745215e-001 
-3.780779e-001 
-3.765746e-001 
-3.750835e-001 
-3.765503e-001 
-3.848577e-001 
-3.990199e-001 
-4.108770e-001 
-4.137906e-001 
-4.092079e-001 
-4.030995e-001 
-3.999931e-001 
-3.993522e-001 
-4.010864e-001 
-4.048643e-001 
-4.099312e-001 
-4.131511e-001 
-4.130251e-001 
-4.099596e-001 
-4.032423e-001 
-3.944119e-001 
-3.868451e-001 
-3.836150e-001 
-3.840759e-001 
-3.827409e-001 
-3.726979e-001 
-3.571461e-001 
-3.407949e-001 
-3.280898e-001 
-3.210903e-001 
-3.175884e-001 
-3.118468e-001 
-3.003537e-001 
-2.831535e-001 
-2.667370e-001 
-2.598644e-001 
-2.605974e-001 
-2.645418e-001 
-2.668922e-001 
-2.645314e-001 
-2.598555e-001 
-2.568467e-001 
-2.567429e-001 
-2.636897e-001 
-2.751615e-001 
-2.861561e-001 
-3.013904e-001 
-3.241288e-001 
-3.551282e-001 
-3.960277e-001 
-4.452482e-001 
-5.039881e-001 
-5.759134e-001 
-6.596083e-001 
-7.566072e-001 
-8.686776e-001 
-9.891593e-001 
-1.111429e+000 
-1.233973e+000 
-1.356275e+000 
-1.476954e+000 
-1.594459e+000 
-1.705729e+000 
-1.804875e+000 
-1.887919e+000 
-1.951167e+000 
-1.994928e+000 
-2.022419e+000 
-2.037004e+000 
-2.036661e+000 
-2.019581e+000 
-1.983370e+000 
-1.926400e+000 
-1.852681e+000 
-1.766452e+000 
-1.674225e+000 
-1.582029e+000 
-1.489265e+000 
-1.391290e+000 
-1.292028e+000 
-1.195362e+000 
-1.104741e+000 
-1.019986e+000 
-9.399798e-001 
-8.648132e-001 
-7.912708e-001 
-7.167528e-001 
-6.463218e-001 
-5.844923e-001 
-5.294422e-001 
-4.786430e-001 
-4.284496e-001 
-3.791183e-001 
-3.320303e-001 
-2.889115e-001 
-2.508098e-001 
-2.169386e-001 
-1.820320e-001 
-1.460385e-001 
-1.117959e-001 
-8.034749e-002 
-5.248460e-002 
-2.734522e-002 
-4.501815e-003 
1.779865e-002 
4.024023e-002 
6.164312e-002 
7.750418e-002 
8.999402e-002 
1.018540e-001 
1.135673e-001 
1.241731e-001 
1.314602e-001 
1.381563e-001 
1.458197e-001 
1.531760e-001 
1.600273e-001 
1.672713e-001 
1.729467e-001 
1.773869e-001 
1.802839e-001 
1.832534e-001 
1.900988e-001 
1.977281e-001 
2.033274e-001 
2.064799e-001 
2.087247e-001 
2.123467e-001 
2.172603e-001 
2.210890e-001 
2.250638e-001 
2.300146e-001 
2.319582e-001 
2.322126e-001 
2.347294e-001 
2.397158e-001 
2.432770e-001 
2.450021e-001 
2.463946e-001 
2.489539e-001 
2.516585e-001 
2.538098e-001 
2.571399e-001 
2.607632e-001 
2.616534e-001 
2.611250e-001 
2.634611e-001 
2.656899e-001 
2.647523e-001 
2.639847e-001 
2.645702e-001 
2.639645e-001 
2.625674e-001 
2.602364e-001 
2.571009e-001 
2.540834e-001 
2.501467e-001 
2.460070e-001 
2.452340e-001 
2.438600e-001 
2.397010e-001 
2.349437e-001 
2.289623e-001 
2.221304e-001 
2.180914e-001 
2.145038e-001 
2.077068e-001 
2.007055e-001 
1.926882e-001 
1.844086e-001 
1.766788e-001 
1.688572e-001 
1.608186e-001 
1.526824e-001 
1.413221e-001 
1.272858e-001 
1.164367e-001 
1.068805e-001 
9.671736e-002 
8.553831e-002 
7.433645e-002 
6.380233e-002 
5.321439e-002 
4.185540e-002 
3.095395e-002 
2.354831e-002 
1.528343e-002 
5.765421e-003 
-3.299067e-003 
-1.102197e-002 
-1.962397e-002 
-2.914819e-002 
-3.775946e-002 
-4.407296e-002 
-4.894990e-002 
-5.669941e-002 
-6.647751e-002 
-7.694188e-002 
-8.727413e-002 
-9.878395e-002 
-1.083442e-001 
-1.173776e-001 
-1.278341e-001 
-1.377470e-001 
-1.484938e-001 
-1.591922e-001 
-1.672002e-001 
-1.752428e-001 
-1.851474e-001 
-1.929816e-001 
-2.007512e-001 
-2.061421e-001 
-2.084485e-001 
-2.109317e-001 
-2.129911e-001 
-2.144938e-001 
-2.173906e-001 
-2.189521e-001 
-2.166286e-001 
-2.154216e-001 
-2.143850e-001 
-2.140272e-001 
-2.144477e-001 
-2.149571e-001 
-2.163240e-001 
-2.194566e-001 
-2.245704e-001 
-2.328822e-001 
-2.433272e-001 
-2.495118e-001 
-2.510382e-001 
-2.476995e-001 
-2.437059e-001 
-2.415929e-001 
-2.388871e-001 
-2.339898e-001 
-2.252570e-001 
-2.108953e-001 
-1.918296e-001 
-1.716082e-001 
-1.523845e-001 
-1.388185e-001 
-1.265236e-001 
-1.112227e-001 
-9.505086e-002 
-7.822808e-002 
-6.121813e-002 
-4.576122e-002 
-3.318434e-002 
-2.678590e-002 
-2.708583e-002 
-2.729768e-002 
-2.845910e-002 
-3.252144e-002 
-3.595350e-002 
-3.927563e-002 
-4.117825e-002 
-4.310229e-002 
-4.748458e-002 
-5.034247e-002 
-5.078367e-002 
-5.232163e-002 
-5.120939e-002 
-4.732791e-002 
-4.333656e-002 
-3.847728e-002 
-3.591492e-002 
-3.430816e-002 
-3.109687e-002 
-2.714987e-002 
-2.207048e-002 
-1.428681e-002 
-7.319563e-003 
-1.954536e-003 
4.047456e-003 
1.098747e-002 
2.067093e-002 
3.543731e-002 
5.232391e-002 
6.857212e-002 
8.509065e-002 
1.005558e-001 
1.152434e-001 
1.284249e-001 
1.354937e-001 
1.361760e-001 
1.294504e-001 
1.123523e-001 
8.814524e-002 
5.638033e-002 
1.101394e-002 
-5.327420e-002 
-1.380501e-001 
-2.391943e-001 
-3.498467e-001 
-4.662768e-001 
-5.850034e-001 
-7.040620e-001 
-8.268356e-001 
-9.518024e-001 
-1.073001e+000 
-1.181343e+000 
-1.272182e+000 
-1.345062e+000 
-1.399748e+000 
-1.436900e+000 
-1.460918e+000 
-1.471306e+000 
-1.464968e+000 
-1.442309e+000 
-1.402188e+000 
-1.345255e+000 
-1.268996e+000 
-1.174093e+000 
-1.071723e+000 
-9.695778e-001 
-8.669724e-001 
-7.689805e-001 
-6.761860e-001 
-5.828659e-001 
-4.855144e-001 
-3.858720e-001 
-2.916260e-001 
-2.083031e-001 
-1.311315e-001 
-5.741896e-002 
1.400210e-002 
8.777054e-002 
1.647735e-001 
2.405097e-001 
3.094448e-001 
3.705874e-001 
4.245465e-001 
4.727943e-001 
5.191738e-001 
5.672399e-001 
6.165251e-001 
6.659994e-001 
7.132502e-001 
7.564949e-001 
7.939450e-001 
8.265990e-001 
8.602590e-001 
8.965563e-001 
9.334127e-001 
9.684463e-001 
9.995001e-001 
1.025124e+000 
1.045749e+000 
1.062870e+000 
1.082139e+000 
1.102677e+000 
1.120579e+000 
1.137192e+000 
1.151073e+000 
1.162074e+000 
1.173601e+000 
1.186555e+000 
1.201216e+000 
1.220669e+000 
1.238892e+000 
1.255327e+000 
1.269061e+000 
1.279041e+000 
1.290095e+000 
1.305272e+000 
1.321742e+000 
1.340166e+000 
1.358679e+000 
1.372518e+000 
1.386994e+000 
1.403457e+000 
1.424459e+000 
1.449800e+000 
1.473389e+000 
1.492069e+000 
1.507459e+000 
1.517704e+000 
1.528185e+000 
1.544001e+000 
1.560817e+000 
1.575755e+000 
1.586334e+000 
1.592890e+000 
1.600318e+000 
1.608673e+000 
1.616112e+000 
1.625390e+000 
1.633668e+000 
1.637579e+000 
1.638906e+000 
1.639877e+000 
1.641824e+000 
1.644342e+000 
1.644294e+000 
1.644467e+000 
1.647543e+000 
1.651542e+000 
1.654167e+000 
1.654536e+000 
1.654778e+000 
1.655840e+000 
1.655684e+000 
1.654849e+000 
1.655952e+000 
1.655544e+000 
1.651887e+000 
1.646033e+000 
1.641484e+000 
1.639225e+000 
1.636163e+000 
1.630416e+000 
1.624008e+000 
1.617528e+000 
1.609544e+000 
1.602320e+000 
1.596092e+000 
1.588897e+000 
1.580035e+000 
1.571078e+000 
1.562816e+000 
1.555858e+000 
1.549946e+000 
1.543701e+000 
1.538004e+000 
1.531967e+000 
1.526089e+000 
1.522932e+000 
1.520878e+000 
1.519482e+000 
1.517975e+000 
1.517345e+000 
1.519066e+000 
1.521250e+000 
1.521191e+000 
1.520054e+000 
1.518476e+000 
1.516439e+000 
1.515740e+000 
1.515477e+000 
1.516462e+000 
1.514492e+000 
1.507910e+000 
1.501307e+000 
1.496839e+000 
1.493705e+000 
1.491079e+000 
1.488850e+000 
1.486165e+000 
1.481997e+000 
1.476837e+000 
1.476175e+000 
1.478945e+000 
1.480414e+000 
1.482453e+000 
1.485285e+000 
1.489562e+000 
1.494848e+000 
1.499754e+000 
1.506316e+000 
1.514657e+000 
1.520862e+000 
1.525347e+000 
1.530879e+000 
1.535411e+000 
1.540826e+000 
1.546703e+000 
1.553241e+000 
1.562335e+000 
1.571985e+000 
1.578982e+000 
1.583249e+000 
1.587694e+000 
1.593141e+000 
1.601278e+000 
1.610402e+000 
1.619711e+000 
1.626012e+000 
1.629213e+000 
1.629095e+000 
1.629071e+000 
1.632084e+000 
1.634436e+000 
1.636078e+000 
1.635588e+000 
1.631605e+000 
1.625272e+000 
1.619776e+000 
1.612890e+000 
1.607034e+000 
1.601196e+000 
1.594468e+000 
1.588805e+000 
1.582835e+000 
1.576058e+000 
1.568491e+000 
1.561091e+000 
1.554294e+000 
1.548671e+000 
1.541961e+000 
1.535737e+000 
1.530178e+000 
1.525400e+000 
1.522078e+000 
1.519280e+000 
1.517351e+000 
1.513746e+000 
1.507157e+000 
1.499274e+000 
1.494285e+000 
1.491591e+000 
1.490043e+000 
1.489390e+000 
1.486588e+000 
1.483158e+000 
1.481646e+000 
1.482240e+000 
1.486760e+000 
1.496000e+000 
1.503895e+000 
1.510775e+000 
1.516153e+000 
1.517744e+000 
1.517542e+000 
1.512909e+000 
1.500932e+000 
1.482000e+000 
1.456220e+000 
1.422036e+000 
1.376916e+000 
1.312396e+000 
1.226753e+000 
1.123162e+000 
1.006285e+000 
8.812420e-001 
7.537640e-001 
6.280457e-001 
4.977687e-001 
3.599768e-001 
2.210398e-001 
9.025436e-002 
-2.540993e-002 
-1.217016e-001 
-1.987274e-001 
-2.565065e-001 
-2.999273e-001 
-3.320029e-001 
-3.446859e-001 
-3.347556e-001 
-3.028304e-001 
-2.507815e-001 
-1.837174e-001 
-1.079172e-001 
-2.672364e-002 
5.696085e-002 
1.424331e-001 
2.288165e-001 
3.126127e-001 
3.933453e-001 
4.705450e-001 
5.421408e-001 
6.075917e-001 
6.710052e-001 
7.313312e-001 
7.870801e-001 
8.395142e-001 
8.880132e-001 
9.311725e-001 
9.711190e-001 
1.007684e+000 
1.043111e+000 
1.079327e+000 
1.111882e+000 
1.141616e+000 
1.170907e+000 
1.197041e+000 
1.219684e+000 
1.242267e+000 
1.261978e+000 
1.278095e+000 
1.290768e+000 
1.301085e+000 
1.310093e+000 
1.316500e+000 
1.318475e+000 
1.318421e+000 
1.317590e+000 
1.313689e+000 
1.308901e+000 
1.304451e+000 
1.300290e+000 
1.292849e+000 
1.283715e+000 
1.273813e+000 
1.264691e+000 
1.256545e+000 
1.247458e+000 
1.238145e+000 
1.229381e+000 
1.220921e+000 
1.211938e+000 
1.204826e+000 
1.196548e+000 
1.188145e+000 
1.178243e+000 
1.166932e+000 
1.157209e+000 
1.149122e+000 
1.139168e+000 
1.127726e+000 
1.116300e+000 
1.104118e+000 
1.092574e+000 
1.081587e+000 
1.070347e+000 
1.057437e+000 
1.043293e+000 
1.027820e+000 
1.012647e+000 
9.981992e-001 
9.830488e-001 
9.655216e-001 
9.476819e-001 
9.284831e-001 
9.096420e-001 
8.928947e-001 
8.750600e-001 
8.555041e-001 
8.350469e-001 
8.115452e-001 
7.876953e-001 
7.677748e-001 
7.478526e-001 
7.265130e-001 
7.044816e-001 
6.822702e-001 
6.605095e-001 
6.384004e-001 
6.150682e-001 
5.926703e-001 
5.702648e-001 
5.459609e-001 
5.203859e-001 
4.965888e-001 
4.743164e-001 
4.500650e-001 
4.235870e-001 
3.969995e-001 
3.708756e-001 
3.460390e-001 
3.208538e-001 
2.930442e-001 
2.663740e-001 
2.396864e-001 
2.108123e-001 
1.828401e-001 
1.551176e-001 
1.273001e-001 
1.017973e-001 
7.608266e-002 
5.046903e-002 
2.800661e-002 
3.542685e-003 
-2.250480e-002 
-4.673537e-002 
-7.095252e-002 
-9.255362e-002 
-1.126360e-001 
-1.346824e-001 
-1.565972e-001 
-1.792000e-001 
-2.032533e-001 
-2.234093e-001 
-2.405592e-001 
-2.579642e-001 
-2.763262e-001 
-2.960217e-001 
-3.153055e-001 
-3.331989e-001 
-3.496689e-001 
-3.642864e-001 
-3.789450e-001 
-3.940411e-001 
-4.087008e-001 
-4.221110e-001 
-4.332741e-001 
-4.434822e-001 
-4.525150e-001 
-4.591202e-001 
-4.665154e-001 
-4.747214e-001 
-4.785356e-001 
-4.813975e-001 
-4.866475e-001 
-4.933020e-001 
-4.995996e-001 
-5.023361e-001 
-5.025666e-001 
-5.046257e-001 
-5.058380e-001 
-5.046272e-001 
-5.054486e-001 
-5.082879e-001 
-5.107652e-001 
-5.121502e-001 
-5.135973e-001 
-5.164901e-001 
-5.203001e-001 
-5.231032e-001 
-5.255911e-001 
-5.302505e-001 
-5.383657e-001 
-5.461623e-001 
-5.529952e-001 
-5.607412e-001 
-5.667887e-001 
-5.728758e-001 
-5.817178e-001 
-5.925290e-001 
-6.045221e-001 
-6.156755e-001 
-6.230215e-001 
-6.308197e-001 
-6.399151e-001 
-6.477807e-001 
-6.574152e-001 
-6.672141e-001 
-6.761808e-001 
-6.835431e-001 
-6.904123e-001 
-6.976333e-001 
-7.057194e-001 
-7.129962e-001 
-7.186157e-001 
-7.244536e-001 
-7.303247e-001 
-7.368632e-001 
-7.429163e-001 
-7.497102e-001 
-7.541982e-001 
-7.585845e-001 
-7.647005e-001 
-7.706108e-001 
-7.770043e-001 
-7.837813e-001 
-7.900014e-001 
-7.948907e-001 
-7.986994e-001 
-7.996359e-001 
-8.014558e-001 
-8.011985e-001 
-7.972066e-001 
-7.940117e-001 
-7.910189e-001 
-7.858247e-001 
-7.812401e-001 
-7.788312e-001 
-7.796535e-001 
-7.880353e-001 
-8.040052e-001 
-8.284939e-001 
-8.622879e-001 
-9.013562e-001 
-9.468486e-001 
-1.004750e+000 
-1.079058e+000 
-1.172033e+000 
-1.281892e+000 
-1.404717e+000 
-1.535686e+000 
-1.670165e+000 
-1.803893e+000 
-1.937737e+000 
-2.072694e+000 
-2.206313e+000 
-2.329747e+000 
-2.438524e+000 
-2.530870e+000 
-2.602656e+000 
-2.653258e+000 
-2.686775e+000 
-2.705183e+000 
-2.708301e+000 
-2.692708e+000 
-2.655632e+000 
-2.600197e+000 
-2.528398e+000 
-2.442998e+000 
-2.350072e+000 
-2.254795e+000 
-2.156266e+000 
-2.056905e+000 
-1.956271e+000 
-1.857711e+000 
-1.765984e+000 
-1.680375e+000 
-1.599031e+000 
-1.522080e+000 
-1.448167e+000 
-1.376354e+000 
-1.309315e+000 
-1.246495e+000 
-1.191149e+000 
-1.139383e+000 
-1.086616e+000 
-1.033671e+000 
-9.826479e-001 
-9.344029e-001 
-8.894818e-001 
-8.482441e-001 
-8.088015e-001 
-7.707256e-001 
-7.311794e-001 
-6.935263e-001 
-6.601738e-001 
-6.297791e-001 
-6.016878e-001 
-5.765898e-001 
-5.549360e-001 
-5.358010e-001 
-5.181146e-001 
-5.017279e-001 
-4.897831e-001 
-4.798389e-001 
-4.708232e-001 
-4.647532e-001 
-4.619668e-001 
-4.607566e-001 
-4.579846e-001 
-4.546606e-001 
-4.537313e-001 
-4.551107e-001 
-4.544174e-001 
-4.529341e-001 
-4.503912e-001 
-4.467896e-001 
-4.433924e-001 
-4.402373e-001 
-4.385606e-001 
-4.378540e-001 
-4.349284e-001 
-4.292557e-001 
-4.235109e-001 
-4.189750e-001 
-4.173234e-001 
-4.165299e-001 
-4.140598e-001 
-4.093921e-001 
-4.051265e-001 
-4.026545e-001 
-4.011661e-001 
-4.016354e-001 
-4.042518e-001 
-4.054046e-001 
-4.052869e-001 
-4.057754e-001 
-4.057401e-001 
-4.079686e-001 
-4.097631e-001 
-4.088880e-001 
-4.093417e-001 
-4.112258e-001 
-4.131181e-001 
-4.167706e-001 
-4.197052e-001 
-4.210136e-001 
-4.244058e-001 
-4.279486e-001 
-4.324184e-001 
-4.384178e-001 
-4.447915e-001 
-4.499743e-001 
-4.548944e-001 
-4.608073e-001 
-4.689516e-001 
-4.784752e-001 
-4.869638e-001 
-4.941973e-001 
-5.017008e-001 
-5.104142e-001 
-5.204856e-001 
-5.334181e-001 
-5.471712e-001 
-5.588749e-001 
-5.678105e-001 
-5.772458e-001 
-5.891185e-001 
-6.020217e-001 
-6.155842e-001 
-6.295549e-001 
-6.426548e-001 
-6.539363e-001 
-6.636475e-001 
-6.749621e-001 
-6.907539e-001 
-7.071402e-001 
-7.218715e-001 
-7.349287e-001 
-7.449154e-001 
-7.516424e-001 
-7.559605e-001 
-7.601786e-001 
-7.674339e-001 
-7.774212e-001 
-7.862840e-001 
-7.931280e-001 
-7.974888e-001 
-8.006641e-001 
-8.041516e-001 
-8.109412e-001 
-8.212003e-001 
-8.315356e-001 
-8.411762e-001 
-8.490748e-001 
-8.566818e-001 
-8.639922e-001 
-8.704123e-001 
-8.789092e-001 
-8.900093e-001 
-8.998119e-001 
-9.084254e-001 
-9.168250e-001 
-9.230332e-001 
-9.251947e-001 
-9.217588e-001 
-9.181839e-001 
-9.177426e-001 
-9.182549e-001 
-9.190580e-001 
-9.188801e-001 
-9.157060e-001 
-9.089084e-001 
-9.006593e-001 
-8.946301e-001 
-8.915915e-001 
-8.899690e-001 
-8.879050e-001 
-8.837032e-001 
-8.783131e-001 
-8.739312e-001 
-8.710451e-001 
-8.701968e-001 
-8.690818e-001 
-8.657997e-001 
-8.630088e-001 
-8.582905e-001 
-8.526959e-001 
-8.485703e-001 
-8.421022e-001 
-8.338529e-001 
-8.269370e-001 
-8.209624e-001 
-8.169033e-001 
-8.152097e-001 
-8.114511e-001 
-8.076774e-001 
-8.046834e-001 
-8.016301e-001 
-8.003349e-001 
-7.993049e-001 
-7.991932e-001 
-8.006797e-001 
-8.014587e-001 
-8.005879e-001 
-8.018858e-001 
-8.044994e-001 
-8.068442e-001 
-8.077911e-001 
-8.093954e-001 
-8.130592e-001 
-8.155588e-001 
-8.155848e-001 
-8.150082e-001 
-8.144045e-001 
-8.123117e-001 
-8.124960e-001 
-8.139375e-001 
-8.155592e-001 
-8.180248e-001 
-8.184143e-001 
-8.162521e-001 
-8.150214e-001 
-8.134834e-001 
-8.129422e-001 
-8.139786e-001 
-8.115675e-001 
-8.097195e-001 
-8.098145e-001 
-8.069099e-001 
-8.023467e-001 
-7.975592e-001 
-7.908080e-001 
-7.838075e-001 
-7.765674e-001 
-7.679553e-001 
-7.597338e-001 
-7.475136e-001 
-7.314325e-001 
-7.164780e-001 
-7.033850e-001 
-6.920413e-001 
-6.849253e-001 
-6.827781e-001 
-6.860845e-001 
-6.976611e-001 
-7.164133e-001 
-7.445996e-001 
-7.804413e-001 
-8.229267e-001 
-8.758034e-001 
-9.440665e-001 
-1.028026e+000 
-1.128627e+000 
-1.243364e+000 
-1.366605e+000 
-1.493196e+000 
-1.617740e+000 
-1.742389e+000 
-1.866813e+000 
-1.988606e+000 
-2.101655e+000 
-2.200063e+000 
-2.281435e+000 
-2.345711e+000 
-2.389802e+000 
-2.416207e+000 
-2.428489e+000 
-2.427152e+000 
-2.410988e+000 
-2.374660e+000 
-2.317624e+000 
-2.245833e+000 
-2.160568e+000 
-2.064568e+000 
-1.964266e+000 
-1.862722e+000 
-1.762533e+000 
-1.661473e+000 
-1.560651e+000 
-1.465088e+000 
-1.376819e+000 
-1.294777e+000 
-1.217335e+000 
-1.140273e+000 
-1.064122e+000 
-9.902538e-001 
-9.204668e-001 
-8.575594e-001 
-7.987909e-001 
-7.437126e-001 
-6.912629e-001 
-6.397515e-001 
-5.904603e-001 
-5.448619e-001 
-5.024519e-001 
-4.625493e-001 
-4.223900e-001 
-3.811930e-001 
-3.429010e-001 
-3.088225e-001 
-2.787871e-001 
-2.510482e-001 
-2.242935e-001 
-1.987223e-001 
-1.768425e-001 
-1.579207e-001 
-1.424464e-001 
-1.321822e-001 
-1.255654e-001 
-1.191672e-001 
-1.120711e-001 
-1.046114e-001 
-9.758701e-002 
-9.170396e-002 
-8.497886e-002 
-8.018808e-002 
-7.882838e-002 
-7.920342e-002 
-7.828421e-002 
-7.411274e-002 
-6.677799e-002 
-5.819811e-002 
-5.066208e-002 
-4.746199e-002 
-4.771346e-002 
-4.661020e-002 
-4.273316e-002 
-3.447246e-002 
-2.466205e-002 
-1.717903e-002 
-1.210616e-002 
-1.161750e-002 
-1.347617e-002 
-1.150789e-002 
-7.795636e-003 
-5.839401e-003 
-4.402373e-003 
-4.609389e-003 
-3.052277e-003 
4.494680e-004 
2.694652e-003 
5.358535e-003 
7.685459e-003 
7.558552e-003 
7.279114e-003 
7.303566e-003 
6.020215e-003 
5.233306e-003 
2.947140e-003 
-1.824953e-003 
-7.548696e-003 
-1.121340e-002 
-1.234376e-002 
-1.516439e-002 
-2.188597e-002 
-3.024762e-002 
-3.698595e-002 
-4.316671e-002 
-4.965995e-002 
-5.600253e-002 
-6.159738e-002 
-7.031926e-002 
-8.256368e-002 
-9.304762e-002 
-1.013383e-001 
-1.087163e-001 
-1.162599e-001 
-1.233128e-001 
-1.301528e-001 
-1.369260e-001 
-1.458173e-001 
-1.547672e-001 
-1.629394e-001 
-1.719537e-001 
-1.808334e-001 
-1.882818e-001 
-1.952066e-001 
-2.038387e-001 
-2.144660e-001 
-2.269944e-001 
-2.377893e-001 
-2.463308e-001 
-2.529434e-001 
-2.593449e-001 
-2.657454e-001 
-2.728944e-001 
-2.815016e-001 
-2.927183e-001 
-3.047952e-001 
-3.144445e-001 
-3.221951e-001 
-3.284065e-001 
-3.345887e-001 
-3.390776e-001 
-3.431977e-001 
-3.488505e-001 
-3.559178e-001 
-3.594285e-001 
-3.607975e-001 
-3.624193e-001 
-3.653082e-001 
-3.709614e-001 
-3.778076e-001 
-3.840494e-001 
-3.868798e-001 
-3.857668e-001 
-3.824948e-001 
-3.813573e-001 
-3.811938e-001 
-3.812109e-001 
-3.795854e-001 
-3.751297e-001 
-3.681287e-001 
-3.602535e-001 
-3.534857e-001 
-3.486426e-001 
-3.427270e-001 
-3.342525e-001 
-3.238779e-001 
-3.118976e-001 
-3.002088e-001 
-2.894824e-001 
-2.794708e-001 
-2.711785e-001 
-2.639080e-001 
-2.558132e-001 
-2.488680e-001 
-2.411557e-001 
-2.327969e-001 
-2.267569e-001 
-2.248555e-001 
-2.255674e-001 
-2.267039e-001 
-2.268298e-001 
-2.258251e-001 
-2.233707e-001 
-2.202993e-001 
-2.206214e-001 
-2.239929e-001 
-2.264365e-001 
-2.252092e-001 
-2.221515e-001 
-2.193416e-001 
-2.170919e-001 
-2.156636e-001 
-2.151019e-001 
-2.140161e-001 
-2.116277e-001 
-2.088611e-001 
-2.080986e-001 
-2.093997e-001 
-2.094166e-001 
-2.060713e-001 
-1.999444e-001 
-1.948525e-001 
-1.933908e-001 
-1.941102e-001 
-1.949383e-001 
-1.956125e-001 
-1.952646e-001 
-1.938861e-001 
-1.927457e-001 
-1.950357e-001 
-2.013377e-001 
-2.048902e-001 
-2.017109e-001 
-1.931653e-001 
-1.824698e-001 
-1.703455e-001 
-1.573166e-001 
-1.437480e-001 
-1.326900e-001 
-1.245354e-001 
-1.176911e-001 
-1.162485e-001 
-1.251713e-001 
-1.441782e-001 
-1.689027e-001 
-2.015396e-001 
-2.463063e-001 
-3.066693e-001 
-3.813289e-001 
-4.709776e-001 
-5.777798e-001 
-6.969929e-001 
-8.184278e-001 
-9.393439e-001 
-1.062106e+000 
-1.183710e+000 
-1.299928e+000 
-1.407197e+000 
-1.504713e+000 
-1.586093e+000 
-1.644207e+000 
-1.679857e+000 
-1.699614e+000 
-1.704348e+000 
-1.694817e+000 
-1.671308e+000 
-1.631024e+000 
-1.572447e+000 
-1.496582e+000 
-1.409316e+000 
-1.318739e+000 
-1.226808e+000 
-1.134082e+000 
-1.045482e+000 
-9.593972e-001 
-8.732481e-001 
-7.891552e-001 
-7.105329e-001 
-6.369203e-001 
-5.678068e-001 
-5.006817e-001 
-4.370528e-001 
-3.796063e-001 
-3.230318e-001 
-2.641463e-001 
-2.057714e-001 
-1.500940e-001 
-9.829104e-002 
-5.196233e-002 
-7.657577e-003 
3.275602e-002 
7.065633e-002 
1.109445e-001 
1.512183e-001 
1.866321e-001 
2.161566e-001 
2.415117e-001 
2.650893e-001 
2.883279e-001 
3.077528e-001 
3.249530e-001 
3.398509e-001 
3.517714e-001 
3.603780e-001 
3.663977e-001 
3.707209e-001 
3.727955e-001 
3.728740e-001 
3.731586e-001 
3.752197e-001 
3.786593e-001 
3.823060e-001 
3.832234e-001 
3.831809e-001 
3.827759e-001 
3.838335e-001 
3.876105e-001 
3.926774e-001 
3.958196e-001 
3.971934e-001 
3.979260e-001 
3.997978e-001 
4.027888e-001 
4.057098e-001 
4.095768e-001 
4.114176e-001 
4.118091e-001 
4.120735e-001 
4.137321e-001 
4.155504e-001 
4.167232e-001 
4.155906e-001 
4.142013e-001 
4.134755e-001 
4.120824e-001 
4.117382e-001 
4.104339e-001 
4.077787e-001 
4.043651e-001 
4.012102e-001 
3.976227e-001 
3.943881e-001 
3.895635e-001 
3.829883e-001 
3.764130e-001 
3.691650e-001 
3.628784e-001 
3.566390e-001 
3.479977e-001 
3.389715e-001 
3.300627e-001 
3.194804e-001 
3.099888e-001 
3.008178e-001 
2.903640e-001 
2.801216e-001 
2.685607e-001 
2.573046e-001 
2.492413e-001 
2.390174e-001 
2.255926e-001 
2.133864e-001 
2.017062e-001 
1.905173e-001 
1.805422e-001 
1.697762e-001 
1.586259e-001 
1.469360e-001 
1.331902e-001 
1.214602e-001 
1.127879e-001 
1.030359e-001 
9.088009e-002 
7.814534e-002 
6.434479e-002 
5.107534e-002 
4.043582e-002 
3.069000e-002 
1.999171e-002 
8.317241e-003 
-4.195717e-003 
-1.581983e-002 
-2.547210e-002 
-3.661362e-002 
-4.691982e-002 
-5.631011e-002 
-6.829854e-002 
-8.053425e-002 
-8.933023e-002 
-9.843605e-002 
-1.085156e-001 
-1.193028e-001 
-1.300501e-001 
-1.369781e-001 
-1.429005e-001 
-1.506533e-001 
-1.571705e-001 
-1.625903e-001 
-1.692949e-001 
-1.746641e-001 
-1.778935e-001 
-1.786508e-001 
-1.782289e-001 
-1.788851e-001 
-1.806148e-001 
-1.780526e-001 
-1.730796e-001 
-1.693934e-001 
-1.675289e-001 
-1.648497e-001 
-1.600451e-001 
-1.544556e-001 
-1.481202e-001 
-1.407401e-001 
-1.319764e-001 
-1.266387e-001 
-1.237755e-001 
-1.195470e-001 
-1.115893e-001 
-1.034611e-001 
-9.737676e-002 
-9.242838e-002 
-8.877582e-002 
-8.690525e-002 
-8.526484e-002 
-8.197677e-002 
-7.989277e-002 
-7.848822e-002 
-7.861054e-002 
-8.002946e-002 
-8.097909e-002 
-8.269135e-002 
-8.497590e-002 
-8.691461e-002 
-9.016657e-002 
-9.463928e-002 
-9.702588e-002 
-9.943916e-002 
-1.026222e-001 
-1.043580e-001 
-1.052752e-001 
-1.070577e-001 
-1.090009e-001 
-1.114798e-001 
-1.135706e-001 
-1.143176e-001 
-1.150430e-001 
-1.148712e-001 
-1.129019e-001 
-1.121400e-001 
-1.145425e-001 
-1.167005e-001 
-1.176544e-001 
-1.171588e-001 
-1.158832e-001 
-1.152214e-001 
-1.148022e-001 
-1.125927e-001 
-1.084175e-001 
-1.013873e-001 
-8.967238e-002 
-7.696307e-002 
-6.588993e-002 
-5.833369e-002 
-5.481873e-002 
-5.549167e-002 
-6.275017e-002 
-7.952505e-002 
-1.058788e-001 
-1.439135e-001 
-1.987177e-001 
-2.734341e-001 
-3.691621e-001 
-4.796602e-001 
-6.000593e-001 
-7.266213e-001 
-8.538235e-001 
-9.799314e-001 
-1.106581e+000 
-1.234737e+000 
-1.362266e+000 
-1.479294e+000 
-1.573190e+000 
-1.643138e+000 
-1.691711e+000 
-1.722087e+000 
-1.737190e+000 
-1.735442e+000 
-1.714673e+000 
-1.672220e+000 
-1.605388e+000 
-1.518489e+000 
-1.423438e+000 
-1.324629e+000 
-1.226091e+000 
-1.127847e+000 
-1.029831e+000 
-9.350051e-001 
-8.451575e-001 
-7.603105e-001 
-6.803828e-001 
-6.046413e-001 
-5.306769e-001 
-4.620945e-001 
-3.970091e-001 
-3.355496e-001 
-2.768948e-001 
-2.201292e-001 
-1.663832e-001 
-1.152055e-001 
-6.611348e-002 
-1.973613e-002 
2.262225e-002 
6.283772e-002 
1.016769e-001 
1.392211e-001 
1.714112e-001 
1.979582e-001 
2.218542e-001 
2.440125e-001 
2.649581e-001 
2.819368e-001 
2.963181e-001 
3.098746e-001 
3.196635e-001 
3.258096e-001 
3.322789e-001 
3.403125e-001 
3.488238e-001 
3.552780e-001 
3.598226e-001 
3.672657e-001 
3.741932e-001 
3.779007e-001 
3.814268e-001 
3.869802e-001 
3.956904e-001 
4.038158e-001 
4.097866e-001 
4.168760e-001 
4.239419e-001 
4.266295e-001 
4.285862e-001 
4.326432e-001 
4.392446e-001 
4.453250e-001 
4.460505e-001 
4.449302e-001 
4.452115e-001 
4.455836e-001 
4.449116e-001 
4.453714e-001 
4.450323e-001 
4.444822e-001 
4.414516e-001 
4.364830e-001 
4.339294e-001 
4.312752e-001 
4.263300e-001 
4.192858e-001 
4.122999e-001 
4.058745e-001 
4.013889e-001 
3.939168e-001 
3.849144e-001 
3.768738e-001 
3.670199e-001 
3.565680e-001 
3.481907e-001 
3.402594e-001 
3.300141e-001 
3.187577e-001 
3.050143e-001 
2.938200e-001 
2.849864e-001 
2.728493e-001 
2.605388e-001 
2.489592e-001 
2.346477e-001 
2.193223e-001 
2.067109e-001 
1.947970e-001 
1.828056e-001 
1.693114e-001 
1.540936e-001 
1.420069e-001 
1.313122e-001 
1.195876e-001 
1.071583e-001 
9.702515e-002 
8.634791e-002 
7.448988e-002 
6.423783e-002 
5.529560e-002 
4.700286e-002 
3.689797e-002 
2.498051e-002 
1.424628e-002 
7.868568e-003 
-4.024453e-004 
-1.039215e-002 
-1.957461e-002 
-2.791723e-002 
-3.688882e-002 
-4.625315e-002 
-5.450662e-002 
-6.171230e-002 
-6.833610e-002 
-7.568225e-002 
-8.200544e-002 
-8.545925e-002 
-8.739824e-002 
-9.116245e-002 
-9.451516e-002 
-9.637221e-002 
-9.721619e-002 
-9.605474e-002 
-9.463577e-002 
-9.345376e-002 
-8.974809e-002 
-8.585067e-002 
-8.235543e-002 
-7.729094e-002 
-7.200568e-002 
-6.718156e-002 
-6.185807e-002 
-5.612050e-002 
-4.890922e-002 
-4.101834e-002 
-3.519106e-002 
-3.084194e-002 
-2.713212e-002 
-2.304264e-002 
-1.847251e-002 
-1.209347e-002 
-6.692900e-003 
-4.188763e-003 
-2.878692e-003 
-2.592129e-003 
-1.921362e-003 
6.109377e-004 
2.754616e-003 
2.991566e-003 
2.711771e-003 
1.160670e-004 
-1.866758e-003 
-1.334481e-003 
-2.189954e-003 
-4.072370e-003 
-5.890113e-003 
-9.423206e-003 
-1.238193e-002 
-1.218007e-002 
-1.199672e-002 
-1.267484e-002 
-1.392693e-002 
-1.640029e-002 
-1.760726e-002 
-1.812661e-002 
-2.025413e-002 
-2.189206e-002 
-2.262554e-002 
-2.540927e-002 
-2.720861e-002 
-2.662374e-002 
-2.610075e-002 
-2.674037e-002 
-2.887919e-002 
-3.068895e-002 
-3.103725e-002 
-3.054102e-002 
-2.956567e-002 
-2.649630e-002 
-2.263364e-002 
-1.755060e-002 
-9.671823e-003 
2.270152e-003 
1.676883e-002 
2.826199e-002 
3.612372e-002 
4.064226e-002 
3.970568e-002 
2.927338e-002 
1.020801e-002 
-1.750318e-002 
-5.513322e-002 
-1.090279e-001 
-1.855805e-001 
-2.803180e-001 
-3.901943e-001 
-5.133394e-001 
-6.436874e-001 
-7.739343e-001 
-9.030350e-001 
-1.030848e+000 
-1.161651e+000 
-1.291439e+000 
-1.407378e+000 
-1.503757e+000 
-1.577245e+000 
-1.627074e+000 
-1.658241e+000 
-1.672426e+000 
-1.668161e+000 
-1.646351e+000 
-1.601505e+000 
-1.533665e+000 
-1.449289e+000 
-1.353050e+000 
-1.251435e+000 
-1.148165e+000 
-1.041117e+000 
-9.347002e-001 
-8.338400e-001 
-7.394607e-001 
-6.521267e-001 
-5.688485e-001 
-4.884602e-001 
-4.107263e-001 
-3.363827e-001 
-2.669643e-001 
-2.037174e-001 
-1.443313e-001 
-8.725902e-002 
-3.139833e-002 
2.290968e-002 
7.510685e-002 
1.240593e-001 
1.677731e-001 
2.097771e-001 
2.507214e-001 
2.891269e-001 
3.227086e-001 
3.527885e-001 
3.814677e-001 
4.071275e-001 
4.289619e-001 
4.491280e-001 
4.667959e-001 
4.798121e-001 
4.909087e-001 
4.997562e-001 
5.091744e-001 
5.177339e-001 
5.230238e-001 
5.276991e-001 
5.327291e-001 
5.374985e-001 
5.430917e-001 
5.490340e-001 
5.522977e-001 
5.560933e-001 
5.602169e-001 
5.648111e-001 
5.708523e-001 
5.772784e-001 
5.824534e-001 
5.872411e-001 
5.909468e-001 
5.946730e-001 
6.004179e-001 
6.051246e-001 
6.081005e-001 
6.099722e-001 
6.106699e-001 
6.127273e-001 
6.165811e-001 
6.182863e-001 
6.193591e-001 
6.198635e-001 
6.195253e-001 
6.191099e-001 
6.190267e-001 
6.190582e-001 
6.192432e-001 
6.167850e-001 
6.136485e-001 
6.125686e-001 
6.123046e-001 
6.110931e-001 
6.066067e-001 
6.012140e-001 
5.962701e-001 
5.920025e-001 
5.893054e-001 
5.879359e-001 
5.827001e-001 
5.736105e-001 
5.620120e-001 
5.517176e-001 
5.464064e-001 
5.428330e-001 
5.387306e-001 
5.312520e-001 
5.172829e-001 
4.970170e-001 
4.776772e-001 
4.625050e-001 
4.515006e-001 
4.404856e-001 
4.258077e-001 
4.073377e-001 
3.858102e-001 
3.634206e-001 
3.431230e-001 
3.285560e-001 
3.169543e-001 
3.033899e-001 
2.854111e-001 
2.645618e-001 
2.441047e-001 
2.263477e-001 
2.112285e-001 
1.982524e-001 
1.877474e-001 
1.767841e-001 
1.644042e-001 
1.533018e-001 
1.449347e-001 
1.394563e-001 
1.343623e-001 
1.286125e-001 
1.206405e-001 
1.145229e-001 
1.111741e-001 
1.093824e-001 
1.089724e-001 
1.089486e-001 
1.078303e-001 
1.070581e-001 
1.079820e-001 
1.094731e-001 
1.161109e-001 
1.212475e-001 
1.215871e-001 
1.224299e-001 
1.270438e-001 
1.385955e-001 
1.577502e-001 
1.744679e-001 
1.839684e-001 
1.866859e-001 
1.795579e-001 
1.711624e-001 
1.673921e-001 
1.678118e-001 
1.702226e-001 
1.666977e-001 
1.535941e-001 
1.368911e-001 
1.222157e-001 
1.119827e-001 
1.066903e-001 
1.032997e-001 
9.842062e-002 
8.810957e-002 
7.121126e-002 
5.376728e-002 
4.264712e-002 
4.006261e-002 
4.556828e-002 
5.787610e-002 
7.644842e-002 
9.751650e-002 
1.162846e-001 
1.374166e-001 
1.642187e-001 
1.935933e-001 
2.252509e-001 
2.576609e-001 
2.848387e-001 
3.039287e-001 
3.132090e-001 
3.160317e-001 
3.200553e-001 
3.225873e-001 
3.262900e-001 
3.355585e-001 
3.422047e-001 
3.372256e-001 
3.179219e-001 
2.859968e-001 
2.471476e-001 
2.086001e-001 
1.753030e-001 
1.510986e-001 
1.294088e-001 
1.006877e-001 
6.278583e-002 
2.459135e-002 
-3.935299e-003 
-1.764425e-002 
-1.532281e-002 
-5.350937e-003 
3.080456e-003 
5.111039e-003 
1.897504e-003 
9.171934e-004 
1.008263e-002 
2.854214e-002 
5.312238e-002 
7.810719e-002 
9.884762e-002 
1.146992e-001 
1.241972e-001 
1.260504e-001 
1.212037e-001 
1.114001e-001 
9.478553e-002 
6.881764e-002 
3.042956e-002 
-2.262124e-002 
-9.517023e-002 
-1.865511e-001 
-2.862282e-001 
-3.809471e-001 
-4.658991e-001 
-5.493762e-001 
-6.436057e-001 
-7.513613e-001 
-8.634926e-001 
-9.654255e-001 
-1.036575e+000 
-1.073293e+000 
-1.095065e+000 
-1.126235e+000 
-1.183398e+000 
-1.260395e+000 
-1.326893e+000 
-1.356021e+000 
-1.338720e+000 
-1.285105e+000 
-1.227890e+000 
-1.189651e+000 
-1.168310e+000 
-1.147475e+000 
-1.104745e+000 
-1.030384e+000 
-9.363035e-001 
-8.413579e-001 
-7.606137e-001 
-6.988654e-001 
-6.429630e-001 
-5.738836e-001 
-4.819139e-001 
-3.737221e-001 
-2.639881e-001 
-1.630237e-001 
-7.347425e-002 
6.084241e-003 
7.444654e-002 
1.360461e-001 
1.961851e-001 
2.556675e-001 
3.122642e-001 
3.658998e-001 
4.190292e-001 
4.721704e-001 
5.227744e-001 
5.664180e-001 
6.026140e-001 
6.319644e-001 
6.565455e-001 
6.761442e-001 
6.939085e-001 
7.117325e-001 
7.279440e-001 
7.417421e-001 
7.459938e-001 
7.335098e-001 
7.048302e-001 
6.672460e-001 
6.337026e-001 
6.156270e-001 
6.097873e-001 
6.081815e-001 
6.034676e-001 
5.829151e-001 
5.494816e-001 
5.206618e-001 
5.149367e-001 
5.351504e-001 
5.668960e-001 
5.899063e-001 
5.966563e-001 
5.907454e-001 
5.797111e-001 
5.816434e-001 
6.075358e-001 
6.512972e-001 
6.963515e-001 
7.302803e-001 
7.472426e-001 
7.514068e-001 
7.473703e-001 
7.416976e-001 
7.430649e-001 
7.552292e-001 
7.792260e-001 
8.074763e-001 
8.243209e-001 
8.212335e-001 
8.013411e-001 
7.754753e-001 
7.572021e-001 
7.542722e-001 
7.685844e-001 
7.858899e-001 
7.793992e-001 
7.416784e-001 
6.889823e-001 
6.422613e-001 
6.132923e-001 
6.004915e-001 
5.974688e-001 
5.918364e-001 
5.672369e-001 
5.235790e-001 
4.776829e-001 
4.452014e-001 
4.319750e-001 
4.299969e-001 
4.313436e-001 
4.298383e-001 
4.212795e-001 
4.060246e-001 
3.896745e-001 
3.789006e-001 
3.783794e-001 
3.848632e-001 
3.918228e-001 
3.973453e-001 
3.980819e-001 
3.948391e-001 
3.876191e-001 
3.805798e-001 
3.746879e-001 
3.681329e-001 
3.584397e-001 
3.463922e-001 
3.344551e-001 
3.220654e-001 
3.096987e-001 
2.968637e-001 
2.832638e-001 
2.677439e-001 
2.537586e-001 
2.424750e-001 
2.347548e-001 
2.301939e-001 
2.257830e-001 
2.214636e-001 
2.167854e-001 
2.120334e-001 
2.096794e-001 
2.101266e-001 
2.105223e-001 
2.112125e-001 
2.124828e-001 
2.147673e-001 
2.197014e-001 
2.257738e-001 
2.318931e-001 
2.379901e-001 
2.426160e-001 
2.467503e-001 
2.509689e-001 
2.538854e-001 
2.552869e-001 
2.567846e-001 
2.582691e-001 
2.601639e-001 
2.634557e-001 
2.683863e-001 
2.730088e-001 
2.748866e-001 
2.750311e-001 
2.750318e-001 
2.762952e-001 
2.764057e-001 
2.748732e-001 
2.742229e-001 
2.735045e-001 
2.712215e-001 
2.700531e-001 
2.705267e-001 
2.718049e-001 
2.731800e-001 
2.740442e-001 
2.765384e-001 
2.788267e-001 
2.785029e-001 
2.775690e-001 
2.765836e-001 
2.765039e-001 
2.766375e-001 
2.774129e-001 
2.800669e-001 
2.810451e-001 
2.789064e-001 
2.789878e-001 
2.799829e-001 
2.803439e-001 
2.813619e-001 
2.797262e-001 
2.785032e-001 
2.777211e-001 
2.760727e-001 
2.774171e-001 
2.793536e-001 
2.772694e-001 
2.758950e-001 
2.760466e-001 
2.759578e-001 
2.786384e-001 
2.817090e-001 
2.844624e-001 
2.860794e-001 
2.879130e-001 
2.942285e-001 
3.057315e-001 
3.184364e-001 
3.295266e-001 
3.402828e-001 
3.479997e-001 
3.514417e-001 
3.507539e-001 
3.460560e-001 
3.316008e-001 
3.084324e-001 
2.771176e-001 
2.352236e-001 
1.803843e-001 
1.075998e-001 
1.596931e-002 
-9.155313e-002 
-2.112643e-001 
-3.383837e-001 
-4.646876e-001 
-5.937062e-001 
-7.277965e-001 
-8.634714e-001 
-9.952676e-001 
-1.116012e+000 
-1.216909e+000 
-1.297573e+000 
-1.360045e+000 
-1.405798e+000 
-1.438765e+000 
-1.454921e+000 
-1.449817e+000 
-1.423386e+000 
-1.376508e+000 
-1.311781e+000 
-1.235857e+000 
-1.151784e+000 
-1.061008e+000 
-9.654390e-001 
-8.676317e-001 
-7.704774e-001 
-6.759737e-001 
-5.867009e-001 
-5.007951e-001 
-4.203349e-001 
-3.470013e-001 
-2.764252e-001 
-2.098965e-001 
-1.483968e-001 
-8.895798e-002 
-3.314332e-002 
1.913078e-002 
7.133104e-002 
1.194416e-001 
1.663593e-001 
2.147905e-001 
2.602955e-001 
3.027207e-001 
3.438540e-001 
3.843448e-001 
4.256856e-001 
4.660910e-001 
5.015591e-001 
5.350479e-001 
5.681026e-001 
5.981507e-001 
6.245739e-001 
6.509650e-001 
6.755431e-001 
6.951183e-001 
7.092688e-001 
7.200283e-001 
7.311359e-001 
7.430308e-001 
7.520497e-001 
7.583583e-001 
7.638097e-001 
7.669083e-001 
7.696161e-001 
7.727436e-001 
7.761074e-001 
7.787079e-001 
7.815976e-001 
7.842310e-001 
7.862846e-001 
7.886329e-001 
7.933651e-001 
7.989318e-001 
8.029692e-001 
8.071662e-001 
8.108632e-001 
8.156437e-001 
8.203748e-001 
8.227869e-001 
8.243669e-001 
8.280038e-001 
8.309916e-001 
8.339410e-001 
8.362302e-001 
8.360244e-001 
8.376980e-001 
8.406238e-001 
8.413363e-001 
8.416769e-001 
8.430992e-001 
8.418505e-001 
8.392958e-001 
8.354048e-001 
8.334233e-001 
8.351997e-001 
8.339121e-001 
8.289966e-001 
8.256437e-001 
8.225421e-001 
8.172945e-001 
8.134060e-001 
8.097924e-001 
8.068898e-001 
8.007617e-001 
7.906742e-001 
7.822587e-001 
7.757672e-001 
7.668638e-001 
7.554406e-001 
7.464449e-001 
7.382690e-001 
7.300252e-001 
7.195508e-001 
7.090357e-001 
6.986337e-001 
6.866789e-001 
6.724897e-001 
6.585501e-001 
6.487099e-001 
6.385922e-001 
6.248603e-001 
6.089389e-001 
5.949646e-001 
5.814649e-001 
5.679693e-001 
5.546354e-001 
5.415123e-001 
5.299739e-001 
5.167844e-001 
5.021836e-001 
4.900074e-001 
4.783959e-001 
4.651547e-001 
4.525216e-001 
4.405480e-001 
4.292112e-001 
4.193944e-001 
4.082036e-001 
3.954617e-001 
3.821517e-001 
3.697376e-001 
3.595778e-001 
3.505998e-001 
3.415119e-001 
3.307638e-001 
3.193519e-001 
3.075452e-001 
2.959976e-001 
2.869066e-001 
2.805782e-001 
2.737524e-001 
2.661602e-001 
2.587598e-001 
2.529161e-001 
2.501150e-001 
2.479385e-001 
2.448204e-001 
2.432387e-001 
2.437692e-001 
2.441529e-001 
2.453386e-001 
2.473966e-001 
2.491853e-001 
2.503730e-001 
2.516350e-001 
2.543616e-001 
2.605366e-001 
2.663278e-001 
2.700390e-001 
2.726020e-001 
2.737366e-001 
2.759445e-001 
2.798952e-001 
2.836206e-001 
2.868166e-001 
2.888860e-001 
2.894590e-001 
2.902922e-001 
2.905119e-001 
2.914299e-001 
2.928781e-001 
2.922017e-001 
2.902878e-001 
2.888874e-001 
2.876156e-001 
2.860957e-001 
2.833203e-001 
2.804394e-001 
2.786403e-001 
2.768283e-001 
2.745418e-001 
2.715546e-001 
2.684313e-001 
2.647111e-001 
2.601800e-001 
2.564861e-001 
2.545377e-001 
2.522233e-001 
2.483046e-001 
2.432117e-001 
2.386017e-001 
2.361286e-001 
2.344475e-001 
2.333590e-001 
2.312149e-001 
2.278996e-001 
2.243659e-001 
2.216482e-001 
2.196742e-001 
2.188290e-001 
2.185208e-001 
2.184679e-001 
2.180050e-001 
2.162015e-001 
2.165855e-001 
2.191140e-001 
2.209921e-001 
2.240863e-001 
2.302687e-001 
2.389753e-001 
2.512250e-001 
2.632404e-001 
2.734897e-001 
2.836854e-001 
2.916377e-001 
2.954261e-001 
2.952188e-001 
2.875951e-001 
2.708727e-001 
2.443790e-001 
2.068300e-001 
1.566238e-001 
9.049755e-002 
5.483966e-003 
-9.831792e-002 
-2.179322e-001 
-3.479293e-001 
-4.840460e-001 
-6.225274e-001 
-7.630440e-001 
-9.100908e-001 
-1.058317e+000 
-1.198081e+000 
-1.323527e+000 
-1.429827e+000 
-1.514883e+000 
-1.581800e+000 
-1.631467e+000 
-1.664721e+000 
-1.679546e+000 
-1.668549e+000 
-1.632610e+000 
-1.576233e+000 
-1.502204e+000 
-1.415986e+000 
-1.323333e+000 
-1.224214e+000 
-1.120351e+000 
-1.014505e+000 
-9.079312e-001 
-8.055925e-001 
-7.069366e-001 
-6.117864e-001 
-5.239997e-001 
-4.422102e-001 
-3.636703e-001 
-2.891905e-001 
-2.174830e-001 
-1.491272e-001 
-8.677849e-002 
-2.885651e-002 
2.498059e-002 
7.631329e-002 
1.281404e-001 
1.802312e-001 
2.310727e-001 
2.793950e-001 
3.242277e-001 
3.660917e-001 
4.071355e-001 
4.489601e-001 
4.888247e-001 
5.256408e-001 
5.601369e-001 
5.911697e-001 
6.195745e-001 
6.468013e-001 
6.709822e-001 
6.920388e-001 
7.108205e-001 
7.254477e-001 
7.391319e-001 
7.517210e-001 
7.626327e-001 
7.708636e-001 
7.772336e-001 
7.821317e-001 
7.861421e-001 
7.895705e-001 
7.919469e-001 
7.949186e-001 
7.980062e-001 
8.005498e-001 
8.021655e-001 
8.063949e-001 
8.106826e-001 
8.137026e-001 
8.168165e-001 
8.214256e-001 
8.277630e-001 
8.333204e-001 
8.369433e-001 
8.400156e-001 
8.430686e-001 
8.453968e-001 
8.491766e-001 
8.538280e-001 
8.582879e-001 
8.604763e-001 
8.603301e-001 
8.606931e-001 
8.620391e-001 
8.631127e-001 
8.644699e-001 
8.642043e-001 
8.609908e-001 
8.576721e-001 
8.549776e-001 
8.541306e-001 
8.531328e-001 
8.499759e-001 
8.458099e-001 
8.421634e-001 
8.371065e-001 
8.322943e-001 
8.287692e-001 
8.241685e-001 
8.177119e-001 
8.091510e-001 
8.019081e-001 
7.961943e-001 
7.907594e-001 
7.835780e-001 
7.754782e-001 
7.679738e-001 
7.593382e-001 
7.496564e-001 
7.406581e-001 
7.321790e-001 
7.224811e-001 
7.132264e-001 
7.030394e-001 
6.934412e-001 
6.830803e-001 
6.697977e-001 
6.569936e-001 
6.448909e-001 
6.337635e-001 
6.229589e-001 
6.113799e-001 
5.976779e-001 
5.827472e-001 
5.662716e-001 
5.526025e-001 
5.413074e-001 
5.297427e-001 
5.189937e-001 
5.067359e-001 
4.942731e-001 
4.823959e-001 
4.712782e-001 
4.610467e-001 
4.517191e-001 
4.400798e-001 
4.282350e-001 
4.176907e-001 
4.066692e-001 
3.964849e-001 
3.849647e-001 
3.729101e-001 
3.626751e-001 
3.533731e-001 
3.434736e-001 
3.351898e-001 
3.269315e-001 
3.187354e-001 
3.132460e-001 
3.107088e-001 
3.155813e-001 
3.249757e-001 
3.316217e-001 
3.360333e-001 
3.394204e-001 
3.413481e-001 
3.436368e-001 
3.500374e-001 
3.614208e-001 
3.748721e-001 
3.823461e-001 
3.823847e-001 
3.775868e-001 
3.679958e-001 
3.550189e-001 
3.417424e-001 
3.316274e-001 
3.209921e-001 
3.043885e-001 
2.811274e-001 
2.562144e-001 
2.334650e-001 
2.155562e-001 
2.042278e-001 
1.995729e-001 
1.979522e-001 
1.946853e-001 
1.882475e-001 
1.825466e-001 
1.814274e-001 
1.837353e-001 
1.887779e-001 
1.972682e-001 
2.066969e-001 
2.161913e-001 
2.256399e-001 
2.335840e-001 
2.408114e-001 
2.449381e-001 
2.457203e-001 
2.464655e-001 
2.474154e-001 
2.468796e-001 
2.456850e-001 
2.436138e-001 
2.402168e-001 
2.373818e-001 
2.344517e-001 
2.327283e-001 
2.325764e-001 
2.311887e-001 
2.284745e-001 
2.258452e-001 
2.242232e-001 
2.241887e-001 
2.251091e-001 
2.233534e-001 
2.214566e-001 
2.206093e-001 
2.193595e-001 
2.185135e-001 
2.184262e-001 
2.180219e-001 
2.177590e-001 
2.175739e-001 
2.170870e-001 
2.203084e-001 
2.257292e-001 
2.314449e-001 
2.388359e-001 
2.478166e-001 
2.573580e-001 
2.670280e-001 
2.722763e-001 
2.711686e-001 
2.657207e-001 
2.534083e-001 
2.333765e-001 
2.082607e-001 
1.757789e-001 
1.334659e-001 
7.751572e-002 
5.043805e-003 
-8.152101e-002 
-1.824134e-001 
-2.976002e-001 
-4.198784e-001 
-5.418069e-001 
-6.627849e-001 
-7.814581e-001 
-8.978150e-001 
-1.009454e+000 
-1.112869e+000 
-1.204009e+000 
-1.278374e+000 
-1.330265e+000 
-1.359776e+000 
-1.374230e+000 
-1.376189e+000 
-1.364046e+000 
-1.336359e+000 
-1.291053e+000 
-1.228956e+000 
-1.154257e+000 
-1.067972e+000 
-9.755385e-001 
-8.832864e-001 
-7.905492e-001 
-7.000268e-001 
-6.156890e-001 
-5.362341e-001 
-4.614959e-001 
-3.898456e-001 
-3.189763e-001 
-2.489824e-001 
-1.827866e-001 
-1.227343e-001 
-6.915458e-002 
-1.789469e-002 
3.296027e-002 
8.286629e-002 
1.314712e-001 
1.776874e-001 
2.210524e-001 
2.599749e-001 
2.968693e-001 
3.340173e-001 
3.699331e-001 
4.021576e-001 
4.321563e-001 
4.600294e-001 
4.849114e-001 
5.082797e-001 
5.298658e-001 
5.484640e-001 
5.622155e-001 
5.726188e-001 
5.822826e-001 
5.921089e-001 
5.992768e-001 
6.024915e-001 
6.060356e-001 
6.100263e-001 
6.118401e-001 
6.127826e-001 
6.145893e-001 
6.163450e-001 
6.176430e-001 
6.161948e-001 
6.150954e-001 
6.179605e-001 
6.200899e-001 
6.199314e-001 
6.200771e-001 
6.211150e-001 
6.238594e-001 
6.256882e-001 
6.255731e-001 
6.268440e-001 
6.282256e-001 
6.277767e-001 
6.278303e-001 
6.291602e-001 
6.310053e-001 
6.319443e-001 
6.306733e-001 
6.297023e-001 
6.300522e-001 
6.300997e-001 
6.292989e-001 
6.281394e-001 
6.255177e-001 
6.222702e-001 
6.200263e-001 
6.179625e-001 
6.144723e-001 
6.107682e-001 
6.062723e-001 
6.008966e-001 
5.959833e-001 
5.907618e-001 
5.848513e-001 
5.789558e-001 
5.709980e-001 
5.629045e-001 
5.579793e-001 
5.522849e-001 
5.458287e-001 
5.404839e-001 
5.343652e-001 
5.290324e-001 
5.233341e-001 
5.148160e-001 
5.059210e-001 
4.958382e-001 
4.834385e-001 
4.722075e-001 
4.621926e-001 
4.536416e-001 
4.440986e-001 
4.304133e-001 
4.161539e-001 
4.033164e-001 
3.923788e-001 
3.836334e-001 
3.756557e-001 
3.679137e-001 
3.600288e-001 
3.496566e-001 
3.388207e-001 
3.286752e-001 
3.196956e-001 
3.119981e-001 
3.048704e-001 
2.980514e-001 
2.903594e-001 
2.809228e-001 
2.673647e-001 
2.501424e-001 
2.343364e-001 
2.209492e-001 
2.088630e-001 
1.976871e-001 
1.846779e-001 
1.682477e-001 
1.513044e-001 
1.347445e-001 
1.230679e-001 
1.158813e-001 
1.086401e-001 
1.023456e-001 
9.620259e-002 
8.907429e-002 
8.366972e-002 
8.194998e-002 
8.036875e-002 
7.881773e-002 
7.681277e-002 
7.661933e-002 
7.859698e-002 
8.043632e-002 
8.226745e-002 
8.439397e-002 
8.592562e-002 
8.616811e-002 
8.846086e-002 
9.284658e-002 
9.757382e-002 
1.004092e-001 
1.026275e-001 
1.055790e-001 
1.094098e-001 
1.143153e-001 
1.198425e-001 
1.267932e-001 
1.342278e-001 
1.412270e-001 
1.483873e-001 
1.553971e-001 
1.590170e-001 
1.599553e-001 
1.603539e-001 
1.607779e-001 
1.614794e-001 
1.615539e-001 
1.593587e-001 
1.548831e-001 
1.475310e-001 
1.383265e-001 
1.318428e-001 
1.284552e-001 
1.242479e-001 
1.178376e-001 
1.089808e-001 
9.842401e-002 
8.985873e-002 
8.382819e-002 
7.993264e-002 
7.783771e-002 
7.603905e-002 
7.458065e-002 
7.318794e-002 
7.167043e-002 
7.236510e-002 
7.443464e-002 
7.599903e-002 
7.727210e-002 
7.656489e-002 
7.725903e-002 
7.825662e-002 
7.602474e-002 
7.511908e-002 
7.582284e-002 
7.663449e-002 
7.755641e-002 
7.655147e-002 
7.482532e-002 
7.663703e-002 
7.923799e-002 
8.382733e-002 
9.206276e-002 
1.006203e-001 
1.092323e-001 
1.173015e-001 
1.258688e-001 
1.353728e-001 
1.435117e-001 
1.466620e-001 
1.433043e-001 
1.328348e-001 
1.150791e-001 
9.118553e-002 
6.059997e-002 
1.814396e-002 
-4.260811e-002 
-1.215140e-001 
-2.167318e-001 
-3.260672e-001 
-4.437570e-001 
-5.651719e-001 
-6.883733e-001 
-8.141478e-001 
-9.425162e-001 
-1.070773e+000 
-1.190556e+000 
-1.297088e+000 
-1.389066e+000 
-1.461429e+000 
-1.514384e+000 
-1.551320e+000 
-1.571932e+000 
-1.577121e+000 
-1.565951e+000 
-1.532885e+000 
-1.479572e+000 
-1.410534e+000 
-1.328969e+000 
-1.241148e+000 
-1.150983e+000 
-1.058163e+000 
-9.648474e-001 
-8.721497e-001 
-7.799469e-001 
-6.931429e-001 
-6.130190e-001 
-5.373682e-001 
-4.650300e-001 
-3.944781e-001 
-3.243149e-001 
-2.595211e-001 
-2.014449e-001 
-1.470956e-001 
-9.602850e-002 
-4.450052e-002 
7.224674e-003 
5.655214e-002 
1.035466e-001 
1.478892e-001 
1.866649e-001 
2.239025e-001 
2.611920e-001 
2.969729e-001 
3.300252e-001 
3.593891e-001 
3.859123e-001 
4.110097e-001 
4.345170e-001 
4.542247e-001 
4.711959e-001 
4.854372e-001 
4.973320e-001 
5.078904e-001 
5.181218e-001 
5.269241e-001 
5.328329e-001 
5.363072e-001 
5.389154e-001 
5.420072e-001 
5.454196e-001 
5.487724e-001 
5.511038e-001 
5.535777e-001 
5.554464e-001 
5.566239e-001 
5.604419e-001 
5.647414e-001 
5.670393e-001 
5.690642e-001 
5.722093e-001 
5.764367e-001 
5.825641e-001 
5.871536e-001 
5.915356e-001 
5.954533e-001 
5.971182e-001 
6.000693e-001 
6.048893e-001 
6.093090e-001 
6.125459e-001 
6.145955e-001 
6.152838e-001 
6.167385e-001 
6.166238e-001 
6.167496e-001 
6.166990e-001 
6.150941e-001 
6.126687e-001 
6.095279e-001 
6.066414e-001 
6.026555e-001 
5.964864e-001 
5.897952e-001 
5.837546e-001 
5.770453e-001 
5.721880e-001 
5.662416e-001 
5.584645e-001 
5.503926e-001 
5.411230e-001 
5.327573e-001 
5.251044e-001 
5.155724e-001 
5.060398e-001 
4.968821e-001 
4.858028e-001 
4.752569e-001 
4.653096e-001 
4.553213e-001 
4.429462e-001 
4.287118e-001 
4.161980e-001 
4.050612e-001 
3.935215e-001 
3.807509e-001 
3.647858e-001 
3.484799e-001 
3.334549e-001 
3.188397e-001 
3.091203e-001 
3.001866e-001 
2.885833e-001 
2.770092e-001 
2.642216e-001 
2.516571e-001 
2.438758e-001 
2.367241e-001 
2.291393e-001 
2.235578e-001 
2.165978e-001 
2.095529e-001 
2.021570e-001 
1.909559e-001 
1.800018e-001 
1.704858e-001 
1.575810e-001 
1.435417e-001 
1.292704e-001 
1.129985e-001 
9.397088e-002 
7.187469e-002 
5.192539e-002 
3.904606e-002 
2.883018e-002 
1.805511e-002 
8.065285e-003 
4.381096e-005 
-4.110124e-003 
-4.081743e-003 
3.022806e-003 
1.885836e-002 
4.050382e-002 
6.738016e-002 
1.054230e-001 
1.567996e-001 
2.133977e-001 
2.616540e-001 
2.918936e-001 
3.051767e-001 
3.083449e-001 
3.089960e-001 
3.135888e-001 
3.245484e-001 
3.295729e-001 
3.131944e-001 
2.737828e-001 
2.229415e-001 
1.758480e-001 
1.379755e-001 
1.075550e-001 
7.961079e-002 
4.584082e-002 
-1.268986e-003 
-5.597556e-002 
-1.044595e-001 
-1.328428e-001 
-1.410210e-001 
-1.358717e-001 
-1.216712e-001 
-1.067695e-001 
-9.550071e-002 
-8.728270e-002 
-7.965043e-002 
-6.912011e-002 
-5.496094e-002 
-4.251935e-002 
-3.012411e-002 
-1.879983e-002 
-1.334807e-002 
-9.897792e-003 
-6.543665e-003 
-4.395385e-003 
-3.361737e-003 
-3.403931e-003 
-5.922273e-003 
-5.880093e-003 
-5.753336e-003 
-7.421677e-003 
-7.483671e-003 
-9.147250e-003 
-1.290062e-002 
-1.606763e-002 
-1.724061e-002 
-1.706748e-002 
-1.461261e-002 
-1.474683e-002 
-1.438806e-002 
-1.116425e-002 
-5.445087e-003 
3.313111e-003 
1.437375e-002 
2.721984e-002 
4.029756e-002 
5.104699e-002 
5.800712e-002 
6.309768e-002 
6.229077e-002 
5.352570e-002 
3.637064e-002 
1.219123e-002 
-1.925810e-002 
-6.430196e-002 
-1.293763e-001 
-2.148180e-001 
-3.168806e-001 
-4.314649e-001 
-5.522088e-001 
-6.745040e-001 
-7.984247e-001 
-9.266896e-001 
-1.059573e+000 
-1.190062e+000 
-1.310092e+000 
-1.411887e+000 
-1.492972e+000 
-1.555083e+000 
-1.600484e+000 
-1.631702e+000 
-1.647009e+000 
-1.642455e+000 
-1.616653e+000 
-1.571496e+000 
-1.506574e+000 
-1.427689e+000 
-1.340484e+000 
-1.248380e+000 
-1.153999e+000 
-1.058609e+000 
-9.646698e-001 
-8.744952e-001 
-7.880503e-001 
-7.041041e-001 
-6.262583e-001 
-5.543705e-001 
-4.867430e-001 
-4.213359e-001 
-3.578282e-001 
-2.979921e-001 
-2.418465e-001 
-1.898619e-001 
-1.399780e-001 
-9.099699e-002 
-4.272720e-002 
5.306291e-003 
5.220355e-002 
9.514528e-002 
1.350191e-001 
1.735416e-001 
2.102672e-001 
2.487655e-001 
2.846528e-001 
3.156729e-001 
3.431851e-001 
3.675329e-001 
3.900687e-001 
4.121560e-001 
4.311240e-001 
4.468872e-001 
4.613123e-001 
4.721073e-001 
4.825002e-001 
4.919106e-001 
5.002204e-001 
5.067631e-001 
5.111587e-001 
5.145667e-001 
5.184719e-001 
5.235310e-001 
5.286431e-001 
5.335299e-001 
5.367404e-001 
5.397281e-001 
5.433376e-001 
5.486600e-001 
5.542816e-001 
5.590352e-001 
5.639193e-001 
5.680214e-001 
5.719968e-001 
5.759381e-001 
5.801386e-001 
5.843238e-001 
5.879933e-001 
5.910711e-001 
5.947328e-001 
5.988365e-001 
6.016632e-001 
6.038205e-001 
6.053433e-001 
6.065681e-001 
6.079970e-001 
6.101975e-001 
6.127693e-001 
6.151170e-001 
6.195534e-001 
6.267520e-001 
6.384335e-001 
6.505510e-001 
6.582667e-001 
6.606206e-001 
6.579854e-001 
6.530087e-001 
6.514981e-001 
6.554604e-001 
6.623343e-001 
6.699902e-001 
6.736184e-001 
6.775710e-001 
6.855101e-001 
6.907184e-001 
6.878387e-001 
6.740110e-001 
6.499916e-001 
6.200139e-001 
5.876274e-001 
5.576971e-001 
5.344482e-001 
5.094016e-001 
4.746001e-001 
4.349058e-001 
3.963273e-001 
3.661812e-001 
3.423540e-001 
3.181425e-001 
2.909075e-001 
2.570577e-001 
2.155488e-001 
1.760737e-001 
1.458148e-001 
1.278340e-001 
1.228552e-001 
1.218006e-001 
1.202181e-001 
1.179555e-001 
1.130559e-001 
1.065072e-001 
9.914163e-002 
9.068961e-002 
8.303018e-002 
7.585194e-002 
6.760360e-002 
5.808494e-002 
4.783381e-002 
3.920477e-002 
3.246091e-002 
2.617357e-002 
2.090550e-002 
1.501872e-002 
8.732459e-003 
3.015580e-003 
-2.905034e-003 
-6.957591e-003 
-8.521457e-003 
-1.288249e-002 
-1.863987e-002 
-2.145825e-002 
-2.290462e-002 
-2.280062e-002 
-2.112313e-002 
-1.926724e-002 
-1.588292e-002 
-1.319712e-002 
-1.359079e-002 
-1.131106e-002 
-6.346626e-003 
-2.664868e-003 
1.660621e-004 
4.628773e-003 
1.046124e-002 
1.530834e-002 
1.744037e-002 
1.977297e-002 
2.409186e-002 
2.939694e-002 
3.467175e-002 
3.966238e-002 
4.541783e-002 
4.800057e-002 
4.774526e-002 
4.925870e-002 
5.205330e-002 
5.383024e-002 
5.609571e-002 
5.613024e-002 
5.402724e-002 
5.195018e-002 
4.952020e-002 
5.013978e-002 
5.114469e-002 
4.835166e-002 
4.463599e-002 
4.234513e-002 
3.949869e-002 
3.687511e-002 
3.399358e-002 
3.138700e-002 
2.955077e-002 
2.586760e-002 
2.261013e-002 
2.170257e-002 
2.124608e-002 
1.920389e-002 
1.662173e-002 
1.485418e-002 
1.517802e-002 
1.563140e-002 
1.540582e-002 
1.501916e-002 
1.360656e-002 
1.268890e-002 
1.322820e-002 
1.578580e-002 
1.842692e-002 
2.048306e-002 
2.287202e-002 
2.782110e-002 
3.499731e-002 
4.563589e-002 
5.945349e-002 
7.342585e-002 
8.556955e-002 
9.449137e-002 
1.021825e-001 
1.077816e-001 
1.070951e-001 
9.716963e-002 
7.964623e-002 
5.336859e-002 
1.598250e-002 
-3.573706e-002 
-1.045340e-001 
-1.923437e-001 
-3.000207e-001 
-4.227303e-001 
-5.529836e-001 
-6.860035e-001 
-8.230311e-001 
-9.653890e-001 
-1.109374e+000 
-1.249934e+000 
-1.382910e+000 
-1.499544e+000 
-1.593832e+000 
-1.667126e+000 
-1.721931e+000 
-1.760189e+000 
-1.781003e+000 
-1.780234e+000 
-1.757847e+000 
-1.714734e+000 
-1.650831e+000 
-1.570079e+000 
-1.478333e+000 
-1.380008e+000 
-1.278553e+000 
-1.176331e+000 
-1.073920e+000 
-9.743969e-001 
-8.790515e-001 
-7.869519e-001 
-6.988534e-001 
-6.180564e-001 
-5.431712e-001 
-4.720142e-001 
-4.039354e-001 
-3.389174e-001 
-2.777191e-001 
-2.193826e-001 
-1.633596e-001 
-1.101833e-001 
-5.796869e-002 
-5.830665e-003 
4.405066e-002 
9.055963e-002 
1.348353e-001 
1.788790e-001 
2.217972e-001 
2.624861e-001 
3.002717e-001 
3.353497e-001 
3.663763e-001 
3.945447e-001 
4.204539e-001 
4.452845e-001 
4.667749e-001 
4.838521e-001 
4.985236e-001 
5.113000e-001 
5.225332e-001 
5.316168e-001 
5.395827e-001 
5.455573e-001 
5.491664e-001 
5.515738e-001 
5.557425e-001 
5.611320e-001 
5.654652e-001 
5.688984e-001 
5.716606e-001 
5.751575e-001 
5.786375e-001 
5.833558e-001 
5.893806e-001 
5.941491e-001 
5.985260e-001 
6.027596e-001 
6.070376e-001 
6.107107e-001 
6.146083e-001 
6.178480e-001 
6.214777e-001 
6.245872e-001 
6.280731e-001 
6.328707e-001 
6.350973e-001 
6.347736e-001 
6.340631e-001 
6.339018e-001 
6.342860e-001 
6.356817e-001 
6.359640e-001 
6.341261e-001 
6.311521e-001 
6.280589e-001 
6.254523e-001 
6.229970e-001 
6.198123e-001 
6.154659e-001 
6.109391e-001 
6.055761e-001 
5.992949e-001 
5.948208e-001 
5.893161e-001 
5.809981e-001 
5.721544e-001 
5.633094e-001 
5.553181e-001 
5.490056e-001 
5.406564e-001 
5.291581e-001 
5.175688e-001 
5.054494e-001 
4.942940e-001 
4.846162e-001 
4.737239e-001 
4.620876e-001 
4.500976e-001 
4.359223e-001 
4.222755e-001 
4.115570e-001 
4.005198e-001 
3.883183e-001 
3.751905e-001 
3.618927e-001 
3.497305e-001 
3.386449e-001 
3.270286e-001 
3.150089e-001 
3.031317e-001 
2.909923e-001 
2.793722e-001 
2.682932e-001 
2.563151e-001 
2.429085e-001 
2.304365e-001 
2.172067e-001 
2.037522e-001 
1.923331e-001 
1.800430e-001 
1.657531e-001 
1.506138e-001 
1.361500e-001 
1.234559e-001 
1.127603e-001 
1.009966e-001 
8.885056e-002 
7.718291e-002 
6.452603e-002 
5.367801e-002 
4.702433e-002 
4.191390e-002 
3.568553e-002 
3.000440e-002 
2.469568e-002 
2.115160e-002 
1.852959e-002 
1.675963e-002 
1.675892e-002 
1.781772e-002 
1.880130e-002 
2.055767e-002 
2.431314e-002 
2.827362e-002 
3.075070e-002 
3.208004e-002 
3.570682e-002 
4.058555e-002 
4.545209e-002 
4.980458e-002 
5.335207e-002 
5.717763e-002 
6.078975e-002 
6.327128e-002 
6.746186e-002 
7.376111e-002 
7.750338e-002 
7.913845e-002 
8.063254e-002 
8.250833e-002 
8.458875e-002 
8.475878e-002 
8.334935e-002 
8.364217e-002 
8.486446e-002 
8.379440e-002 
8.303568e-002 
8.284759e-002 
8.036716e-002 
7.723690e-002 
7.389266e-002 
7.133392e-002 
6.987411e-002 
6.769940e-002 
6.345417e-002 
6.022413e-002 
5.704979e-002 
5.475382e-002 
5.539496e-002 
5.480787e-002 
5.181238e-002 
4.927985e-002 
4.852477e-002 
4.833272e-002 
4.870123e-002 
4.816396e-002 
4.765067e-002 
4.617402e-002 
4.460404e-002 
4.575135e-002 
4.967780e-002 
5.392852e-002 
5.696551e-002 
6.069150e-002 
6.782211e-002 
7.830709e-002 
9.064777e-002 
1.051792e-001 
1.176498e-001 
1.236705e-001 
1.231465e-001 
1.152833e-001 
9.919443e-002 
7.389895e-002 
3.669824e-002 
-1.431348e-002 
-8.212072e-002 
-1.738258e-001 
-2.867010e-001 
-4.131633e-001 
-5.495531e-001 
-6.898613e-001 
-8.294270e-001 
-9.675948e-001 
-1.105572e+000 
-1.243560e+000 
-1.377401e+000 
-1.493876e+000 
-1.586459e+000 
-1.654379e+000 
-1.698468e+000 
-1.722707e+000 
-1.728950e+000 
-1.715481e+000 
-1.680318e+000 
-1.622313e+000 
-1.541880e+000 
-1.446670e+000 
-1.342826e+000 
-1.234580e+000 
-1.124680e+000 
-1.013776e+000 
-9.049536e-001 
-8.025556e-001 
-7.079308e-001 
-6.196419e-001 
-5.344063e-001 
-4.511234e-001 
-3.719040e-001 
-2.982918e-001 
-2.310392e-001 
-1.694870e-001 
-1.112419e-001 
-5.490257e-002 
1.349553e-003 
5.788360e-002 
1.094782e-001 
1.558694e-001 
2.002570e-001 
2.425115e-001 
2.838331e-001 
3.236452e-001 
3.592880e-001 
3.913990e-001 
4.206113e-001 
4.453223e-001 
4.685754e-001 
4.904883e-001 
5.077855e-001 
5.226223e-001 
5.363884e-001 
5.469468e-001 
5.563741e-001 
5.648204e-001 
5.684449e-001 
5.714981e-001 
5.747240e-001 
5.776084e-001 
5.824267e-001 
5.864139e-001 
5.881615e-001 
5.914853e-001 
5.936570e-001 
5.949365e-001 
5.998073e-001 
6.051441e-001 
6.093073e-001 
6.123449e-001 
6.147927e-001 
6.179784e-001 
6.229250e-001 
6.263655e-001 
6.292477e-001 
6.326395e-001 
6.351942e-001 
6.370705e-001 
6.393400e-001 
6.406101e-001 
6.399409e-001 
6.392943e-001 
6.371072e-001 
6.355185e-001 
6.340381e-001 
6.312181e-001 
6.273646e-001 
6.230917e-001 
6.182662e-001 
6.128517e-001 
6.080787e-001 
6.025306e-001 
5.951438e-001 
5.864125e-001 
5.780209e-001 
5.697343e-001 
5.624850e-001 
5.537901e-001 
5.426656e-001 
5.327171e-001 
5.225832e-001 
5.129674e-001 
5.038557e-001 
4.921682e-001 
4.800446e-001 
4.679337e-001 
4.550187e-001 
4.431324e-001 
4.330726e-001 
4.221722e-001 
4.100893e-001 
3.954820e-001 
3.813154e-001 
3.701193e-001 
3.595681e-001 
3.488268e-001 
3.373878e-001 
3.251589e-001 
3.115042e-001 
2.987797e-001 
2.865514e-001 
2.744048e-001 
2.610731e-001 
2.460149e-001 
2.306861e-001 
2.168151e-001 
2.032182e-001 
1.900519e-001 
1.765563e-001 
1.613114e-001 
1.460823e-001 
1.324571e-001 
1.199502e-001 
1.086779e-001 
9.841691e-002 
8.814741e-002 
7.822413e-002 
6.859900e-002 
6.127929e-002 
5.580931e-002 
4.939021e-002 
4.332351e-002 
4.058859e-002 
4.017522e-002 
4.029913e-002 
3.963823e-002 
4.018807e-002 
4.197442e-002 
4.273282e-002 
4.411646e-002 
4.838860e-002 
5.444077e-002 
5.931720e-002 
6.211248e-002 
6.499853e-002 
6.996590e-002 
7.453243e-002 
7.865264e-002 
8.239903e-002 
8.628788e-002 
9.158482e-002 
9.576296e-002 
9.819252e-002 
1.011089e-001 
1.027976e-001 
1.026464e-001 
1.024771e-001 
1.026908e-001 
1.047006e-001 
1.064097e-001 
1.045878e-001 
1.014327e-001 
9.974727e-002 
9.857981e-002 
9.867230e-002 
9.867370e-002 
9.682981e-002 
9.408666e-002 
9.081368e-002 
8.628460e-002 
8.264250e-002 
8.018655e-002 
7.688651e-002 
7.376607e-002 
6.970562e-002 
6.598342e-002 
6.443206e-002 
6.233140e-002 
5.782537e-002 
5.459445e-002 
5.270058e-002 
5.096516e-002 
4.942649e-002 
4.668874e-002 
4.441594e-002 
4.325930e-002 
4.184106e-002 
4.174941e-002 
4.565647e-002 
5.041432e-002 
5.568839e-002 
6.187084e-002 
7.121236e-002 
8.321939e-002 
9.686519e-002 
1.091519e-001 
1.168737e-001 
1.208821e-001 
1.196617e-001 
1.125521e-001 
9.842316e-002 
7.641404e-002 
4.341696e-002 
-7.531471e-004 
-6.275227e-002 
-1.432876e-001 
-2.388298e-001 
-3.501794e-001 
-4.738628e-001 
-6.032524e-001 
-7.313048e-001 
-8.579378e-001 
-9.853146e-001 
-1.112557e+000 
-1.232226e+000 
-1.338157e+000 
-1.425854e+000 
-1.492671e+000 
-1.535645e+000 
-1.559407e+000 
-1.571572e+000 
-1.568360e+000 
-1.545662e+000 
-1.501758e+000 
-1.436845e+000 
-1.358037e+000 
-1.269191e+000 
-1.171620e+000 
-1.074038e+000 
-9.767830e-001 
-8.796446e-001 
-7.867554e-001 
-6.987714e-001 
-6.167606e-001 
-5.398764e-001 
-4.641598e-001 
-3.920117e-001 
-3.260778e-001 
-2.640548e-001 
-2.058328e-001 
-1.499434e-001 
-9.560112e-002 
-4.228317e-002 
9.651689e-003 
5.579809e-002 
9.769791e-002 
1.386495e-001 
1.785824e-001 
2.175649e-001 
2.538841e-001 
2.860373e-001 
3.142223e-001 
3.390352e-001 
3.613997e-001 
3.833196e-001 
4.021655e-001 
4.169767e-001 
4.299915e-001 
4.412632e-001 
4.498986e-001 
4.576745e-001 
4.657657e-001 
4.711223e-001 
4.738201e-001 
4.762475e-001 
4.804623e-001 
4.856764e-001 
4.891928e-001 
4.904112e-001 
4.920204e-001 
4.951800e-001 
4.985166e-001 
5.035131e-001 
5.096673e-001 
5.148150e-001 
5.175022e-001 
5.188148e-001 
5.201244e-001 
5.236940e-001 
5.274910e-001 
5.290506e-001 
5.312837e-001 
5.338789e-001 
5.353383e-001 
5.356732e-001 
5.355331e-001 
5.344509e-001 
5.327780e-001 
5.293808e-001 
5.271918e-001 
5.269493e-001 
5.233196e-001 
5.164987e-001 
5.097301e-001 
5.044839e-001 
4.993872e-001 
4.940504e-001 
4.894081e-001 
4.840413e-001 
4.757418e-001 
4.656287e-001 
4.566713e-001 
4.503074e-001 
4.435593e-001 
4.332395e-001 
4.225681e-001 
4.130950e-001 
4.029050e-001 
3.937505e-001 
3.839206e-001 
3.720210e-001 
3.605865e-001 
3.478208e-001 
3.340283e-001 
3.231287e-001 
3.122872e-001 
3.003956e-001 
2.876699e-001 
2.736186e-001 
2.609823e-001 
2.506985e-001 
2.393224e-001 
2.273884e-001 
2.163008e-001 
2.043782e-001 
1.923691e-001 
1.801547e-001 
1.670458e-001 
1.531343e-001 
1.397972e-001 
1.257803e-001 
1.138227e-001 
1.029173e-001 
9.188046e-002 
7.993043e-002 
6.668754e-002 
5.306662e-002 
4.259226e-002 
3.450528e-002 
2.725345e-002 
2.105823e-002 
1.394411e-002 
7.757785e-003 
2.514308e-003 
-1.261206e-003 
-2.366421e-003 
-5.816214e-004 
1.565376e-003 
4.466677e-003 
7.450877e-003 
1.106031e-002 
1.544211e-002 
1.825283e-002 
2.197379e-002 
2.824372e-002 
3.501896e-002 
4.252576e-002 
4.950819e-002 
5.444983e-002 
5.951903e-002 
6.461899e-002 
6.848711e-002 
7.465086e-002 
7.983791e-002 
8.257662e-002 
8.609322e-002 
8.720559e-002 
8.744563e-002 
8.891493e-002 
8.910552e-002 
8.816907e-002 
8.793555e-002 
8.642835e-002 
8.625027e-002 
8.635877e-002 
8.317022e-002 
7.943631e-002 
7.597424e-002 
7.259771e-002 
7.004929e-002 
6.784622e-002 
6.633322e-002 
6.470580e-002 
6.078840e-002 
5.654745e-002 
5.454512e-002 
5.372935e-002 
5.253916e-002 
4.918519e-002 
4.497891e-002 
4.228444e-002 
4.066135e-002 
3.931470e-002 
3.768850e-002 
3.708225e-002 
3.662602e-002 
3.554813e-002 
3.432051e-002 
3.640896e-002 
4.238736e-002 
4.963912e-002 
5.677601e-002 
6.624579e-002 
7.897107e-002 
9.103517e-002 
9.836757e-002 
1.009013e-001 
1.000302e-001 
9.206953e-002 
7.628779e-002 
5.330281e-002 
2.094213e-002 
-2.491505e-002 
-8.984095e-002 
-1.747237e-001 
-2.741617e-001 
-3.862790e-001 
-5.076893e-001 
-6.314986e-001 
-7.576367e-001 
-8.870696e-001 
-1.017337e+000 
-1.146622e+000 
-1.267799e+000 
-1.375060e+000 
-1.464331e+000 
-1.530062e+000 
-1.576049e+000 
-1.608117e+000 
-1.624564e+000 
-1.622186e+000 
-1.602035e+000 
-1.560696e+000 
-1.499623e+000 
-1.421427e+000 
-1.333471e+000 
-1.245171e+000 
-1.154384e+000 
-1.058941e+000 
-9.647023e-001 
-8.742823e-001 
-7.865221e-001 
-7.050167e-001 
-6.273423e-001 
-5.551480e-001 
-4.863131e-001 
-4.163756e-001 
-3.498971e-001 
-2.899146e-001 
-2.334232e-001 
-1.794736e-001 
-1.269088e-001 
-7.394766e-002 
-2.409997e-002 
2.333953e-002 
6.895017e-002 
1.120152e-001 
1.522707e-001 
1.913669e-001 
2.288573e-001 
2.627535e-001 
2.933089e-001 
3.204823e-001 
3.460110e-001 
3.702744e-001 
3.911207e-001 
4.069833e-001 
4.201938e-001 
4.315677e-001 
4.421128e-001 
4.523678e-001 
4.605403e-001 
4.660019e-001 
4.691313e-001 
4.711494e-001 
4.730993e-001 
4.770624e-001 
4.821137e-001 
4.854344e-001 
4.868691e-001 
4.883223e-001 
4.904023e-001 
4.939426e-001 
4.983528e-001 
5.015870e-001 
5.056029e-001 
5.088091e-001 
5.105598e-001 
5.138142e-001 
5.182140e-001 
5.218221e-001 
5.253751e-001 
5.285167e-001 
5.315452e-001 
5.357922e-001 
5.377966e-001 
5.379239e-001 
5.384201e-001 
5.388403e-001 
5.389241e-001 
5.386078e-001 
5.383409e-001 
5.364982e-001 
5.323491e-001 
5.273166e-001 
5.242124e-001 
5.216901e-001 
5.181990e-001 
5.119569e-001 
5.052586e-001 
4.990616e-001 
4.910506e-001 
4.842340e-001 
4.785192e-001 
4.714127e-001 
4.623988e-001 
4.535615e-001 
4.445416e-001 
4.364202e-001 
4.260843e-001 
4.141387e-001 
4.028248e-001 
3.909604e-001 
3.789168e-001 
3.682859e-001 
3.565625e-001 
3.413238e-001 
3.254808e-001 
3.090285e-001 
2.939446e-001 
2.810478e-001 
2.674998e-001 
2.526073e-001 
2.376032e-001 
2.207733e-001 
2.050619e-001 
1.913927e-001 
1.773316e-001 
1.641705e-001 
1.518737e-001 
1.385137e-001 
1.247540e-001 
1.110716e-001 
9.611995e-002 
8.110260e-002 
6.634691e-002 
5.347238e-002 
4.185759e-002 
3.236705e-002 
2.159744e-002 
8.019325e-003 
-5.917879e-003 
-1.811702e-002 
-2.664718e-002 
-3.295005e-002 
-3.917997e-002 
-4.562791e-002 
-5.001757e-002 
-5.589901e-002 
-6.042590e-002 
-6.147594e-002 
-5.977868e-002 
-5.792652e-002 
-5.677100e-002 
-5.490371e-002 
-5.051941e-002 
-4.495699e-002 
-4.080088e-002 
-3.594541e-002 
-3.173965e-002 
-2.628783e-002 
-1.986931e-002 
-1.356742e-002 
-8.037637e-003 
-2.418047e-003 
1.520727e-003 
6.954919e-003 
1.309436e-002 
1.812629e-002 
2.368254e-002 
2.633101e-002 
2.737387e-002 
2.957800e-002 
3.289969e-002 
3.617379e-002 
3.945133e-002 
3.893836e-002 
3.696372e-002 
3.442464e-002 
3.266139e-002 
3.283155e-002 
3.291298e-002 
3.118328e-002 
2.773055e-002 
2.389828e-002 
1.980243e-002 
1.610636e-002 
1.298209e-002 
9.779823e-003 
5.642096e-003 
2.404658e-003 
-8.695095e-004 
-2.874888e-003 
-5.016224e-003 
-9.298026e-003 
-1.340081e-002 
-1.670663e-002 
-1.902624e-002 
-1.859150e-002 
-1.911964e-002 
-2.234389e-002 
-2.441093e-002 
-2.716453e-002 
-2.885579e-002 
-2.742428e-002 
-2.511549e-002 
-2.130044e-002 
-1.556660e-002 
-9.086077e-003 
1.936161e-003 
1.564583e-002 
2.721793e-002 
3.716224e-002 
4.308854e-002 
4.302343e-002 
3.768946e-002 
2.513258e-002 
4.483326e-003 
-2.538433e-002 
-6.923975e-002 
-1.296966e-001 
-2.091660e-001 
-3.081430e-001 
-4.226354e-001 
-5.482108e-001 
-6.806244e-001 
-8.149950e-001 
-9.525594e-001 
-1.094237e+000 
-1.235789e+000 
-1.373072e+000 
-1.498196e+000 
-1.602201e+000 
-1.682824e+000 
-1.741799e+000 
-1.783986e+000 
-1.812587e+000 
-1.821602e+000 
-1.807151e+000 
-1.770344e+000 
-1.709775e+000 
-1.630286e+000 
-1.540897e+000 
-1.446149e+000 
-1.347783e+000 
-1.244564e+000 
-1.138198e+000 
-1.035420e+000 
-9.378455e-001 
-8.451880e-001 
-7.585163e-001 
-6.762801e-001 
-5.972647e-001 
-5.214197e-001 
-4.497351e-001 
-3.841355e-001 
-3.223246e-001 
-2.624900e-001 
-2.050170e-001 
-1.487778e-001 
-9.573976e-002 
-4.524680e-002 
4.557690e-003 
5.217575e-002 
9.803517e-002 
1.431195e-001 
1.846317e-001 
2.237470e-001 
2.607772e-001 
2.932759e-001 
3.246474e-001 
3.541309e-001 
3.783541e-001 
3.989158e-001 
4.172330e-001 
4.332637e-001 
4.485503e-001 
4.613035e-001 
4.700814e-001 
4.779018e-001 
4.848066e-001 
4.895475e-001 
4.942099e-001 
4.989984e-001 
5.022439e-001 
5.054056e-001 
5.085888e-001 
5.110677e-001 
5.161743e-001 
5.214997e-001 
5.245188e-001 
5.282815e-001 
5.326338e-001 
5.377268e-001 
5.437239e-001 
5.481863e-001 
5.500828e-001 
5.532662e-001 
5.566816e-001 
5.610046e-001 
5.669529e-001 
5.716944e-001 
5.745670e-001 
5.756260e-001 
5.755538e-001 
5.754235e-001 
5.781859e-001 
5.801097e-001 
5.800595e-001 
5.783013e-001 
5.764673e-001 
5.744435e-001 
5.723629e-001 
5.703475e-001 
5.672627e-001 
5.633691e-001 
5.587030e-001 
5.546928e-001 
5.507847e-001 
5.469892e-001 
5.387501e-001 
5.297505e-001 
5.219340e-001 
5.141767e-001 
5.071490e-001 
5.012873e-001 
4.925274e-001 
4.820638e-001 
4.701560e-001 
4.562636e-001 
4.450838e-001 
4.351111e-001 
4.225367e-001 
4.084924e-001 
3.954325e-001 
3.805314e-001 
3.662481e-001 
3.513596e-001 
3.353937e-001 
3.206649e-001 
3.069427e-001 
2.913625e-001 
2.782528e-001 
2.653949e-001 
2.502859e-001 
2.367084e-001 
2.239049e-001 
2.110784e-001 
1.999549e-001 
1.878412e-001 
1.732497e-001 
1.598646e-001 
1.448824e-001 
1.310425e-001 
1.185374e-001 
1.048295e-001 
8.960920e-002 
7.380359e-002 
5.793498e-002 
4.392759e-002 
3.049429e-002 
1.536566e-002 
6.434448e-004 
-1.281194e-002 
-2.473302e-002 
-3.607020e-002 
-4.519200e-002 
-5.203077e-002 
-5.949037e-002 
-6.694888e-002 
-7.269493e-002 
-7.406632e-002 
-7.259514e-002 
-7.276828e-002 
-7.416783e-002 
-7.327793e-002 
-7.103234e-002 
-6.773868e-002 
-6.279056e-002 
-5.814214e-002 
-5.326968e-002 
-4.986553e-002 
-4.714199e-002 
-4.247196e-002 
-3.493886e-002 
-2.859045e-002 
-2.421792e-002 
-2.150117e-002 
-1.867301e-002 
-1.388264e-002 
-8.860060e-003 
-4.893915e-003 
-1.096976e-003 
2.092549e-003 
2.965078e-003 
3.334692e-003 
4.071784e-003 
5.606936e-003 
6.105535e-003 
4.790569e-003 
3.534496e-003 
2.837921e-003 
1.611811e-003 
-5.062731e-004 
-3.683293e-003 
-5.804228e-003 
-7.296055e-003 
-8.736183e-003 
-9.947066e-003 
-1.261344e-002 
-1.662529e-002 
-2.033174e-002 
-2.326185e-002 
-2.456948e-002 
-2.499132e-002 
-2.659180e-002 
-2.995814e-002 
-3.512785e-002 
-3.819117e-002 
-3.919398e-002 
-3.977636e-002 
-4.069134e-002 
-4.335272e-002 
-4.606394e-002 
-4.656095e-002 
-4.518974e-002 
-3.973497e-002 
-3.109170e-002 
-2.285969e-002 
-1.225676e-002 
-9.752077e-005 
1.193838e-002 
2.330542e-002 
3.014939e-002 
2.942857e-002 
2.049235e-002 
2.859962e-003 
-2.057723e-002 
-5.124876e-002 
-9.803167e-002 
-1.650806e-001 
-2.533336e-001 
-3.602921e-001 
-4.825562e-001 
-6.146422e-001 
-7.511850e-001 
-8.905289e-001 
-1.034630e+000 
-1.184103e+000 
-1.331049e+000 
-1.467329e+000 
-1.589120e+000 
-1.692951e+000 
-1.773635e+000 
-1.833697e+000 
-1.874464e+000 
-1.896559e+000 
-1.898779e+000 
-1.877534e+000 
-1.833866e+000 
-1.768981e+000 
-1.684412e+000 
-1.586247e+000 
-1.482966e+000 
-1.375819e+000 
-1.266900e+000 
-1.158385e+000 
-1.053147e+000 
-9.506656e-001 
-8.522193e-001 
-7.612310e-001 
-6.769866e-001 
-5.977140e-001 
-5.208857e-001 
-4.474136e-001 
-3.786891e-001 
-3.150330e-001 
-2.535528e-001 
-1.953577e-001 
-1.404794e-001 
-8.680196e-002 
-3.376242e-002 
1.711183e-002 
6.488662e-002 
1.107707e-001 
1.548822e-001 
1.984944e-001 
2.390081e-001 
2.739742e-001 
3.070515e-001 
3.388598e-001 
3.668500e-001 
3.925248e-001 
4.143767e-001 
4.315282e-001 
4.461734e-001 
4.575438e-001 
4.672978e-001 
4.790812e-001 
4.880158e-001 
4.937284e-001 
4.973188e-001 
4.995719e-001 
5.034656e-001 
5.082416e-001 
5.120193e-001 
5.157033e-001 
5.201287e-001 
5.227558e-001 
5.263123e-001 
5.308920e-001 
5.368621e-001 
5.417653e-001 
5.457218e-001 
5.497191e-001 
5.547832e-001 
5.603655e-001 
5.644173e-001 
5.674504e-001 
5.696544e-001 
5.727361e-001 
5.758613e-001 
5.799244e-001 
5.828180e-001 
5.841584e-001 
5.845288e-001 
5.837201e-001 
5.822314e-001 
5.827327e-001 
5.832472e-001 
5.808573e-001 
5.779157e-001 
5.742642e-001 
5.703611e-001 
5.670972e-001 
5.621169e-001 
5.559573e-001 
5.505193e-001 
5.433263e-001 
5.360069e-001 
5.296128e-001 
5.223843e-001 
5.131593e-001 
5.026816e-001 
4.928127e-001 
4.843436e-001 
4.764168e-001 
4.673453e-001 
4.556085e-001 
4.428741e-001 
4.305452e-001 
4.177899e-001 
4.071164e-001 
3.970196e-001 
3.831561e-001 
3.686808e-001 
3.547906e-001 
3.396783e-001 
3.266783e-001 
3.148544e-001 
3.009588e-001 
2.861064e-001 
2.711543e-001 
2.560775e-001 
2.436625e-001 
2.308347e-001 
2.174892e-001 
2.058235e-001 
1.941318e-001 
1.809131e-001 
1.696460e-001 
1.593909e-001 
1.461910e-001 
1.326170e-001 
1.193845e-001 
1.061591e-001 
9.308616e-002 
7.988223e-002 
6.549608e-002 
5.224416e-002 
3.834828e-002 
2.461804e-002 
1.271215e-002 
9.500876e-004 
-1.218035e-002 
-2.398244e-002 
-3.565624e-002 
-4.586819e-002 
-5.394343e-002 
-6.201646e-002 
-6.971301e-002 
-7.634205e-002 
-8.127251e-002 
-8.445313e-002 
-8.618518e-002 
-8.788228e-002 
-8.826731e-002 
-9.000393e-002 
-9.035965e-002 
-8.947119e-002 
-8.698962e-002 
-8.359961e-002 
-8.055268e-002 
-7.809022e-002 
-7.365677e-002 
-6.743303e-002 
-6.133083e-002 
-5.519195e-002 
-5.067016e-002 
-4.480055e-002 
-3.855305e-002 
-3.319839e-002 
-2.795814e-002 
-2.050463e-002 
-1.462854e-002 
-1.135475e-002 
-8.593189e-003 
-4.782592e-003 
-6.895518e-004 
1.314095e-003 
7.062283e-004 
7.030462e-004 
2.346115e-003 
1.437476e-003 
7.542290e-004 
9.880140e-004 
-1.397126e-003 
-4.665202e-003 
-6.537437e-003 
-8.579164e-003 
-8.308189e-003 
-1.016944e-002 
-1.558937e-002 
-1.818005e-002 
-2.026097e-002 
-2.353238e-002 
-2.315851e-002 
-2.297898e-002 
-2.578149e-002 
-2.783971e-002 
-3.123084e-002 
-3.276940e-002 
-3.150396e-002 
-3.251402e-002 
-3.536441e-002 
-3.743971e-002 
-4.121820e-002 
-4.377794e-002 
-4.275087e-002 
-4.262425e-002 
-4.387522e-002 
-4.533136e-002 
-4.643552e-002 
-4.750020e-002 
-4.611806e-002 
-4.279121e-002 
-3.718110e-002 
-3.009484e-002 
-2.209544e-002 
-1.116222e-002 
2.754938e-003 
1.673493e-002 
2.860163e-002 
3.917503e-002 
4.621491e-002 
4.797401e-002 
4.289669e-002 
2.897986e-002 
4.036657e-003 
-3.045071e-002 
-7.543332e-002 
-1.363146e-001 
-2.152559e-001 
-3.134779e-001 
-4.314917e-001 
-5.642436e-001 
-7.033644e-001 
-8.429196e-001 
-9.820149e-001 
-1.123967e+000 
-1.267776e+000 
-1.405941e+000 
-1.532639e+000 
-1.642843e+000 
-1.729059e+000 
-1.790391e+000 
-1.834173e+000 
-1.863404e+000 
-1.875354e+000 
-1.865715e+000 
-1.832260e+000 
-1.776884e+000 
-1.702946e+000 
-1.612892e+000 
-1.514442e+000 
-1.412844e+000 
-1.307688e+000 
-1.201073e+000 
-1.095260e+000 
-9.928677e-001 
-8.964929e-001 
-8.048590e-001 
-7.170372e-001 
-6.353783e-001 
-5.574370e-001 
-4.830247e-001 
-4.121680e-001 
-3.443640e-001 
-2.813718e-001 
-2.223116e-001 
-1.648636e-001 
-1.099089e-001 
-5.745962e-002 
-5.565288e-003 
4.352708e-002 
8.908740e-002 
1.312206e-001 
1.725282e-001 
2.142428e-001 
2.542892e-001 
2.901905e-001 
3.222849e-001 
3.509525e-001 
3.748758e-001 
3.961456e-001 
4.175914e-001 
4.390450e-001 
4.555694e-001 
4.667860e-001 
4.749780e-001 
4.835365e-001 
4.921431e-001 
4.990221e-001 
5.053489e-001 
5.101010e-001 
5.123263e-001 
5.129248e-001 
5.142331e-001 
5.173195e-001 
5.212741e-001 
5.228138e-001 
5.235701e-001 
5.253989e-001 
5.287564e-001 
5.335101e-001 
5.372752e-001 
5.404288e-001 
5.425262e-001 
5.446500e-001 
5.477609e-001 
5.529240e-001 
5.583366e-001 
5.622137e-001 
5.633970e-001 
5.643950e-001 
5.669532e-001 
5.696615e-001 
5.730053e-001 
5.748456e-001 
5.763639e-001 
5.760022e-001 
5.743720e-001 
5.732910e-001 
5.725490e-001 
5.705496e-001 
5.679424e-001 
5.647390e-001 
5.617431e-001 
5.584540e-001 
5.526738e-001 
5.465774e-001 
5.385500e-001 
5.314082e-001 
5.265163e-001 
5.207360e-001 
5.138531e-001 
5.053260e-001 
4.943161e-001 
4.840958e-001 
4.742366e-001 
4.648361e-001 
4.590601e-001 
4.490321e-001 
4.358831e-001 
4.253337e-001 
4.144372e-001 
4.032305e-001 
3.923755e-001 
3.797006e-001 
3.668503e-001 
3.531905e-001 
3.371473e-001 
3.255471e-001 
3.156076e-001 
3.021982e-001 
2.879041e-001 
2.745610e-001 
2.622553e-001 
2.502204e-001 
2.371725e-001 
2.236196e-001 
2.118237e-001 
1.994019e-001 
1.850339e-001 
1.716567e-001 
1.587727e-001 
1.447167e-001 
1.284307e-001 
1.119214e-001 
9.796355e-002 
8.668875e-002 
7.262583e-002 
5.577901e-002 
4.148046e-002 
2.725889e-002 
1.319213e-002 
-2.742843e-004 
-1.093571e-002 
-1.985135e-002 
-2.990651e-002 
-3.971189e-002 
-4.609163e-002 
-4.958063e-002 
-5.333507e-002 
-5.735657e-002 
-6.058430e-002 
-6.089445e-002 
-6.076883e-002 
-5.931242e-002 
-5.627780e-002 
-5.526329e-002 
-5.435196e-002 
-5.242170e-002 
-5.025211e-002 
-4.644748e-002 
-4.127724e-002 
-3.738632e-002 
-3.402552e-002 
-2.990013e-002 
-2.551921e-002 
-1.924588e-002 
-1.329653e-002 
-8.588451e-003 
-3.481669e-003 
2.100228e-003 
6.786086e-003 
1.252068e-002 
1.820432e-002 
2.025040e-002 
2.245548e-002 
2.382385e-002 
2.581541e-002 
2.930154e-002 
3.087249e-002 
3.092696e-002 
3.015955e-002 
2.706691e-002 
2.482420e-002 
2.439040e-002 
2.280286e-002 
2.144146e-002 
1.837446e-002 
1.449800e-002 
1.211134e-002 
9.365697e-003 
6.502360e-003 
4.185409e-003 
1.776652e-003 
9.744022e-004 
-5.239860e-004 
-3.254384e-003 
-4.620356e-003 
-6.604835e-003 
-1.062179e-002 
-1.327815e-002 
-1.497810e-002 
-1.410635e-002 
-1.334594e-002 
-1.627826e-002 
-1.886590e-002 
-1.916229e-002 
-2.027401e-002 
-2.177224e-002 
-2.139221e-002 
-2.212236e-002 
-2.123923e-002 
-1.987004e-002 
-1.810834e-002 
-1.422658e-002 
-7.747268e-003 
-1.271474e-003 
7.952738e-003 
1.979901e-002 
3.265403e-002 
4.789734e-002 
6.095322e-002 
6.754780e-002 
7.012014e-002 
7.063996e-002 
6.376337e-002 
5.072690e-002 
2.962748e-002 
-1.701507e-003 
-4.417804e-002 
-1.004078e-001 
-1.722891e-001 
-2.587928e-001 
-3.615564e-001 
-4.814214e-001 
-6.085736e-001 
-7.385436e-001 
-8.706315e-001 
-1.002570e+000 
-1.133443e+000 
-1.262413e+000 
-1.382567e+000 
-1.489207e+000 
-1.577905e+000 
-1.643470e+000 
-1.690973e+000 
-1.724983e+000 
-1.744504e+000 
-1.746628e+000 
-1.729824e+000 
-1.691846e+000 
-1.635893e+000 
-1.564910e+000 
-1.482806e+000 
-1.395668e+000 
-1.305743e+000 
-1.212826e+000 
-1.119470e+000 
-1.028524e+000 
-9.397510e-001 
-8.552937e-001 
-7.747147e-001 
-6.969474e-001 
-6.237824e-001 
-5.555608e-001 
-4.896901e-001 
-4.258493e-001 
-3.635583e-001 
-3.043877e-001 
-2.488033e-001 
-1.947453e-001 
-1.431486e-001 
-9.434365e-002 
-4.568145e-002 
3.832489e-003 
5.134754e-002 
9.433863e-002 
1.345218e-001 
1.753354e-001 
2.151525e-001 
2.530591e-001 
2.892746e-001 
3.224876e-001 
3.518621e-001 
3.770053e-001 
3.986243e-001 
4.193594e-001 
4.393360e-001 
4.548678e-001 
4.677335e-001 
4.787084e-001 
4.877397e-001 
4.950562e-001 
5.003215e-001 
5.037618e-001 
5.082338e-001 
5.120078e-001 
5.137411e-001 
5.166303e-001 
5.187352e-001 
5.184869e-001 
5.178655e-001 
5.192574e-001 
5.230160e-001 
5.279249e-001 
5.308960e-001 
5.334259e-001 
5.354275e-001 
5.357773e-001 
5.373401e-001 
5.409928e-001 
5.447874e-001 
5.472324e-001 
5.480528e-001 
5.494059e-001 
5.507991e-001 
5.513782e-001 
5.527581e-001 
5.539946e-001 
5.533324e-001 
5.529653e-001 
5.530420e-001 
5.532452e-001 
5.532526e-001 
5.511770e-001 
5.486665e-001 
5.472538e-001 
5.454934e-001 
5.431869e-001 
5.405372e-001 
5.356080e-001 
5.297258e-001 
5.242111e-001 
5.182681e-001 
5.126063e-001 
5.072345e-001 
4.994408e-001 
4.904534e-001 
4.820160e-001 
4.736476e-001 
4.657019e-001 
4.574300e-001 
4.463204e-001 
4.348545e-001 
4.236848e-001 
4.119130e-001 
4.017868e-001 
3.910738e-001 
3.770914e-001 
3.636274e-001 
3.511406e-001 
3.378387e-001 
3.256887e-001 
3.129682e-001 
2.995520e-001 
2.869529e-001 
2.732306e-001 
2.599215e-001 
2.497946e-001 
2.381222e-001 
2.238929e-001 
2.100544e-001 
1.971479e-001 
1.857938e-001 
1.755871e-001 
1.639542e-001 
1.497712e-001 
1.352956e-001 
1.210251e-001 
1.079389e-001 
9.702474e-002 
8.690002e-002 
7.557410e-002 
6.320476e-002 
4.828978e-002 
3.386334e-002 
2.443143e-002 
1.427347e-002 
3.726437e-003 
-3.937482e-003 
-1.129081e-002 
-1.867151e-002 
-2.475661e-002 
-3.068984e-002 
-3.474302e-002 
-3.707120e-002 
-4.008978e-002 
-3.945372e-002 
-3.705526e-002 
-3.678145e-002 
-3.600523e-002 
-3.389288e-002 
-3.195205e-002 
-2.810600e-002 
-2.084033e-002 
-1.486436e-002 
-9.380664e-003 
-4.373860e-003 
7.844680e-004 
7.301244e-003 
1.304489e-002 
1.773283e-002 
2.297324e-002 
2.786351e-002 
3.032340e-002 
3.469572e-002 
3.940060e-002 
4.251726e-002 
4.262318e-002 
4.161076e-002 
4.184555e-002 
4.185557e-002 
4.237612e-002 
4.282798e-002 
4.196541e-002 
3.882526e-002 
3.540784e-002 
3.296183e-002 
3.343103e-002 
3.309006e-002 
2.999414e-002 
2.798646e-002 
2.568109e-002 
2.301643e-002 
2.094748e-002 
2.020484e-002 
1.915040e-002 
1.730033e-002 
1.436570e-002 
1.228958e-002 
1.152933e-002 
9.628342e-003 
6.896609e-003 
3.369208e-003 
1.582537e-003 
-4.228368e-005 
-1.851645e-004 
-5.812462e-004 
-2.854998e-003 
-5.299127e-003 
-6.514527e-003 
-6.981605e-003 
-6.200762e-003 
-2.113698e-003 
3.210536e-003 
1.040546e-002 
1.805762e-002 
2.849132e-002 
4.231869e-002 
5.525767e-002 
6.456228e-002 
7.077882e-002 
7.339645e-002 
6.884542e-002 
5.655945e-002 
3.547117e-002 
4.823787e-003 
-3.799749e-002 
-9.739947e-002 
-1.749941e-001 
-2.709277e-001 
-3.833997e-001 
-5.079239e-001 
-6.386347e-001 
-7.715987e-001 
-9.063403e-001 
-1.043940e+000 
-1.182833e+000 
-1.316957e+000 
-1.440027e+000 
-1.543538e+000 
-1.624671e+000 
-1.685687e+000 
-1.730299e+000 
-1.762038e+000 
-1.776415e+000 
-1.767584e+000 
-1.734955e+000 
-1.681157e+000 
-1.608418e+000 
-1.524601e+000 
-1.436138e+000 
-1.344086e+000 
-1.248003e+000 
-1.148355e+000 
-1.049226e+000 
-9.557594e-001 
-8.673206e-001 
-7.821402e-001 
-7.023569e-001 
-6.271751e-001 
-5.531207e-001 
-4.830327e-001 
-4.176037e-001 
-3.552671e-001 
-2.961086e-001 
-2.382800e-001 
-1.840372e-001 
-1.339401e-001 
-8.388965e-002 
-3.355539e-002 
1.403273e-002 
6.118726e-002 
1.075773e-001 
1.502988e-001 
1.894917e-001 
2.270809e-001 
2.647081e-001 
3.009629e-001 
3.336350e-001 
3.621657e-001 
3.885234e-001 
4.117325e-001 
4.307822e-001 
4.490433e-001 
4.665622e-001 
4.798543e-001 
4.903830e-001 
4.993394e-001 
5.071986e-001 
5.144780e-001 
5.194664e-001 
5.226586e-001 
5.260914e-001 
5.285961e-001 
5.312214e-001 
5.355048e-001 
5.389456e-001 
5.421277e-001 
5.442937e-001 
5.470329e-001 
5.517362e-001 
5.565312e-001 
5.616032e-001 
5.661775e-001 
5.692458e-001 
5.735782e-001 
5.783969e-001 
5.819937e-001 
5.861721e-001 
5.894061e-001 
5.914028e-001 
5.942713e-001 
5.953753e-001 
5.974804e-001 
6.008415e-001 
5.998328e-001 
5.973824e-001 
5.962676e-001 
5.958613e-001 
5.951183e-001 
5.928763e-001 
5.883478e-001 
5.844299e-001 
5.796470e-001 
5.742107e-001 
5.699519e-001 
5.654943e-001 
5.596885e-001 
5.516252e-001 
5.435404e-001 
5.359164e-001 
5.291337e-001 
5.214069e-001 
5.121186e-001 
5.016805e-001 
4.919507e-001 
4.827366e-001 
4.736929e-001 
4.642786e-001 
4.526616e-001 
4.399325e-001 
4.271335e-001 
4.146015e-001 
4.027311e-001 
3.916729e-001 
3.791985e-001 
3.652441e-001 
3.503465e-001 
3.356761e-001 
3.219107e-001 
3.082376e-001 
2.936449e-001 
2.793708e-001 
2.656759e-001 
2.508882e-001 
2.366616e-001 
2.238799e-001 
2.100333e-001 
1.955460e-001 
1.827057e-001 
1.715796e-001 
1.608685e-001 
1.480886e-001 
1.327989e-001 
1.186572e-001 
1.054353e-001 
9.092935e-002 
7.847710e-002 
6.730626e-002 
5.475163e-002 
4.085642e-002 
2.604735e-002 
1.421282e-002 
5.617920e-003 
-3.250967e-003 
-1.411586e-002 
-2.306054e-002 
-3.005247e-002 
-3.657303e-002 
-4.325860e-002 
-4.780041e-002 
-4.928779e-002 
-5.076230e-002 
-5.261991e-002 
-5.406020e-002 
-5.065808e-002 
-4.829596e-002 
-4.909074e-002 
-4.840534e-002 
-4.387578e-002 
-3.952782e-002 
-3.620435e-002 
-3.420362e-002 
-3.232662e-002 
-2.918160e-002 
-2.825060e-002 
-2.536451e-002 
-1.884322e-002 
-1.355624e-002 
-1.122457e-002 
-9.273532e-003 
-6.352801e-003 
-8.652760e-004 
5.335808e-003 
9.672720e-003 
1.188954e-002 
1.307299e-002 
1.291246e-002 
1.354196e-002 
1.645026e-002 
1.962347e-002 
2.038187e-002 
1.951347e-002 
1.775660e-002 
1.616343e-002 
1.569922e-002 
1.455614e-002 
1.312096e-002 
1.061611e-002 
6.236642e-003 
2.662866e-003 
1.342220e-003 
-4.964116e-004 
-4.113231e-003 
-8.230072e-003 
-1.072448e-002 
-1.188313e-002 
-1.322087e-002 
-1.405098e-002 
-1.589204e-002 
-1.975463e-002 
-2.326922e-002 
-2.673811e-002 
-2.765175e-002 
-2.712487e-002 
-2.892121e-002 
-3.142778e-002 
-3.383213e-002 
-3.580851e-002 
-3.411251e-002 
-3.034100e-002 
-2.660226e-002 
-1.885364e-002 
-9.948599e-003 
2.103711e-004 
1.364084e-002 
2.602919e-002 
3.423890e-002 
3.764172e-002 
3.404922e-002 
2.277035e-002 
4.676895e-003 
-2.296305e-002 
-6.122813e-002 
-1.157713e-001 
-1.937572e-001 
-2.938873e-001 
-4.087725e-001 
-5.350767e-001 
-6.697603e-001 
-8.075997e-001 
-9.479347e-001 
-1.092302e+000 
-1.239261e+000 
-1.384524e+000 
-1.517430e+000 
-1.629183e+000 
-1.718295e+000 
-1.787100e+000 
-1.836454e+000 
-1.868285e+000 
-1.882996e+000 
-1.874781e+000 
-1.842809e+000 
-1.785522e+000 
-1.707371e+000 
-1.617156e+000 
-1.521491e+000 
-1.419240e+000 
-1.313886e+000 
-1.206919e+000 
-1.098772e+000 
-9.959938e-001 
-8.989114e-001 
-8.084136e-001 
-7.236889e-001 
-6.418916e-001 
-5.625360e-001 
-4.886788e-001 
-4.188644e-001 
-3.530830e-001 
-2.916884e-001 
-2.316020e-001 
-1.730990e-001 
-1.162058e-001 
-6.114315e-002 
-9.389254e-003 
4.023834e-002 
8.786598e-002 
1.337249e-001 
1.776808e-001 
2.189555e-001 
2.564876e-001 
2.916888e-001 
3.240022e-001 
3.527114e-001 
3.791472e-001 
4.009176e-001 
4.207120e-001 
4.383942e-001 
4.532310e-001 
4.648833e-001 
4.740156e-001 
4.803090e-001 
4.862742e-001 
4.932880e-001 
4.995365e-001 
5.068955e-001 
5.124342e-001 
5.135314e-001 
5.145736e-001 
5.190182e-001 
5.238414e-001 
5.302528e-001 
5.362633e-001 
5.395905e-001 
5.429791e-001 
5.446271e-001 
5.466598e-001 
5.541046e-001 
5.597986e-001 
5.609696e-001 
5.635888e-001 
5.660803e-001 
5.682700e-001 
5.708593e-001 
5.716865e-001 
5.717418e-001 
5.716445e-001 
5.695071e-001 
5.695483e-001 
5.707379e-001 
5.693235e-001 
5.653141e-001 
5.600886e-001 
5.541861e-001 
5.483498e-001 
5.449897e-001 
5.409928e-001 
5.345441e-001 
5.252974e-001 
5.159354e-001 
5.064360e-001 
4.980017e-001 
4.892320e-001 
4.799246e-001 
4.699040e-001 
4.584232e-001 
4.473533e-001 
4.356578e-001 
4.229220e-001 
4.081767e-001 
3.945863e-001 
3.814578e-001 
3.678679e-001 
3.543980e-001 
3.407040e-001 
3.251684e-001 
3.070560e-001 
2.901602e-001 
2.760471e-001 
2.640323e-001 
2.511238e-001 
2.364438e-001 
2.212639e-001 
2.068377e-001 
1.931160e-001 
1.791498e-001 
1.671175e-001 
1.535535e-001 
1.379650e-001 
1.217728e-001 
1.055903e-001 
9.101853e-002 
7.722947e-002 
6.193624e-002 
4.662646e-002 
3.375951e-002 
1.948488e-002 
6.282719e-003 
-6.409593e-003 
-1.892892e-002 
-2.997791e-002 
-4.064643e-002 
-4.925207e-002 
-5.509903e-002 
-6.103959e-002 
-6.776238e-002 
-7.162750e-002 
-7.350144e-002 
-7.341897e-002 
-7.146145e-002 
-6.858594e-002 
-6.663029e-002 
-6.680232e-002 
-6.576936e-002 
-6.139672e-002 
-5.613193e-002 
-5.184614e-002 
-4.766666e-002 
-4.224453e-002 
-3.673421e-002 
-3.320555e-002 
-2.778137e-002 
-2.013992e-002 
-1.588710e-002 
-1.387045e-002 
-9.509232e-003 
-4.192309e-003 
1.139475e-003 
4.851932e-003 
7.271214e-003 
1.000947e-002 
1.030845e-002 
9.496759e-003 
1.187960e-002 
1.485327e-002 
1.344848e-002 
1.155570e-002 
1.067179e-002 
9.723167e-003 
8.617543e-003 
7.087423e-003 
6.250689e-003 
5.163725e-003 
2.391872e-003 
-1.009265e-003 
-1.532298e-003 
-1.866482e-003 
-4.894057e-003 
-8.474924e-003 
-1.056886e-002 
-1.171916e-002 
-1.299283e-002 
-1.426712e-002 
-1.600067e-002 
-1.687458e-002 
-1.797629e-002 
-1.987579e-002 
-1.936170e-002 
-1.734025e-002 
-1.676716e-002 
-1.613056e-002 
-1.339859e-002 
-8.298725e-003 
3.310977e-004 
1.100555e-002 
2.339716e-002 
3.989528e-002 
5.936912e-002 
8.095901e-002 
1.049262e-001 
1.305397e-001 
1.553362e-001 
1.782292e-001 
1.964197e-001 
2.102060e-001 
2.213921e-001 
2.259203e-001 
2.177864e-001 
1.937827e-001 
1.529120e-001 
9.615272e-002 
2.777416e-002 
-4.712352e-002 
-1.221383e-001 
-1.983124e-001 
-2.787699e-001 
-3.623485e-001 
-4.451388e-001 
-5.223258e-001 
-5.885914e-001 
-6.379460e-001 
-6.695100e-001 
-6.884295e-001 
-7.010147e-001 
-7.052175e-001 
-6.975820e-001 
-6.751098e-001 
-6.365562e-001 
-5.850798e-001 
-5.238747e-001 
-4.610146e-001 
-4.032385e-001 
-3.511627e-001 
-3.008408e-001 
-2.536897e-001 
-2.120135e-001 
-1.788477e-001 
-1.546036e-001 
-1.350845e-001 
-1.213153e-001 
-1.125056e-001 
-1.043576e-001 
-9.546493e-002 
-8.975229e-002 
-8.676273e-002 
-8.514094e-002 
-8.342102e-002 
-8.164606e-002 
-8.144701e-002 
-8.171518e-002 
-8.093613e-002 
-8.121694e-002 
-8.304896e-002 
-8.389361e-002 
-8.425644e-002 
-8.662837e-002 
-9.014471e-002 
-9.290122e-002 
-9.418619e-002 
-9.500024e-002 
-9.749053e-002 
-1.013732e-001 
-1.053260e-001 
-1.084470e-001 
-1.122388e-001 
-1.146452e-001 
-1.160283e-001 
-1.184875e-001 
-1.220893e-001 
-1.252259e-001 
-1.283963e-001 
-1.299989e-001 
-1.313538e-001 
-1.354266e-001 
-1.378200e-001 
-1.397480e-001 
-1.428881e-001 
-1.456233e-001 
-1.484810e-001 
-1.520621e-001 
-1.556520e-001 
-1.595817e-001 
-1.615264e-001 
-1.610297e-001 
-1.630770e-001 
-1.674047e-001 
-1.716242e-001 
-1.740626e-001 
-1.754075e-001 
-1.773487e-001 
-1.782566e-001 
-1.799149e-001 
-1.831517e-001 
-1.863834e-001 
-1.879365e-001 
-1.877731e-001 
-1.866673e-001 
-1.878623e-001 
-1.907032e-001 
-1.919558e-001 
-1.936379e-001 
-1.931400e-001 
-1.928555e-001 
-1.950887e-001 
-1.968036e-001 
-1.977912e-001 
-1.987876e-001 
-1.961107e-001 
-1.931169e-001 
-1.925575e-001 
-1.901646e-001 
-1.889609e-001 
-1.868083e-001 
-1.823364e-001 
-1.784020e-001 
-1.743677e-001 
-1.689217e-001 
-1.661793e-001 
-1.617084e-001 
-1.542852e-001 
-1.477000e-001 
-1.414451e-001 
-1.348569e-001 
-1.282582e-001 
-1.214381e-001 
-1.140535e-001 
-1.087116e-001 
-1.023159e-001 
-9.560601e-002 
-8.860654e-002 
-8.061562e-002 
-7.172317e-002 
-6.599253e-002 
-6.122771e-002 
-5.689534e-002 
-5.307260e-002 
-4.690410e-002 
-4.203187e-002 
-4.015488e-002 
-3.986234e-002 
-4.151764e-002 
-4.368845e-002 
-4.242452e-002 
-4.081290e-002 
-3.949397e-002 
-4.073860e-002 
-4.595855e-002 
-5.054297e-002 
-5.230596e-002 
-5.249486e-002 
-5.110316e-002 
-5.099168e-002 
-5.218271e-002 
-5.358339e-002 
-5.537906e-002 
-5.509164e-002 
-5.174586e-002 
-4.779187e-002 
-4.390079e-002 
-4.045366e-002 
-3.739742e-002 
-3.302425e-002 
-2.993310e-002 
-2.795321e-002 
-2.395534e-002 
-1.759845e-002 
-1.138268e-002 
-4.895641e-003 
1.639062e-003 
7.223286e-003 
1.122148e-002 
1.486712e-002 
2.046027e-002 
2.913118e-002 
3.643101e-002 
3.962083e-002 
4.252437e-002 
4.580442e-002 
4.819719e-002 
5.052528e-002 
5.289610e-002 
5.539830e-002 
5.771408e-002 
5.657743e-002 
5.515269e-002 
5.604002e-002 
5.535977e-002 
5.294093e-002 
5.037198e-002 
4.830890e-002 
4.808955e-002 
4.685255e-002 
4.387340e-002 
4.213827e-002 
4.009381e-002 
3.694062e-002 
3.550590e-002 
3.481879e-002 
3.386744e-002 
3.179845e-002 
2.873552e-002 
2.734755e-002 
2.723979e-002 
2.698354e-002 
2.619581e-002 
2.480807e-002 
2.293381e-002 
2.182707e-002 
2.199574e-002 
2.341149e-002 
2.504980e-002 
2.564016e-002 
2.700178e-002 
3.191366e-002 
4.119314e-002 
5.395595e-002 
6.845610e-002 
8.251342e-002 
9.541183e-002 
1.074925e-001 
1.163639e-001 
1.221646e-001 
1.220763e-001 
1.104115e-001 
8.870342e-002 
5.906015e-002 
1.800041e-002 
-3.739238e-002 
-1.120460e-001 
-2.101938e-001 
-3.255736e-001 
-4.561766e-001 
-5.971840e-001 
-7.380411e-001 
-8.810590e-001 
-1.030149e+000 
-1.180376e+000 
-1.328025e+000 
-1.464729e+000 
-1.581679e+000 
-1.679653e+000 
-1.755095e+000 
-1.807722e+000 
-1.844941e+000 
-1.864339e+000 
-1.861838e+000 
-1.837188e+000 
-1.789822e+000 
-1.722890e+000 
-1.641105e+000 
-1.546206e+000 
-1.444226e+000 
-1.342015e+000 
-1.239913e+000 
-1.137149e+000 
-1.034232e+000 
-9.346634e-001 
-8.407293e-001 
-7.521401e-001 
-6.686219e-001 
-5.915168e-001 
-5.195439e-001 
-4.475275e-001 
-3.753773e-001 
-3.082509e-001 
-2.477482e-001 
-1.911685e-001 
-1.348794e-001 
-7.902604e-002 
-2.485281e-002 
2.824497e-002 
7.987936e-002 
1.273623e-001 
1.715685e-001 
2.148168e-001 
2.578036e-001 
2.991419e-001 
3.352238e-001 
3.674509e-001 
3.984908e-001 
4.265507e-001 
4.522103e-001 
4.752657e-001 
4.940754e-001 
5.092252e-001 
5.217935e-001 
5.335752e-001 
5.469357e-001 
5.579869e-001 
5.640568e-001 
5.694840e-001 
5.727780e-001 
5.751561e-001 
5.782947e-001 
5.821473e-001 
5.860297e-001 
5.888835e-001 
5.893662e-001 
5.908926e-001 
5.950024e-001 
5.993190e-001 
6.031131e-001 
6.061985e-001 
6.105499e-001 
6.152610e-001 
6.190116e-001 
6.217201e-001 
6.241090e-001 
6.275664e-001 
6.308061e-001 
6.331818e-001 
6.375743e-001 
6.423677e-001 
6.446925e-001 
6.449824e-001 
6.447283e-001 
6.462563e-001 
6.487790e-001 
6.483518e-001 
6.469061e-001 
6.445363e-001 
6.402286e-001 
6.355260e-001 
6.310094e-001 
6.266234e-001 
6.215625e-001 
6.146218e-001 
6.072516e-001 
6.002626e-001 
5.913432e-001 
5.818009e-001 
5.726538e-001 
5.629425e-001 
5.521164e-001 
5.416476e-001 
5.306475e-001 
5.196089e-001 
5.061252e-001 
4.912280e-001 
4.794928e-001 
4.684624e-001 
4.561783e-001 
4.431712e-001 
4.280975e-001 
4.125503e-001 
3.993680e-001 
3.853497e-001 
3.729779e-001 
3.615539e-001 
3.472877e-001 
3.321175e-001 
3.162156e-001 
3.017459e-001 
2.906554e-001 
2.791350e-001 
2.654057e-001 
2.507226e-001 
2.352409e-001 
2.195275e-001 
2.039305e-001 
1.884544e-001 
1.740173e-001 
1.594382e-001 
1.447615e-001 
1.299574e-001 
1.151735e-001 
1.005542e-001 
8.593463e-002 
7.294322e-002 
6.161591e-002 
5.190623e-002 
4.317747e-002 
3.391201e-002 
2.494893e-002 
1.735815e-002 
1.171176e-002 
9.675996e-003 
9.662628e-003 
9.040949e-003 
8.209909e-003 
7.989857e-003 
9.307114e-003 
1.314118e-002 
1.821048e-002 
2.344302e-002 
2.774062e-002 
3.099668e-002 
3.493950e-002 
4.094510e-002 
4.881295e-002 
5.610195e-002 
6.133755e-002 
6.602049e-002 
7.005622e-002 
7.477447e-002 
8.052474e-002 
8.577533e-002 
8.892281e-002 
9.083615e-002 
9.148237e-002 
9.270596e-002 
9.480093e-002 
9.508503e-002 
9.480467e-002 
9.411264e-002 
9.291265e-002 
9.146435e-002 
9.200488e-002 
9.232111e-002 
9.175741e-002 
8.973504e-002 
8.804586e-002 
8.797167e-002 
8.771969e-002 
8.642897e-002 
8.516122e-002 
8.394888e-002 
8.138235e-002 
7.970686e-002 
7.879571e-002 
7.796587e-002 
7.505738e-002 
7.118963e-002 
6.902076e-002 
6.887970e-002 
6.844049e-002 
6.728691e-002 
6.624873e-002 
6.491460e-002 
6.552888e-002 
7.042787e-002 
8.023578e-002 
9.299165e-002 
1.064165e-001 
1.175690e-001 
1.262707e-001 
1.324160e-001 
1.348714e-001 
1.316484e-001 
1.197867e-001 
9.875362e-002 
6.958489e-002 
2.871462e-002 
-3.062646e-002 
-1.099076e-001 
-2.085733e-001 
-3.253168e-001 
-4.537238e-001 
-5.857397e-001 
-7.174326e-001 
-8.502964e-001 
-9.877613e-001 
-1.126248e+000 
-1.258052e+000 
-1.376787e+000 
-1.476633e+000 
-1.551498e+000 
-1.604874e+000 
-1.642300e+000 
-1.663224e+000 
-1.666145e+000 
-1.648609e+000 
-1.608436e+000 
-1.547853e+000 
-1.469881e+000 
-1.378065e+000 
-1.279911e+000 
-1.177473e+000 
-1.074659e+000 
-9.753299e-001 
-8.785191e-001 
-7.854981e-001 
-6.977492e-001 
-6.142091e-001 
-5.350384e-001 
-4.593854e-001 
-3.873198e-001 
-3.204733e-001 
-2.539978e-001 
-1.903857e-001 
-1.308786e-001 
-7.369369e-002 
-2.172088e-002 
2.866942e-002 
8.001515e-002 
1.279434e-001 
1.730186e-001 
2.156124e-001 
2.528103e-001 
2.895616e-001 
3.232003e-001 
3.528262e-001 
3.815793e-001 
4.064749e-001 
4.263466e-001 
4.436047e-001 
4.588255e-001 
4.725061e-001 
4.836831e-001 
4.902538e-001 
4.951021e-001 
5.003301e-001 
5.060338e-001 
5.105998e-001 
5.134698e-001 
5.149917e-001 
5.158703e-001 
5.160119e-001 
5.185460e-001 
5.230559e-001 
5.280845e-001 
5.316122e-001 
5.324063e-001 
5.342742e-001 
5.385501e-001 
5.436466e-001 
5.486997e-001 
5.542503e-001 
5.572524e-001 
5.602579e-001 
5.628048e-001 
5.653739e-001 
5.698624e-001 
5.726810e-001 
5.736456e-001 
5.751313e-001 
5.756282e-001 
5.742140e-001 
5.731468e-001 
5.703936e-001 
5.670927e-001 
5.647425e-001 
5.612540e-001 
5.577674e-001 
5.523405e-001 
5.444655e-001 
5.360342e-001 
5.287521e-001 
5.221235e-001 
5.159055e-001 
5.090632e-001 
4.987387e-001 
4.875033e-001 
4.766758e-001 
4.677787e-001 
4.593854e-001 
4.507364e-001 
4.404635e-001 
4.277561e-001 
4.144079e-001 
4.020115e-001 
3.915251e-001 
3.806993e-001 
3.685108e-001 
3.546548e-001 
3.416071e-001 
3.284954e-001 
3.147403e-001 
3.025228e-001 
2.897822e-001 
2.753676e-001 
2.603309e-001 
2.460450e-001 
2.333606e-001 
2.217369e-001 
2.081699e-001 
1.945139e-001 
1.822536e-001 
1.699563e-001 
1.577755e-001 
1.464010e-001 
1.353274e-001 
1.244428e-001 
1.126732e-001 
1.003125e-001 
8.723698e-002 
7.383855e-002 
6.042871e-002 
4.703545e-002 
3.553284e-002 
2.551881e-002 
1.622309e-002 
5.358433e-003 
-7.809107e-003 
-2.067550e-002 
-3.050973e-002 
-3.866655e-002 
-4.475706e-002 
-4.991053e-002 
-5.485729e-002 
-5.989203e-002 
-6.524669e-002 
-6.806075e-002 
-6.677840e-002 
-6.488526e-002 
-6.277091e-002 
-5.968912e-002 
-5.654883e-002 
-5.136185e-002 
-4.608020e-002 
-4.102571e-002 
-3.594168e-002 
-3.041269e-002 
-2.512517e-002 
-1.841490e-002 
-1.129475e-002 
-4.461070e-003 
1.754802e-003 
6.475604e-003 
1.150442e-002 
1.767174e-002 
2.496228e-002 
2.972974e-002 
3.302782e-002 
3.616812e-002 
3.981012e-002 
4.341900e-002 
4.664779e-002 
4.839336e-002 
4.809329e-002 
4.629407e-002 
4.433975e-002 
4.500224e-002 
4.753235e-002 
4.811354e-002 
4.575890e-002 
4.199914e-002 
3.784336e-002 
3.452357e-002 
3.260761e-002 
3.066163e-002 
2.808827e-002 
2.510239e-002 
2.132750e-002 
1.820555e-002 
1.637627e-002 
1.532177e-002 
1.331459e-002 
1.061385e-002 
8.156442e-003 
6.717106e-003 
5.922174e-003 
3.468523e-003 
-1.856275e-004 
-2.839861e-003 
-4.394789e-003 
-5.166631e-003 
-3.914563e-003 
-2.475090e-003 
-1.062266e-003 
1.502048e-003 
6.873640e-003 
1.753279e-002 
3.176064e-002 
4.510418e-002 
5.479272e-002 
6.096055e-002 
6.323720e-002 
6.081258e-002 
5.148293e-002 
3.543215e-002 
9.860925e-003 
-2.940873e-002 
-8.623735e-002 
-1.631324e-001 
-2.587486e-001 
-3.720921e-001 
-5.005556e-001 
-6.355225e-001 
-7.716317e-001 
-9.101272e-001 
-1.051563e+000 
-1.195622e+000 
-1.337624e+000 
-1.467615e+000 
-1.578792e+000 
-1.667207e+000 
-1.731806e+000 
-1.777489e+000 
-1.807642e+000 
-1.821097e+000 
-1.813302e+000 
-1.780598e+000 
-1.723274e+000 
-1.647626e+000 
-1.559350e+000 
-1.463279e+000 
-1.362538e+000 
-1.258214e+000 
-1.152467e+000 
-1.048552e+000 
-9.489198e-001 
-8.554521e-001 
-7.668943e-001 
-6.809042e-001 
-5.983683e-001 
-5.188747e-001 
-4.422847e-001 
-3.711731e-001 
-3.040519e-001 
-2.373454e-001 
-1.734176e-001 
-1.121361e-001 
-5.430412e-002 
1.364955e-003 
5.593848e-002 
1.080921e-001 
1.559230e-001 
2.014956e-001 
2.442761e-001 
2.818455e-001 
3.167007e-001 
3.490001e-001 
3.798197e-001 
4.058442e-001 
4.270929e-001 
4.447982e-001 
4.609538e-001 
4.742892e-001 
4.862784e-001 
4.958211e-001 
5.017218e-001 
5.067391e-001 
5.112856e-001 
5.171210e-001 
5.234239e-001 
5.281732e-001 
5.310653e-001 
5.341338e-001 
5.360514e-001 
5.398199e-001 
5.462409e-001 
5.523766e-001 
5.569231e-001 
5.597095e-001 
5.619599e-001 
5.660397e-001 
5.711992e-001 
5.758918e-001 
5.803342e-001 
5.829081e-001 
5.842059e-001 
5.864292e-001 
5.885864e-001 
5.896515e-001 
5.906519e-001 
5.906907e-001 
5.892435e-001 
5.880234e-001 
5.849156e-001 
5.813879e-001 
5.774767e-001 
5.707463e-001 
5.643564e-001 
5.601435e-001 
5.538612e-001 
5.451045e-001 
5.354775e-001 
5.236359e-001 
5.131638e-001 
5.026204e-001 
4.921467e-001 
4.823386e-001 
4.699149e-001 
4.541810e-001 
4.389138e-001 
4.256884e-001 
4.129417e-001 
3.996068e-001 
3.848669e-001 
3.697842e-001 
3.524337e-001 
3.349648e-001 
3.180853e-001 
3.006655e-001 
2.831046e-001 
2.642268e-001 
2.461212e-001 
2.304360e-001 
2.149482e-001 
1.997792e-001 
1.855650e-001 
1.692421e-001 
1.544469e-001 
1.421804e-001 
1.304960e-001 
1.190423e-001 
1.060329e-001 
9.277151e-002 
8.065164e-002 
6.760734e-002 
5.620436e-002 
4.771027e-002 
3.757012e-002 
2.609734e-002 
1.460141e-002 
4.421573e-003 
-3.821432e-003 
-1.420447e-002 
-2.500297e-002 
-3.238574e-002 
-3.910660e-002 
-4.511132e-002 
-4.781145e-002 
-4.998037e-002 
-5.121406e-002 
-5.221859e-002 
-5.417221e-002 
-5.144748e-002 
-4.646456e-002 
-4.288136e-002 
-3.806825e-002 
-3.346814e-002 
-3.051032e-002 
-2.535777e-002 
-2.025951e-002 
-1.492964e-002 
-9.115785e-003 
-5.597787e-003 
-1.740172e-003 
3.352918e-003 
7.555505e-003 
1.132870e-002 
1.547221e-002 
2.036297e-002 
2.516500e-002 
2.877110e-002 
3.284559e-002 
3.672456e-002 
4.060552e-002 
4.300783e-002 
4.406087e-002 
4.745957e-002 
5.131883e-002 
5.186403e-002 
5.092342e-002 
5.000232e-002 
5.069126e-002 
5.276882e-002 
5.160568e-002 
4.958171e-002 
4.780183e-002 
4.345574e-002 
3.910206e-002 
3.654635e-002 
3.483648e-002 
3.387826e-002 
3.026538e-002 
2.449734e-002 
2.078568e-002 
1.855956e-002 
1.653808e-002 
1.505319e-002 
1.221010e-002 
8.741716e-003 
5.330277e-003 
2.139984e-003 
4.636983e-004 
-6.508895e-004 
-3.286987e-003 
-6.926312e-003 
-9.027990e-003 
-9.720905e-003 
-9.447313e-003 
-8.765662e-003 
-4.984577e-003 
1.124485e-003 
9.084948e-003 
1.959020e-002 
3.345564e-002 
4.768616e-002 
5.787811e-002 
6.386223e-002 
6.675070e-002 
6.394478e-002 
5.214710e-002 
3.102257e-002 
-5.647873e-005 
-4.322822e-002 
-1.057037e-001 
-1.894269e-001 
-2.919948e-001 
-4.127401e-001 
-5.473107e-001 
-6.865858e-001 
-8.274921e-001 
-9.696754e-001 
-1.115289e+000 
-1.265418e+000 
-1.410684e+000 
-1.542307e+000 
-1.654724e+000 
-1.741910e+000 
-1.805208e+000 
-1.851959e+000 
-1.882669e+000 
-1.896511e+000 
-1.888166e+000 
-1.852491e+000 
-1.792765e+000 
-1.713125e+000 
-1.620694e+000 
-1.523257e+000 
-1.423236e+000 
-1.318847e+000 
-1.213936e+000 
-1.109496e+000 
-1.008987e+000 
-9.132434e-001 
-8.206282e-001 
-7.336244e-001 
-6.515837e-001 
-5.735517e-001 
-4.991870e-001 
-4.288601e-001 
-3.598226e-001 
-2.938607e-001 
-2.297619e-001 
-1.687314e-001 
-1.115466e-001 
-5.661488e-002 
-3.543578e-003 
5.005065e-002 
1.030829e-001 
1.521520e-001 
1.966025e-001 
2.387582e-001 
2.782323e-001 
3.155122e-001 
3.489350e-001 
3.798448e-001 
4.086189e-001 
4.310824e-001 
4.499928e-001 
4.690948e-001 
4.852358e-001 
4.978424e-001 
5.061998e-001 
5.119115e-001 
5.185985e-001 
5.244277e-001 
5.294112e-001 
5.348937e-001 
5.390689e-001 
5.410098e-001 
5.433609e-001 
5.462625e-001 
5.523048e-001 
5.587222e-001 
5.619270e-001 
5.641412e-001 
5.669739e-001 
5.709518e-001 
5.755095e-001 
5.794644e-001 
5.831289e-001 
5.877063e-001 
5.897853e-001 
5.918241e-001 
5.965403e-001 
6.000842e-001 
6.011213e-001 
6.014838e-001 
6.005600e-001 
6.004444e-001 
5.998193e-001 
5.966529e-001 
5.949031e-001 
5.928150e-001 
5.881138e-001 
5.845623e-001 
5.816702e-001 
5.762084e-001 
5.686985e-001 
5.590394e-001 
5.506385e-001 
5.439511e-001 
5.348748e-001 
5.243834e-001 
5.136588e-001 
5.030037e-001 
4.898967e-001 
4.770398e-001 
4.663790e-001 
4.550866e-001 
4.406348e-001 
4.240258e-001 
4.081672e-001 
3.941804e-001 
3.802518e-001 
3.625614e-001 
3.462449e-001 
3.301972e-001 
3.131030e-001 
2.970736e-001 
2.828874e-001 
2.690414e-001 
2.540362e-001 
2.358800e-001 
2.185314e-001 
2.047748e-001 
1.914247e-001 
1.783997e-001 
1.661737e-001 
1.545141e-001 
1.421922e-001 
1.297877e-001 
1.186978e-001 
1.083224e-001 
9.586814e-002 
8.209204e-002 
6.839380e-002 
5.723602e-002 
4.689318e-002 
3.490879e-002 
2.318253e-002 
1.167409e-002 
-3.379418e-004 
-1.062982e-002 
-2.029198e-002 
-2.953401e-002 
-3.630190e-002 
-4.303391e-002 
-4.947909e-002 
-5.338237e-002 
-5.642623e-002 
-5.787592e-002 
-5.904908e-002 
-6.158197e-002 
-6.083919e-002 
-5.688088e-002 
-5.233294e-002 
-4.900534e-002 
-4.668091e-002 
-4.436581e-002 
-4.107959e-002 
-3.806781e-002 
-3.396345e-002 
-2.940506e-002 
-2.542811e-002 
-2.196072e-002 
-2.011171e-002 
-1.716926e-002 
-1.365853e-002 
-1.057228e-002 
-8.088543e-003 
-5.413287e-003 
-2.697842e-003 
2.814749e-003 
8.411249e-003 
1.126675e-002 
1.273515e-002 
1.363068e-002 
1.419908e-002 
1.583183e-002 
1.840150e-002 
1.934605e-002 
2.007895e-002 
