59
0.7552
1.3164e+003
1.7686
-3.744428e-002 
-9.939319e-002 
-1.572523e-001 
-2.161514e-001 
-2.743940e-001 
-3.319834e-001 
-3.906141e-001 
-4.495776e-001 
-5.399349e-001 
-6.739437e-001 
-7.768931e-001 
-8.603462e-001 
-9.494964e-001 
-1.037200e+000 
-1.122287e+000 
-1.203735e+000 
-1.281041e+000 
-1.352687e+000 
-1.388516e+000 
-1.377271e+000 
-1.357046e+000 
-1.328094e+000 
-1.292152e+000 
-1.247987e+000 
-1.194447e+000 
-1.131194e+000 
-1.058844e+000 
-9.826174e-001 
-9.052107e-001 
-8.279029e-001 
-7.485463e-001 
-6.675776e-001 
-5.861527e-001 
-5.084518e-001 
-4.401163e-001 
-3.857844e-001 
-3.428631e-001 
-3.084839e-001 
-2.805486e-001 
-2.551918e-001 
-2.332346e-001 
-2.151697e-001 
-2.007065e-001 
-1.893729e-001 
-1.796011e-001 
-1.659394e-001 
-1.522996e-001 
-1.391772e-001 
-1.266346e-001 
-1.164682e-001 
-1.073387e-001 
-9.954410e-002 
-9.504603e-002 
-9.256826e-002 
-8.951110e-002 
-8.842539e-002 
-8.654721e-002 
-8.437866e-002 
-7.937757e-002 
-7.314073e-002 
-6.864974e-002 
-6.550414e-002 
-6.166216e-002 
-5.747624e-002 
-5.380333e-002 
-5.138867e-002 
-4.962769e-002 
-4.733287e-002 
-4.541326e-002 
-4.105128e-002 
-3.330084e-002 
-2.369663e-002 
-1.311116e-002 
-3.308649e-003 
1.704652e-003 
5.336378e-003 
8.968100e-003 
1.408346e-002 
2.069369e-002 
2.924134e-002 
3.852825e-002 
4.822549e-002 
5.690865e-002 
6.584131e-002 
7.805550e-002 
9.118986e-002 
1.035258e-001 
1.138334e-001 
1.232530e-001 
1.295951e-001 
1.342532e-001 
1.390878e-001 
1.461909e-001 
1.549851e-001 
1.642145e-001 
1.745444e-001 
1.850527e-001 
1.935007e-001 
1.988811e-001 
2.016789e-001 
2.021810e-001 
2.016551e-001 
2.005187e-001 
2.013926e-001 
2.036645e-001 
2.038015e-001 
2.022643e-001 
1.996013e-001 
1.952435e-001 
1.902339e-001 
1.843266e-001 
1.774631e-001 
1.688621e-001 
1.547317e-001 
1.374476e-001 
1.219685e-001 
1.069619e-001 
9.339809e-002 
8.142387e-002 
6.929979e-002 
5.966047e-002 
5.054910e-002 
4.098394e-002 
3.390047e-002 
2.557311e-002 
1.113971e-002 
-5.464920e-003 
-2.228712e-002 
-3.506476e-002 
-4.112924e-002 
-4.270569e-002 
-4.186667e-002 
-4.400203e-002 
-5.172002e-002 
-6.214935e-002 
-6.991422e-002 
-7.499971e-002 
-7.654890e-002 
-7.728660e-002 
-7.633294e-002 
-7.922504e-002 
-8.643804e-002 
-9.093263e-002 
-9.049418e-002 
-8.643538e-002 
-8.000824e-002 
-7.207962e-002 
-6.461887e-002 
-5.950071e-002 
-6.117239e-002 
-6.374428e-002 
-6.440875e-002 
-6.325159e-002 
-6.040885e-002 
-5.408317e-002 
-4.672577e-002 
-4.096067e-002 
-3.662400e-002 
-3.396886e-002 
-3.255702e-002 
-3.075323e-002 
-2.809558e-002 
-2.444632e-002 
-1.931771e-002 
-1.636775e-002 
-1.324053e-002 
-9.315969e-003 
-8.548342e-003 
-8.549091e-003 
-8.739513e-003 
-1.049522e-002 
-9.404287e-003 
-1.018525e-002 
-1.431861e-002 
-1.726931e-002 
-2.383319e-002 
-3.327771e-002 
-4.092005e-002 
-4.711116e-002 
-4.859695e-002 
-4.687731e-002 
-4.800008e-002 
-4.804422e-002 
-5.138684e-002 
-5.999554e-002 
-6.777013e-002 
-7.233258e-002 
-7.294074e-002 
-7.179758e-002 
-6.985151e-002 
-6.669682e-002 
-6.463500e-002 
-6.467552e-002 
-6.208970e-002 
-5.817641e-002 
-5.331271e-002 
-5.029108e-002 
-5.015045e-002 
-4.934169e-002 
-4.966196e-002 
-5.216981e-002 
-5.320074e-002 
-5.149124e-002 
-4.883967e-002 
-4.430525e-002 
-3.916008e-002 
-3.292094e-002 
-2.722401e-002 
-2.559238e-002 
-2.998347e-002 
-3.338184e-002 
-3.492046e-002 
-3.717354e-002 
-3.563939e-002 
-2.988070e-002 
-2.211873e-002 
-1.414324e-002 
-7.147790e-003 
-5.693578e-004 
1.150097e-002 
2.103818e-002 
2.705897e-002 
3.375739e-002 
3.937873e-002 
4.217984e-002 
4.365248e-002 
4.614564e-002 
5.040349e-002 
5.751961e-002 
6.204542e-002 
6.499894e-002 
6.879738e-002 
7.028731e-002 
6.705702e-002 
6.254164e-002 
5.599058e-002 
4.570618e-002 
3.613815e-002 
2.773058e-002 
2.348330e-002 
2.443052e-002 
2.442368e-002 
2.353802e-002 
2.104587e-002 
1.474123e-002 
6.812067e-003 
1.306735e-003 
-2.267829e-003 
-4.869956e-003 
-8.671741e-003 
-1.479881e-002 
-2.143399e-002 
-2.896637e-002 
-3.426588e-002 
-3.714422e-002 
-3.802189e-002 
-3.959213e-002 
-4.400475e-002 
-4.981016e-002 
-5.708101e-002 
-6.420039e-002 
-6.876937e-002 
-7.006332e-002 
-6.867131e-002 
-6.329304e-002 
-5.765747e-002 
-5.211487e-002 
-4.840148e-002 
-4.910885e-002 
-5.284196e-002 
-6.038857e-002 
-7.225107e-002 
-8.647734e-002 
-1.034907e-001 
-1.258241e-001 
-1.521844e-001 
-1.843797e-001 
-2.237702e-001 
-2.702433e-001 
-3.252980e-001 
-3.891503e-001 
-4.560294e-001 
-5.206313e-001 
-5.775892e-001 
-6.221699e-001 
-6.548598e-001 
-6.788650e-001 
-6.965340e-001 
-7.110614e-001 
-7.185129e-001 
-7.118772e-001 
-6.908564e-001 
-6.563571e-001 
-6.115580e-001 
-5.626485e-001 
-5.132798e-001 
-4.628542e-001 
-4.091261e-001 
-3.474249e-001 
-2.820591e-001 
-2.162753e-001 
-1.545846e-001 
-1.026264e-001 
-6.296375e-002 
-3.488489e-002 
-1.310703e-002 
4.926885e-003 
2.092400e-002 
3.587913e-002 
5.343290e-002 
6.945152e-002 
8.163065e-002 
9.037850e-002 
9.629000e-002 
1.000466e-001 
1.009567e-001 
1.024929e-001 
1.048022e-001 
1.079856e-001 
1.089114e-001 
1.100872e-001 
1.131665e-001 
1.166140e-001 
1.186209e-001 
1.229276e-001 
1.296289e-001 
1.339699e-001 
1.375801e-001 
1.385385e-001 
1.396751e-001 
1.404095e-001 
1.390371e-001 
1.380060e-001 
1.414070e-001 
1.438324e-001 
1.445694e-001 
1.457297e-001 
1.472525e-001 
1.485060e-001 
1.484463e-001 
1.472287e-001 
1.468223e-001 
1.475280e-001 
1.448525e-001 
1.425769e-001 
1.435282e-001 
1.471756e-001 
1.520781e-001 
1.603977e-001 
1.693505e-001 
1.782525e-001 
1.867720e-001 
1.929052e-001 
1.987762e-001 
2.040220e-001 
2.085909e-001 
2.143875e-001 
2.227212e-001 
2.305175e-001 
2.398219e-001 
2.494448e-001 
2.553996e-001 
2.586287e-001 
2.601995e-001 
2.613014e-001 
2.618953e-001 
2.636756e-001 
2.653656e-001 
2.672629e-001 
2.669817e-001 
2.640178e-001 
2.606121e-001 
2.585285e-001 
2.578115e-001 
2.565489e-001 
2.549883e-001 
2.495805e-001 
2.399014e-001 
2.269456e-001 
2.131268e-001 
2.015966e-001 
1.941884e-001 
1.869645e-001 
1.789215e-001 
1.694190e-001 
1.563968e-001 
1.419981e-001 
1.278644e-001 
1.156825e-001 
1.048942e-001 
9.452792e-002 
8.164431e-002 
6.835105e-002 
5.546291e-002 
4.273033e-002 
3.258621e-002 
2.530682e-002 
1.853495e-002 
1.137509e-002 
3.599859e-003 
-5.606070e-003 
-1.231914e-002 
-1.915819e-002 
-2.519941e-002 
-2.686129e-002 
-2.688973e-002 
-2.784884e-002 
-2.879858e-002 
-2.885962e-002 
-2.719453e-002 
-2.617955e-002 
-2.754731e-002 
-2.760623e-002 
-2.650341e-002 
-2.637997e-002 
-2.664792e-002 
-2.522386e-002 
-2.221898e-002 
-1.848190e-002 
-1.529762e-002 
-1.247405e-002 
-9.371784e-003 
-5.211658e-003 
-2.892034e-003 
-2.566352e-003 
-4.113819e-003 
-7.869160e-003 
-9.817495e-003 
-1.199933e-002 
-1.536193e-002 
-1.612931e-002 
-1.493714e-002 
-1.484465e-002 
-1.503337e-002 
-1.742374e-002 
-2.037482e-002 
-2.185699e-002 
-2.553738e-002 
-2.886630e-002 
-3.068985e-002 
-3.042024e-002 
-2.790719e-002 
-2.514062e-002 
-2.152689e-002 
-1.348928e-002 
-3.587570e-003 
5.663335e-003 
1.258744e-002 
1.601642e-002 
1.718552e-002 
1.404103e-002 
8.153223e-003 
4.044327e-003 
2.161811e-003 
-4.780085e-005 
-3.424719e-003 
-8.701112e-003 
-1.484893e-002 
-2.067693e-002 
-2.494217e-002 
-2.694434e-002 
-2.909840e-002 
-3.509939e-002 
-4.496220e-002 
-5.754881e-002 
-7.024755e-002 
-7.810753e-002 
-7.853819e-002 
-7.405443e-002 
-6.740181e-002 
-6.268790e-002 
-6.124598e-002 
-6.120099e-002 
-6.239439e-002 
-6.268202e-002 
-6.110936e-002 
-6.043344e-002 
-6.077531e-002 
-6.047049e-002 
-6.088020e-002 
-6.038742e-002 
-5.670549e-002 
-5.172326e-002 
-4.719247e-002 
-4.493890e-002 
-4.368568e-002 
-4.266087e-002 
-4.204696e-002 
-4.095438e-002 
-3.651410e-002 
-3.056949e-002 
-2.577769e-002 
-2.204850e-002 
-1.778768e-002 
-1.109775e-002 
-3.186546e-003 
7.165845e-003 
1.828702e-002 
2.783230e-002 
3.255418e-002 
3.424652e-002 
3.529579e-002 
3.791053e-002 
4.185709e-002 
4.806621e-002 
5.385446e-002 
5.443820e-002 
5.022407e-002 
4.162771e-002 
3.223837e-002 
2.310077e-002 
1.497829e-002 
9.502396e-003 
7.223213e-003 
4.134678e-003 
-1.525785e-004 
-3.937601e-003 
-7.624646e-003 
-1.208817e-002 
-1.662349e-002 
-1.965119e-002 
-2.102670e-002 
-2.122900e-002 
-2.196809e-002 
-2.253252e-002 
-2.153138e-002 
-2.033584e-002 
-2.029945e-002 
-1.854493e-002 
-1.752652e-002 
-1.683764e-002 
-1.624378e-002 
-1.775817e-002 
-2.050454e-002 
-2.359708e-002 
-2.773421e-002 
-3.131429e-002 
-3.324869e-002 
-3.382180e-002 
-3.083294e-002 
-2.678715e-002 
-2.376549e-002 
-2.285629e-002 
-2.277328e-002 
-2.332415e-002 
-2.534813e-002 
-2.917720e-002 
-3.405161e-002 
-3.978030e-002 
-5.041636e-002 
-6.902742e-002 
-9.459141e-002 
-1.260160e-001 
-1.667269e-001 
-2.177933e-001 
-2.781597e-001 
-3.462057e-001 
-4.234927e-001 
-5.112435e-001 
-6.029282e-001 
-6.912276e-001 
-7.720443e-001 
-8.410218e-001 
-8.948563e-001 
-9.333761e-001 
-9.591387e-001 
-9.774172e-001 
-9.863954e-001 
-9.826598e-001 
-9.631375e-001 
-9.255375e-001 
-8.704366e-001 
-8.020922e-001 
-7.232950e-001 
-6.412665e-001 
-5.573458e-001 
-4.713440e-001 
-3.845426e-001 
-2.989487e-001 
-2.187603e-001 
-1.488006e-001 
-9.241765e-002 
-4.868559e-002 
-1.751328e-002 
7.491289e-003 
2.905927e-002 
5.049427e-002 
7.152509e-002 
9.000009e-002 
1.048075e-001 
1.171094e-001 
1.263529e-001 
1.307216e-001 
1.330948e-001 
1.366530e-001 
1.398458e-001 
1.417031e-001 
1.442838e-001 
1.487679e-001 
1.546960e-001 
1.599374e-001 
1.637306e-001 
1.689289e-001 
1.737601e-001 
1.732759e-001 
1.707578e-001 
1.679433e-001 
1.656117e-001 
1.645395e-001 
1.654832e-001 
1.679661e-001 
1.735958e-001 
1.796017e-001 
1.821968e-001 
1.850292e-001 
1.866785e-001 
1.867054e-001 
1.874913e-001 
1.894799e-001 
1.912671e-001 
1.940511e-001 
1.962220e-001 
1.988369e-001 
2.025265e-001 
2.052334e-001 
2.106022e-001 
2.192242e-001 
2.274132e-001 
2.332836e-001 
2.378626e-001 
2.415661e-001 
2.425980e-001 
2.405183e-001 
2.415318e-001 
2.476380e-001 
2.545976e-001 
2.624910e-001 
2.707946e-001 
2.785953e-001 
2.844072e-001 
2.865909e-001 
2.878843e-001 
2.929096e-001 
2.986180e-001 
3.038063e-001 
3.124474e-001 
3.209721e-001 
3.289273e-001 
3.358844e-001 
3.402404e-001 
3.436827e-001 
3.482397e-001 
3.507131e-001 
3.523286e-001 
3.529268e-001 
3.498198e-001 
3.431906e-001 
3.339099e-001 
3.238710e-001 
3.141570e-001 
3.059322e-001 
2.984008e-001 
2.895775e-001 
2.770290e-001 
2.600494e-001 
2.390496e-001 
2.172624e-001 
1.940630e-001 
1.730902e-001 
1.564477e-001 
1.425869e-001 
1.296087e-001 
1.166014e-001 
1.035054e-001 
8.952577e-002 
7.500283e-002 
6.111724e-002 
5.160607e-002 
4.313717e-002 
3.627994e-002 
3.035445e-002 
2.463160e-002 
1.968386e-002 
1.637387e-002 
1.796591e-002 
2.299828e-002 
2.815810e-002 
3.052808e-002 
3.034572e-002 
2.537379e-002 
1.782208e-002 
1.120419e-002 
9.466425e-003 
1.120677e-002 
1.294725e-002 
1.518640e-002 
1.827865e-002 
2.100766e-002 
2.173344e-002 
2.393964e-002 
2.811216e-002 
3.009449e-002 
2.713833e-002 
2.420658e-002 
2.189452e-002 
2.001732e-002 
1.977788e-002 
2.117765e-002 
2.689545e-002 
3.264651e-002 
3.452921e-002 
3.612559e-002 
3.852477e-002 
3.684371e-002 
3.417042e-002 
3.292929e-002 
3.197292e-002 
3.301839e-002 
3.372088e-002 
3.548689e-002 
4.049350e-002 
4.593347e-002 
4.799049e-002 
5.001368e-002 
5.081698e-002 
4.978065e-002 
4.850152e-002 
4.572550e-002 
4.525682e-002 
4.612899e-002 
4.409286e-002 
3.974506e-002 
3.705207e-002 
3.488272e-002 
3.377564e-002 
3.294656e-002 
3.218772e-002 
3.189960e-002 
2.817900e-002 
2.220150e-002 
1.817308e-002 
1.611623e-002 
1.542273e-002 
1.799235e-002 
2.128249e-002 
2.347488e-002 
2.587870e-002 
2.732752e-002 
2.902878e-002 
3.067910e-002 
2.998600e-002 
2.926799e-002 
2.994160e-002 
2.843414e-002 
2.708489e-002 
2.802717e-002 
2.893641e-002 
3.116250e-002 
3.183407e-002 
3.090098e-002 
3.180912e-002 
3.094379e-002 
2.633755e-002 
2.313135e-002 
2.110617e-002 
1.965086e-002 
2.051316e-002 
2.300565e-002 
2.915112e-002 
3.773504e-002 
4.577345e-002 
5.615940e-002 
6.952364e-002 
8.072869e-002 
8.959891e-002 
9.727291e-002 
1.031555e-001 
1.081876e-001 
1.134768e-001 
1.190716e-001 
1.272776e-001 
1.352894e-001 
1.393168e-001 
1.405327e-001 
1.389182e-001 
1.339139e-001 
1.268108e-001 
1.183111e-001 
1.102167e-001 
1.041183e-001 
9.501147e-002 
8.678165e-002 
8.121487e-002 
7.601259e-002 
7.099063e-002 
6.684261e-002 
6.311034e-002 
6.088456e-002 
5.792039e-002 
5.351488e-002 
5.276945e-002 
5.125488e-002 
4.863142e-002 
4.761968e-002 
4.768647e-002 
4.887712e-002 
5.164450e-002 
5.181037e-002 
4.904404e-002 
4.436470e-002 
3.657211e-002 
2.923757e-002 
2.563642e-002 
2.515981e-002 
2.723631e-002 
3.012162e-002 
3.157720e-002 
3.256041e-002 
3.298210e-002 
3.311040e-002 
3.526181e-002 
3.968999e-002 
4.214421e-002 
4.107618e-002 
3.653419e-002 
2.767516e-002 
1.269474e-002 
-1.147327e-002 
-4.276588e-002 
-8.015061e-002 
-1.272763e-001 
-1.876343e-001 
-2.600134e-001 
-3.424199e-001 
-4.322178e-001 
-5.280453e-001 
-6.228809e-001 
-7.051986e-001 
-7.736955e-001 
-8.281774e-001 
-8.678536e-001 
-8.934679e-001 
-9.069651e-001 
-9.111498e-001 
-9.045443e-001 
-8.796581e-001 
-8.350046e-001 
-7.748135e-001 
-7.010569e-001 
-6.175577e-001 
-5.286066e-001 
-4.392917e-001 
-3.505160e-001 
-2.604304e-001 
-1.702374e-001 
-8.599003e-002 
-1.206970e-002 
4.964311e-002 
9.717255e-002 
1.315146e-001 
1.549680e-001 
1.737336e-001 
1.917977e-001 
2.103051e-001 
2.295588e-001 
2.492942e-001 
2.642856e-001 
2.738661e-001 
2.784572e-001 
2.780298e-001 
2.747592e-001 
2.725325e-001 
2.732872e-001 
2.779595e-001 
2.826308e-001 
2.851021e-001 
2.884874e-001 
2.914838e-001 
2.934392e-001 
2.939511e-001 
2.944868e-001 
2.930793e-001 
2.906168e-001 
2.883581e-001 
2.889102e-001 
2.919388e-001 
2.969625e-001 
3.010446e-001 
3.038083e-001 
3.062889e-001 
3.058401e-001 
3.053385e-001 
3.060750e-001 
3.055982e-001 
3.026116e-001 
2.975302e-001 
2.912670e-001 
2.881770e-001 
2.868243e-001 
2.873409e-001 
2.925790e-001 
3.003928e-001 
3.072627e-001 
3.122105e-001 
3.156768e-001 
3.184720e-001 
3.198683e-001 
3.200965e-001 
3.230551e-001 
3.290511e-001 
3.378242e-001 
3.470352e-001 
3.552922e-001 
3.621542e-001 
3.677660e-001 
3.736309e-001 
3.800501e-001 
3.858938e-001 
3.910154e-001 
3.946001e-001 
3.963331e-001 
3.987716e-001 
4.021178e-001 
4.082214e-001 
4.158552e-001 
4.219904e-001 
4.263083e-001 
4.280812e-001 
4.278181e-001 
4.285990e-001 
4.292637e-001 
4.263327e-001 
4.200558e-001 
4.098793e-001 
3.959755e-001 
3.820050e-001 
3.706569e-001 
3.615381e-001 
3.510681e-001 
3.367374e-001 
3.168074e-001 
2.942399e-001 
2.710674e-001 
2.498779e-001 
2.340184e-001 
2.219825e-001 
2.097138e-001 
1.970144e-001 
1.866174e-001 
1.767246e-001 
1.686006e-001 
1.629649e-001 
1.589357e-001 
1.548088e-001 
1.495561e-001 
1.415929e-001 
1.345537e-001 
1.296564e-001 
1.261521e-001 
1.259782e-001 
1.276906e-001 
1.295171e-001 
1.308707e-001 
1.278496e-001 
1.219429e-001 
1.148843e-001 
1.064139e-001 
1.018060e-001 
1.006175e-001 
1.000923e-001 
1.013381e-001 
1.019125e-001 
1.009397e-001 
1.026901e-001 
1.030964e-001 
1.034462e-001 
1.073789e-001 
1.106340e-001 
1.114806e-001 
1.106408e-001 
1.083041e-001 
1.079928e-001 
1.095248e-001 
1.102620e-001 
1.137163e-001 
1.205119e-001 
1.260404e-001 
1.280942e-001 
1.274991e-001 
1.270716e-001 
1.273886e-001 
1.263931e-001 
1.256025e-001 
1.278058e-001 
1.325418e-001 
1.367301e-001 
1.393636e-001 
1.415441e-001 
1.442363e-001 
1.447993e-001 
1.433900e-001 
1.422482e-001 
1.423188e-001 
1.432308e-001 
1.425769e-001 
1.425320e-001 
1.431821e-001 
1.434995e-001 
1.428496e-001 
1.416030e-001 
1.400593e-001 
1.390710e-001 
1.374559e-001 
1.342509e-001 
1.325245e-001 
1.309376e-001 
1.296014e-001 
1.279522e-001 
1.277198e-001 
1.313145e-001 
1.363813e-001 
1.375626e-001 
1.364395e-001 
1.353113e-001 
1.326168e-001 
1.291024e-001 
1.264140e-001 
1.285073e-001 
1.314893e-001 
1.307947e-001 
1.288664e-001 
1.287905e-001 
1.315186e-001 
1.358164e-001 
1.392625e-001 
1.440933e-001 
1.469093e-001 
1.442206e-001 
1.410380e-001 
1.394309e-001 
1.419905e-001 
1.506137e-001 
1.599193e-001 
1.709568e-001 
1.844467e-001 
1.943633e-001 
2.018420e-001 
2.068342e-001 
2.113856e-001 
2.173039e-001 
2.216736e-001 
2.245553e-001 
2.291924e-001 
2.334861e-001 
2.352593e-001 
2.366062e-001 
2.380116e-001 
2.379834e-001 
2.343028e-001 
2.289924e-001 
2.216825e-001 
2.138042e-001 
2.064840e-001 
1.989797e-001 
1.933955e-001 
1.861961e-001 
1.783176e-001 
1.746960e-001 
1.728097e-001 
1.714672e-001 
1.733617e-001 
1.742168e-001 
1.720693e-001 
1.690325e-001 
1.655759e-001 
1.651851e-001 
1.661658e-001 
1.672942e-001 
1.709687e-001 
1.739845e-001 
1.746101e-001 
1.763297e-001 
1.796516e-001 
1.819592e-001 
1.825466e-001 
1.807145e-001 
1.787398e-001 
1.772403e-001 
1.751711e-001 
1.760984e-001 
1.801423e-001 
1.831372e-001 
1.840168e-001 
1.796234e-001 
1.659059e-001 
1.438202e-001 
1.126856e-001 
7.297111e-002 
2.499169e-002 
-3.253841e-002 
-1.005774e-001 
-1.775067e-001 
-2.623317e-001 
-3.460076e-001 
-4.176465e-001 
-4.734420e-001 
-5.154662e-001 
-5.478641e-001 
-5.733595e-001 
-5.966815e-001 
-6.158153e-001 
-6.235366e-001 
-6.090725e-001 
-5.718908e-001 
-5.205354e-001 
-4.592657e-001 
-3.905835e-001 
-3.191686e-001 
-2.467308e-001 
-1.705489e-001 
-9.111084e-002 
-1.275245e-002 
5.502284e-002 
1.092894e-001 
1.536372e-001 
1.868742e-001 
2.109244e-001 
2.315063e-001 
2.504925e-001 
2.662234e-001 
2.794613e-001 
2.905855e-001 
2.991853e-001 
3.055099e-001 
3.075421e-001 
3.072326e-001 
3.062885e-001 
3.049300e-001 
3.050282e-001 
3.087829e-001 
3.171384e-001 
3.267296e-001 
3.333274e-001 
3.366242e-001 
3.368021e-001 
3.343260e-001 
3.315681e-001 
3.294946e-001 
3.308777e-001 
3.369056e-001 
3.415825e-001 
3.465355e-001 
3.527441e-001 
3.563438e-001 
3.587371e-001 
3.589945e-001 
3.585094e-001 
3.577813e-001 
3.553046e-001 
3.521584e-001 
3.500326e-001 
3.475338e-001 
3.461745e-001 
3.450882e-001 
3.463651e-001 
3.508854e-001 
3.552390e-001 
3.594142e-001 
3.615116e-001 
3.622999e-001 
3.642266e-001 
3.654757e-001 
3.681112e-001 
3.744627e-001 
3.803702e-001 
3.875521e-001 
3.956084e-001 
4.029775e-001 
4.101166e-001 
4.152900e-001 
4.170405e-001 
4.186728e-001 
4.198613e-001 
4.205566e-001 
4.229023e-001 
4.243834e-001 
4.251482e-001 
4.257801e-001 
4.267864e-001 
4.285249e-001 
4.305007e-001 
4.323819e-001 
4.321308e-001 
4.293940e-001 
4.234512e-001 
4.163865e-001 
4.099775e-001 
4.074940e-001 
4.071882e-001 
4.061363e-001 
4.043983e-001 
4.000122e-001 
3.922722e-001 
3.807259e-001 
3.690942e-001 
3.572752e-001 
3.476664e-001 
3.375846e-001 
3.251450e-001 
3.128655e-001 
3.011631e-001 
2.879811e-001 
2.766695e-001 
2.688762e-001 
2.607451e-001 
2.534239e-001 
2.446038e-001 
2.336027e-001 
2.231619e-001 
2.129799e-001 
2.040297e-001 
1.983733e-001 
1.947360e-001 
1.916846e-001 
1.913595e-001 
1.915103e-001 
1.888936e-001 
1.842241e-001 
1.801104e-001 
1.765594e-001 
1.743357e-001 
1.736034e-001 
1.728488e-001 
1.748538e-001 
1.752708e-001 
1.738164e-001 
1.732337e-001 
1.728763e-001 
1.706715e-001 
1.687558e-001 
1.640771e-001 
1.587967e-001 
1.550515e-001 
1.496082e-001 
1.472531e-001 
1.475452e-001 
1.468789e-001 
1.464827e-001 
1.476031e-001 
1.464653e-001 
1.452943e-001 
1.448085e-001 
1.439976e-001 
1.446745e-001 
1.448549e-001 
1.438567e-001 
1.442529e-001 
1.459785e-001 
1.461805e-001 
1.475233e-001 
1.513332e-001 
1.539316e-001 
1.555422e-001 
1.547053e-001 
1.506516e-001 
1.459519e-001 
1.427824e-001 
1.389816e-001 
1.372614e-001 
1.380790e-001 
1.381578e-001 
1.376022e-001 
1.363765e-001 
1.347568e-001 
1.349013e-001 
1.358156e-001 
1.343711e-001 
1.333291e-001 
1.336311e-001 
1.328426e-001 
1.313154e-001 
1.314263e-001 
1.325157e-001 
1.353298e-001 
1.377184e-001 
1.389881e-001 
1.413283e-001 
1.443735e-001 
1.436003e-001 
1.410828e-001 
1.395020e-001 
1.368246e-001 
1.325186e-001 
1.296329e-001 
1.280498e-001 
1.281111e-001 
1.286309e-001 
1.273795e-001 
1.280109e-001 
1.280154e-001 
1.255426e-001 
1.246084e-001 
1.285421e-001 
1.335749e-001 
1.407928e-001 
1.498686e-001 
1.588658e-001 
1.681806e-001 
1.762002e-001 
1.848791e-001 
1.948313e-001 
2.039555e-001 
2.099565e-001 
2.143968e-001 
2.150477e-001 
2.126191e-001 
2.098970e-001 
2.068708e-001 
2.043854e-001 
2.018644e-001 
1.994633e-001 
1.958523e-001 
1.901404e-001 
1.819729e-001 
1.734360e-001 
1.630688e-001 
1.522723e-001 
1.438337e-001 
1.378358e-001 
1.324293e-001 
1.282872e-001 
1.253662e-001 
1.242237e-001 
1.224139e-001 
1.188483e-001 
1.159473e-001 
1.134751e-001 
1.095008e-001 
1.045950e-001 
1.016049e-001 
9.859876e-002 
9.494995e-002 
9.148243e-002 
8.916986e-002 
9.035633e-002 
9.487148e-002 
9.812535e-002 
9.915303e-002 
9.760440e-002 
9.237667e-002 
8.605250e-002 
8.436104e-002 
8.631165e-002 
9.296059e-002 
9.895000e-002 
9.995610e-002 
9.805228e-002 
9.274087e-002 
8.249981e-002 
6.934936e-002 
5.191558e-002 
2.423685e-002 
-1.381770e-002 
-6.363904e-002 
-1.215289e-001 
-1.860053e-001 
-2.571017e-001 
-3.303313e-001 
-4.006123e-001 
-4.640990e-001 
-5.163234e-001 
-5.562417e-001 
-5.861367e-001 
-6.091448e-001 
-6.285471e-001 
-6.423994e-001 
-6.427157e-001 
-6.238613e-001 
-5.847926e-001 
-5.309100e-001 
-4.711181e-001 
-4.104554e-001 
-3.505065e-001 
-2.896119e-001 
-2.242685e-001 
-1.514648e-001 
-7.846004e-002 
-1.319177e-002 
3.700805e-002 
7.080156e-002 
9.207723e-002 
1.074084e-001 
1.227184e-001 
1.390414e-001 
1.552884e-001 
1.696236e-001 
1.792214e-001 
1.839094e-001 
1.878664e-001 
1.917667e-001 
1.964101e-001 
2.016241e-001 
2.055029e-001 
2.109068e-001 
2.159977e-001 
2.178937e-001 
2.220316e-001 
2.273680e-001 
2.309568e-001 
2.333994e-001 
2.350822e-001 
2.359711e-001 
2.368994e-001 
2.361958e-001 
2.385899e-001 
2.441055e-001 
2.476538e-001 
2.494137e-001 
2.491608e-001 
2.471342e-001 
2.450255e-001 
2.431105e-001 
2.433227e-001 
2.450650e-001 
2.455900e-001 
2.453365e-001 
2.454978e-001 
2.455437e-001 
2.476817e-001 
2.506295e-001 
2.534530e-001 
2.565817e-001 
2.564621e-001 
2.563449e-001 
2.574780e-001 
2.601227e-001 
2.642366e-001 
2.708400e-001 
2.774220e-001 
2.862954e-001 
2.951884e-001 
3.016007e-001 
3.087495e-001 
3.147748e-001 
3.182450e-001 
3.213176e-001 
3.259592e-001 
3.321333e-001 
3.419334e-001 
3.515192e-001 
3.609318e-001 
3.698479e-001 
3.762298e-001 
3.806486e-001 
3.836220e-001 
3.849420e-001 
3.854127e-001 
3.846509e-001 
3.825361e-001 
3.796351e-001 
3.750752e-001 
3.722222e-001 
3.689800e-001 
3.650175e-001 
3.620626e-001 
3.575538e-001 
3.504422e-001 
3.399076e-001 
3.242789e-001 
3.078782e-001 
2.934782e-001 
2.788314e-001 
2.669206e-001 
2.571565e-001 
2.459229e-001 
2.343104e-001 
2.213187e-001 
2.085896e-001 
1.988582e-001 
1.906079e-001 
1.801559e-001 
1.674051e-001 
1.530728e-001 
1.390536e-001 
1.294058e-001 
1.238677e-001 
1.216864e-001 
1.217189e-001 
1.216685e-001 
1.171301e-001 
1.119710e-001 
1.068203e-001 
1.017494e-001 
9.898736e-002 
9.551167e-002 
9.083845e-002 
8.821154e-002 
8.668744e-002 
8.527690e-002 
8.539580e-002 
8.502014e-002 
8.743644e-002 
9.189183e-002 
9.473965e-002 
9.606999e-002 
9.695912e-002 
9.477218e-002 
8.889178e-002 
8.277625e-002 
8.128516e-002 
8.433759e-002 
8.827560e-002 
9.182081e-002 
9.229303e-002 
9.089041e-002 
8.804619e-002 
8.481344e-002 
8.549530e-002 
8.976204e-002 
9.035558e-002 
8.761148e-002 
8.344534e-002 
7.769684e-002 
7.344517e-002 
7.174557e-002 
7.233447e-002 
7.732487e-002 
8.083486e-002 
7.922545e-002 
7.819850e-002 
7.686326e-002 
7.281595e-002 
6.764220e-002 
6.374199e-002 
6.173201e-002 
6.078729e-002 
5.896301e-002 
5.915557e-002 
6.118633e-002 
6.167546e-002 
5.927606e-002 
5.717728e-002 
5.733015e-002 
5.671313e-002 
5.698702e-002 
5.845096e-002 
5.925955e-002 
5.899373e-002 
5.813103e-002 
5.678471e-002 
5.902867e-002 
6.288595e-002 
6.564917e-002 
6.741609e-002 
6.395337e-002 
5.772338e-002 
5.114958e-002 
4.555946e-002 
4.354533e-002 
4.643619e-002 
5.018824e-002 
5.249251e-002 
5.123344e-002 
4.833349e-002 
4.571516e-002 
4.051182e-002 
3.506532e-002 
3.188915e-002 
2.988616e-002 
2.867952e-002 
2.935089e-002 
3.359331e-002 
4.233422e-002 
5.005667e-002 
5.502788e-002 
6.127204e-002 
6.712937e-002 
7.113961e-002 
7.515199e-002 
7.903464e-002 
8.427233e-002 
8.956743e-002 
9.394493e-002 
9.988438e-002 
1.066263e-001 
1.100657e-001 
1.100792e-001 
1.075781e-001 
1.027606e-001 
9.812450e-002 
9.245028e-002 
8.561282e-002 
7.908475e-002 
7.092519e-002 
6.234613e-002 
5.601120e-002 
5.176242e-002 
4.987298e-002 
4.741175e-002 
4.152860e-002 
3.334630e-002 
2.455099e-002 
1.643497e-002 
1.285733e-002 
1.204043e-002 
1.372092e-002 
1.480513e-002 
1.284981e-002 
1.089359e-002 
7.543115e-003 
2.965250e-003 
-1.209077e-003 
-5.749217e-003 
-1.202147e-002 
-1.646001e-002 
-2.199652e-002 
-2.693890e-002 
-2.990356e-002 
-3.412561e-002 
-3.680506e-002 
-3.615395e-002 
-3.415139e-002 
-2.952532e-002 
-2.327600e-002 
-2.056864e-002 
-2.051059e-002 
-2.398839e-002 
-3.329273e-002 
-4.514856e-002 
-5.902277e-002 
-7.831015e-002 
-1.040528e-001 
-1.404089e-001 
-1.895294e-001 
-2.511997e-001 
-3.257892e-001 
-4.087950e-001 
-4.937552e-001 
-5.781663e-001 
-6.543833e-001 
-7.171368e-001 
-7.669056e-001 
-8.061239e-001 
-8.367329e-001 
-8.570679e-001 
-8.656195e-001 
-8.604276e-001 
-8.364804e-001 
-7.929133e-001 
-7.371252e-001 
-6.736134e-001 
-6.075693e-001 
-5.370718e-001 
-4.603194e-001 
-3.768751e-001 
-2.848062e-001 
-1.908611e-001 
-1.082779e-001 
-4.169480e-002 
8.683801e-003 
4.259470e-002 
6.978836e-002 
9.265014e-002 
1.139577e-001 
1.360694e-001 
1.537437e-001 
1.676512e-001 
1.816861e-001 
1.933485e-001 
2.028687e-001 
2.124480e-001 
2.156622e-001 
2.143308e-001 
2.124191e-001 
2.081663e-001 
2.056131e-001 
2.038772e-001 
2.010545e-001 
2.006294e-001 
2.002519e-001 
1.967213e-001 
1.955790e-001 
1.972275e-001 
1.971234e-001 
1.974546e-001 
1.972697e-001 
1.980260e-001 
2.004631e-001 
2.036841e-001 
2.088987e-001 
2.162127e-001 
2.232352e-001 
2.278991e-001 
2.322122e-001 
2.339251e-001 
2.340378e-001 
2.341979e-001 
2.348268e-001 
2.338744e-001 
2.322780e-001 
2.325958e-001 
2.333465e-001 
2.347643e-001 
2.372878e-001 
2.429135e-001 
2.488891e-001 
2.541063e-001 
2.572416e-001 
2.602341e-001 
2.632950e-001 
2.655759e-001 
2.676192e-001 
2.711199e-001 
2.766015e-001 
2.844616e-001 
2.940011e-001 
3.017936e-001 
3.086281e-001 
3.148488e-001 
3.191718e-001 
3.204139e-001 
3.216722e-001 
3.243350e-001 
3.282393e-001 
3.312345e-001 
3.320709e-001 
3.337955e-001 
3.383572e-001 
3.423632e-001 
3.454200e-001 
3.479264e-001 
3.486285e-001 
3.465388e-001 
3.404926e-001 
3.304908e-001 
3.216183e-001 
3.131353e-001 
3.028766e-001 
2.933180e-001 
2.830725e-001 
2.748060e-001 
2.678697e-001 
2.581249e-001 
2.458751e-001 
2.326530e-001 
2.164351e-001 
1.992109e-001 
1.833264e-001 
1.707207e-001 
1.642926e-001 
1.581055e-001 
1.491834e-001 
1.400761e-001 
1.297386e-001 
1.182753e-001 
1.081497e-001 
1.019449e-001 
9.697144e-002 
9.347177e-002 
8.739274e-002 
8.053148e-002 
7.620070e-002 
7.333919e-002 
7.314212e-002 
7.700774e-002 
8.232045e-002 
8.574461e-002 
8.970576e-002 
8.787135e-002 
8.381603e-002 
7.907930e-002 
7.400475e-002 
7.310919e-002 
7.642070e-002 
8.048109e-002 
8.780207e-002 
9.449359e-002 
9.698745e-002 
9.740581e-002 
9.455544e-002 
9.243388e-002 
9.115655e-002 
8.958720e-002 
8.878814e-002 
8.896869e-002 
8.708520e-002 
8.585825e-002 
8.382452e-002 
8.370036e-002 
8.557418e-002 
8.714850e-002 
8.973016e-002 
9.002361e-002 
8.646331e-002 
8.012367e-002 
7.282011e-002 
6.484503e-002 
6.008200e-002 
5.773247e-002 
5.976420e-002 
6.408708e-002 
6.656969e-002 
6.724272e-002 
6.712177e-002 
6.752541e-002 
6.666380e-002 
6.583068e-002 
6.608945e-002 
6.682554e-002 
6.708722e-002 
6.517608e-002 
6.314261e-002 
6.353004e-002 
6.224287e-002 
6.131310e-002 
6.248020e-002 
6.359234e-002 
6.437208e-002 
6.354144e-002 
5.930374e-002 
5.617086e-002 
5.213155e-002 
4.757922e-002 
4.944876e-002 
5.217598e-002 
5.499724e-002 
5.828520e-002 
5.949407e-002 
5.763017e-002 
5.537843e-002 
5.220547e-002 
5.196360e-002 
5.460652e-002 
5.539982e-002 
5.627165e-002 
5.623149e-002 
5.487572e-002 
5.108503e-002 
4.973614e-002 
5.128567e-002 
5.443063e-002 
5.795220e-002 
5.992528e-002 
6.157353e-002 
6.397619e-002 
6.717586e-002 
7.184497e-002 
8.089666e-002 
9.141198e-002 
1.005094e-001 
1.059362e-001 
1.085420e-001 
1.105773e-001 
1.119747e-001 
1.134012e-001 
1.157494e-001 
1.184075e-001 
1.196410e-001 
1.191587e-001 
1.168676e-001 
1.152633e-001 
1.131140e-001 
1.099306e-001 
1.067226e-001 
1.018135e-001 
9.509254e-002 
8.849408e-002 
8.136164e-002 
7.391358e-002 
6.868925e-002 
6.422531e-002 
6.283041e-002 
6.261402e-002 
6.147621e-002 
6.061392e-002 
5.699568e-002 
4.859774e-002 
4.111136e-002 
3.639697e-002 
3.392641e-002 
3.520700e-002 
3.547436e-002 
3.607808e-002 
3.601166e-002 
3.341374e-002 
3.322029e-002 
3.736192e-002 
4.181471e-002 
4.525157e-002 
4.544053e-002 
4.361258e-002 
4.309052e-002 
4.310510e-002 
4.621890e-002 
5.090980e-002 
5.353729e-002 
5.323051e-002 
4.647428e-002 
3.175976e-002 
1.341548e-002 
-1.220078e-002 
-4.672157e-002 
-8.936257e-002 
-1.415294e-001 
-2.007728e-001 
-2.668411e-001 
-3.434244e-001 
-4.224798e-001 
-4.964245e-001 
-5.661739e-001 
-6.241419e-001 
-6.653442e-001 
-6.933024e-001 
-7.132585e-001 
-7.308735e-001 
-7.466108e-001 
-7.506376e-001 
-7.367029e-001 
-7.048920e-001 
-6.533888e-001 
-5.875384e-001 
-5.177182e-001 
-4.509360e-001 
-3.867140e-001 
-3.209643e-001 
-2.488348e-001 
-1.738543e-001 
-1.056872e-001 
-4.822585e-002 
-3.954343e-003 
2.583246e-002 
4.312335e-002 
5.928903e-002 
7.888071e-002 
9.957010e-002 
1.189096e-001 
1.332566e-001 
1.425486e-001 
1.500883e-001 
1.530239e-001 
1.528977e-001 
1.560090e-001 
1.575817e-001 
1.574503e-001 
1.594044e-001 
1.612559e-001 
1.670316e-001 
1.743318e-001 
1.770523e-001 
1.797279e-001 
1.820809e-001 
1.795189e-001 
1.763547e-001 
1.755472e-001 
1.761633e-001 
1.798162e-001 
1.838349e-001 
1.890782e-001 
1.943760e-001 
1.949819e-001 
1.912079e-001 
1.875356e-001 
1.839733e-001 
1.827390e-001 
1.859475e-001 
1.927127e-001 
1.981844e-001 
1.999049e-001 
1.999172e-001 
1.997435e-001 
2.002501e-001 
2.030596e-001 
2.100272e-001 
2.148880e-001 
2.162454e-001 
2.136335e-001 
2.107720e-001 
2.101499e-001 
2.116267e-001 
2.175384e-001 
2.294730e-001 
2.435291e-001 
2.550373e-001 
2.643207e-001 
2.697419e-001 
2.740226e-001 
2.766675e-001 
2.785797e-001 
2.842127e-001 
2.917141e-001 
2.985236e-001 
3.059934e-001 
3.128807e-001 
3.194201e-001 
3.270603e-001 
3.318578e-001 
3.359678e-001 
3.395437e-001 
3.385863e-001 
3.376940e-001 
3.372663e-001 
3.337151e-001 
3.288862e-001 
3.231212e-001 
3.167746e-001 
3.119352e-001 
3.079010e-001 
3.056425e-001 
3.043846e-001 
2.986995e-001 
2.877153e-001 
2.750320e-001 
2.626693e-001 
2.522956e-001 
2.432474e-001 
2.341125e-001 
2.241037e-001 
2.111934e-001 
1.971206e-001 
1.836732e-001 
1.712535e-001 
1.599224e-001 
1.500073e-001 
1.385264e-001 
1.255979e-001 
1.135006e-001 
1.023871e-001 
9.423263e-002 
8.805553e-002 
8.231301e-002 
7.677431e-002 
7.224530e-002 
6.627310e-002 
6.155191e-002 
5.740271e-002 
5.320721e-002 
5.205509e-002 
5.277277e-002 
5.484741e-002 
5.807063e-002 
6.314816e-002 
6.581357e-002 
6.601078e-002 
6.234003e-002 
5.766304e-002 
5.464046e-002 
5.232995e-002 
4.993429e-002 
4.790985e-002 
4.825784e-002 
4.795555e-002 
4.713742e-002 
4.552323e-002 
4.646145e-002 
4.960320e-002 
5.170347e-002 
5.096575e-002 
5.044568e-002 
4.924702e-002 
4.694911e-002 
4.419861e-002 
4.272659e-002 
4.604398e-002 
5.044563e-002 
5.385176e-002 
5.634001e-002 
5.590818e-002 
5.267059e-002 
4.928708e-002 
4.348274e-002 
3.963700e-002 
3.684340e-002 
3.412422e-002 
3.262203e-002 
3.006221e-002 
2.822128e-002 
2.986780e-002 
3.105178e-002 
3.056814e-002 
2.913864e-002 
2.597031e-002 
2.342669e-002 
1.959006e-002 
1.577255e-002 
1.336875e-002 
1.151548e-002 
1.111685e-002 
1.286760e-002 
1.646965e-002 
2.100490e-002 
2.196312e-002 
2.054009e-002 
1.707983e-002 
1.128491e-002 
7.565440e-003 
5.977090e-003 
4.297828e-003 
3.233895e-003 
1.184209e-003 
-1.084954e-003 
4.517425e-004 
2.888486e-003 
5.583720e-003 
8.308968e-003 
6.149319e-003 
8.738837e-004 
-3.524950e-003 
-7.632213e-003 
-8.510111e-003 
-6.022573e-003 
-3.768670e-003 
-1.411073e-003 
9.950842e-004 
4.019435e-003 
1.037515e-002 
1.812801e-002 
2.542804e-002 
3.161711e-002 
3.500860e-002 
3.758827e-002 
4.008527e-002 
4.528624e-002 
5.405702e-002 
6.333307e-002 
7.381625e-002 
8.405291e-002 
9.069005e-002 
9.367680e-002 
9.312517e-002 
8.985835e-002 
8.686985e-002 
8.223017e-002 
7.728660e-002 
7.607119e-002 
7.436874e-002 
7.013330e-002 
6.338593e-002 
5.642316e-002 
4.975845e-002 
4.365320e-002 
4.003329e-002 
3.766330e-002 
3.456147e-002 
2.795065e-002 
1.732501e-002 
6.536195e-003 
-1.740875e-003 
-7.638305e-003 
-7.969540e-003 
-6.424106e-003 
-8.943856e-003 
-1.395011e-002 
-2.196814e-002 
-3.149805e-002 
-3.783004e-002 
-4.194926e-002 
-4.299687e-002 
-4.186458e-002 
-4.217242e-002 
-4.328794e-002 
-4.303010e-002 
-4.088059e-002 
-3.525958e-002 
-2.705969e-002 
-2.023506e-002 
-1.555134e-002 
-1.396571e-002 
-1.678885e-002 
-2.447154e-002 
-3.747167e-002 
-5.727404e-002 
-8.478198e-002 
-1.211181e-001 
-1.696339e-001 
-2.272630e-001 
-2.936774e-001 
-3.704961e-001 
-4.538932e-001 
-5.402941e-001 
-6.252501e-001 
-7.014450e-001 
-7.656540e-001 
-8.172298e-001 
-8.546328e-001 
-8.840039e-001 
-9.046260e-001 
-9.126459e-001 
-9.071178e-001 
-8.854305e-001 
-8.439006e-001 
-7.854955e-001 
-7.170169e-001 
-6.431689e-001 
-5.671280e-001 
-4.869985e-001 
-4.046995e-001 
-3.217862e-001 
-2.399738e-001 
-1.629616e-001 
-9.801333e-002 
-4.841329e-002 
-1.221327e-002 
1.243188e-002 
3.154574e-002 
5.059040e-002 
7.098593e-002 
9.111409e-002 
1.093768e-001 
1.236592e-001 
1.335418e-001 
1.381453e-001 
1.384173e-001 
1.393961e-001 
1.409128e-001 
1.417057e-001 
1.432264e-001 
1.453007e-001 
1.474897e-001 
1.485308e-001 
1.495698e-001 
1.519322e-001 
1.554700e-001 
1.583263e-001 
1.613773e-001 
1.634696e-001 
1.627027e-001 
1.597363e-001 
1.558142e-001 
1.534680e-001 
1.523376e-001 
1.535363e-001 
1.587129e-001 
1.662901e-001 
1.730700e-001 
1.796716e-001 
1.867188e-001 
1.922891e-001 
1.953058e-001 
1.964891e-001 
1.978599e-001 
1.995535e-001 
1.975453e-001 
1.958008e-001 
1.973558e-001 
2.003061e-001 
2.037425e-001 
2.088059e-001 
2.156918e-001 
2.220064e-001 
2.261501e-001 
2.279027e-001 
2.325216e-001 
2.360042e-001 
2.380926e-001 
2.409846e-001 
2.457316e-001 
2.531160e-001 
2.618124e-001 
2.736858e-001 
2.867113e-001 
2.967462e-001 
3.017763e-001 
3.063850e-001 
3.095336e-001 
3.130261e-001 
3.169937e-001 
3.211753e-001 
3.279212e-001 
3.298575e-001 
3.264242e-001 
3.234601e-001 
3.214418e-001 
3.181194e-001 
3.127077e-001 
3.040979e-001 
2.940227e-001 
2.805968e-001 
2.608530e-001 
2.399827e-001 
2.211011e-001 
2.026716e-001 
1.839622e-001 
1.658576e-001 
1.479131e-001 
1.292613e-001 
1.084368e-001 
8.660171e-002 
6.522331e-002 
4.578687e-002 
2.891016e-002 
1.746815e-002 
1.046385e-002 
4.567145e-003 
2.226130e-004 
-4.038051e-003 
-9.506390e-003 
-1.649786e-002 
-1.898854e-002 
-1.745754e-002 
-1.444745e-002 
-1.380968e-002 
-1.514178e-002 
-1.624956e-002 
-1.788138e-002 
-2.191078e-002 
-2.350058e-002 
-1.940861e-002 
-1.859795e-002 
-2.137942e-002 
-2.503023e-002 
-2.859107e-002 
-3.247883e-002 
-3.678198e-002 
-4.145672e-002 
-4.317712e-002 
-4.319679e-002 
-4.474754e-002 
-4.439727e-002 
-4.205733e-002 
-4.134994e-002 
-4.185845e-002 
-4.340202e-002 
-4.731728e-002 
-5.112912e-002 
-5.376849e-002 
-5.567346e-002 
-5.501176e-002 
-5.375545e-002 
-5.233550e-002 
-5.016819e-002 
-4.863096e-002 
-4.726397e-002 
-4.709029e-002 
-4.658945e-002 
-4.370364e-002 
-4.142926e-002 
-4.172396e-002 
-4.289349e-002 
-4.441090e-002 
-4.475119e-002 
-4.336065e-002 
-4.107177e-002 
-3.677340e-002 
-3.351018e-002 
-3.490776e-002 
-3.866081e-002 
-4.320910e-002 
-4.813659e-002 
-5.067057e-002 
-5.088221e-002 
-5.201737e-002 
-5.491759e-002 
-5.817871e-002 
-6.151330e-002 
-6.417327e-002 
-6.599170e-002 
-6.727017e-002 
-6.646061e-002 
-6.722147e-002 
-7.107479e-002 
-7.573443e-002 
-7.881506e-002 
-7.997230e-002 
-7.837394e-002 
-7.559035e-002 
-7.325953e-002 
-7.041009e-002 
-6.981884e-002 
-7.103907e-002 
-7.407893e-002 
-7.578011e-002 
-7.435423e-002 
-7.283283e-002 
-7.241101e-002 
-7.132756e-002 
-6.881900e-002 
-6.603072e-002 
-6.288979e-002 
-5.980801e-002 
-5.332588e-002 
-4.668573e-002 
-4.315485e-002 
-4.015992e-002 
-3.637314e-002 
-3.076199e-002 
-2.534689e-002 
-2.064329e-002 
-1.505938e-002 
-7.747025e-003 
-8.035021e-004 
5.675977e-003 
1.216216e-002 
1.940619e-002 
2.450128e-002 
2.471318e-002 
2.287530e-002 
2.016252e-002 
1.853822e-002 
1.772069e-002 
1.702520e-002 
1.704462e-002 
1.687037e-002 
1.313684e-002 
8.222774e-003 
4.519466e-003 
8.080904e-004 
-2.753357e-003 
-7.680238e-003 
-1.378014e-002 
-2.198356e-002 
-3.092965e-002 
-3.959800e-002 
-4.434325e-002 
-4.627405e-002 
-4.953156e-002 
-5.329048e-002 
-5.828672e-002 
-6.648472e-002 
-7.613838e-002 
-8.336128e-002 
-8.816317e-002 
-9.106121e-002 
-9.534775e-002 
-1.000804e-001 
-1.018968e-001 
-1.009648e-001 
-9.842313e-002 
-9.483990e-002 
-9.101318e-002 
-8.868505e-002 
-8.851997e-002 
-8.913179e-002 
-8.870558e-002 
-8.651238e-002 
-8.476216e-002 
-8.906498e-002 
-1.009961e-001 
-1.210273e-001 
-1.506837e-001 
-1.885203e-001 
-2.354770e-001 
-2.933208e-001 
-3.610990e-001 
-4.407706e-001 
-5.301598e-001 
-6.226290e-001 
-7.133870e-001 
-7.950256e-001 
-8.623969e-001 
-9.189978e-001 
-9.666911e-001 
-1.005339e+000 
-1.036534e+000 
-1.057947e+000 
-1.065725e+000 
-1.054903e+000 
-1.021465e+000 
-9.692735e-001 
-9.055718e-001 
-8.316416e-001 
-7.507374e-001 
-6.679616e-001 
-5.842300e-001 
-4.993669e-001 
-4.138290e-001 
-3.321385e-001 
-2.617848e-001 
-2.032229e-001 
-1.547506e-001 
-1.162756e-001 
-8.518328e-002 
-5.681193e-002 
-2.852872e-002 
-7.906646e-004 
2.195873e-002 
3.779292e-002 
4.975672e-002 
5.808869e-002 
6.284663e-002 
6.430661e-002 
6.562547e-002 
6.933964e-002 
7.608486e-002 
8.448942e-002 
9.479147e-002 
1.064850e-001 
1.142139e-001 
1.155300e-001 
1.127589e-001 
1.105526e-001 
1.132952e-001 
1.210170e-001 
1.284796e-001 
1.352222e-001 
1.390529e-001 
1.369647e-001 
1.342456e-001 
1.345233e-001 
1.393573e-001 
1.469744e-001 
1.508285e-001 
1.492130e-001 
1.445188e-001 
1.364426e-001 
1.290176e-001 
1.278306e-001 
1.336300e-001 
1.423037e-001 
1.486961e-001 
1.525425e-001 
1.555983e-001 
1.574744e-001 
1.598773e-001 
1.665172e-001 
1.753006e-001 
1.840991e-001 
1.918593e-001 
1.995690e-001 
2.100948e-001 
2.220573e-001 
2.329942e-001 
2.454597e-001 
2.573417e-001 
2.645712e-001 
2.710112e-001 
2.783415e-001 
2.847579e-001 
2.910574e-001 
2.940846e-001 
2.964226e-001 
3.019987e-001 
3.062119e-001 
3.092736e-001 
3.157027e-001 
3.216671e-001 
3.232020e-001 
3.197592e-001 
3.104599e-001 
3.011901e-001 
2.902249e-001 
2.750989e-001 
2.622719e-001 
2.534403e-001 
2.429558e-001 
2.287906e-001 
2.101877e-001 
1.902751e-001 
1.705535e-001 
1.476435e-001 
1.247510e-001 
1.042580e-001 
8.173316e-002 
5.710040e-002 
3.205306e-002 
9.341071e-003 
-7.383041e-003 
-1.970393e-002 
-2.896701e-002 
-3.595708e-002 
-4.367765e-002 
-5.265587e-002 
-6.173783e-002 
-6.996934e-002 
-7.720483e-002 
-8.232549e-002 
-8.449865e-002 
-8.404468e-002 
-8.326281e-002 
-8.245233e-002 
-7.963898e-002 
-7.765026e-002 
-7.536694e-002 
-7.558038e-002 
-7.751430e-002 
-7.877765e-002 
-8.214092e-002 
-9.057680e-002 
-9.655479e-002 
-9.873945e-002 
-1.008757e-001 
-1.003653e-001 
-1.000300e-001 
-9.857765e-002 
-9.625139e-002 
-9.933463e-002 
-1.047399e-001 
-1.056152e-001 
-1.065743e-001 
-1.071764e-001 
-1.038246e-001 
-9.947461e-002 
-9.443993e-002 
-9.018190e-002 
-8.853468e-002 
-8.528397e-002 
-8.161441e-002 
-7.966185e-002 
-7.750918e-002 
-7.432402e-002 
-7.434153e-002 
-7.578324e-002 
-7.767106e-002 
-8.094365e-002 
-8.309240e-002 
-8.397634e-002 
-8.383960e-002 
-8.153476e-002 
-7.927512e-002 
-8.242259e-002 
-8.649396e-002 
-9.295656e-002 
-1.023568e-001 
-1.099968e-001 
-1.144354e-001 
-1.163829e-001 
-1.144068e-001 
-1.133641e-001 
-1.143346e-001 
-1.136477e-001 
-1.169629e-001 
-1.225576e-001 
-1.252417e-001 
-1.269114e-001 
-1.284065e-001 
-1.282673e-001 
-1.316665e-001 
-1.349844e-001 
-1.384242e-001 
-1.436148e-001 
-1.454899e-001 
-1.441136e-001 
-1.435827e-001 
-1.426498e-001 
-1.430396e-001 
-1.473761e-001 
-1.506751e-001 
-1.541204e-001 
-1.567101e-001 
-1.578766e-001 
-1.587005e-001 
-1.585059e-001 
-1.564377e-001 
-1.544882e-001 
-1.525832e-001 
-1.485535e-001 
-1.460677e-001 
-1.457953e-001 
-1.455483e-001 
-1.447618e-001 
-1.423113e-001 
-1.381775e-001 
-1.330922e-001 
-1.259234e-001 
-1.171266e-001 
-1.095473e-001 
-9.960048e-002 
-8.958203e-002 
-8.197476e-002 
-7.414469e-002 
-6.834863e-002 
-6.394684e-002 
-5.832975e-002 
-5.132972e-002 
-4.257207e-002 
-3.381991e-002 
-2.939405e-002 
-2.849237e-002 
-3.025938e-002 
-3.566460e-002 
-4.154348e-002 
-4.527327e-002 
-4.893079e-002 
-5.418170e-002 
-6.138575e-002 
-7.000666e-002 
-7.873223e-002 
-8.562660e-002 
-9.060889e-002 
-9.421625e-002 
-9.743729e-002 
-1.033123e-001 
-1.123999e-001 
-1.238609e-001 
-1.351435e-001 
-1.455590e-001 
-1.529676e-001 
-1.576358e-001 
-1.605836e-001 
-1.620167e-001 
-1.640312e-001 
-1.696413e-001 
-1.770550e-001 
-1.831662e-001 
-1.891121e-001 
-1.925596e-001 
-1.950031e-001 
-1.972174e-001 
-1.981226e-001 
-1.993598e-001 
-2.002056e-001 
-1.962857e-001 
-1.889735e-001 
-1.814230e-001 
-1.746774e-001 
-1.736664e-001 
-1.787455e-001 
-1.892673e-001 
-2.063161e-001 
-2.269149e-001 
-2.526105e-001 
-2.826577e-001 
-3.163832e-001 
-3.572293e-001 
-4.089086e-001 
-4.691514e-001 
-5.392538e-001 
-6.177973e-001 
-6.982017e-001 
-7.740504e-001 
-8.363600e-001 
-8.857437e-001 
-9.270669e-001 
-9.623045e-001 
-9.909274e-001 
-1.013076e+000 
-1.021040e+000 
-1.008383e+000 
-9.755099e-001 
-9.262694e-001 
-8.711168e-001 
-8.167181e-001 
-7.629175e-001 
-7.063896e-001 
-6.414206e-001 
-5.661862e-001 
-4.855235e-001 
-4.068147e-001 
-3.367515e-001 
-2.827170e-001 
-2.428271e-001 
-2.116736e-001 
-1.844851e-001 
-1.614704e-001 
-1.428692e-001 
-1.267066e-001 
-1.130116e-001 
-1.024482e-001 
-9.460877e-002 
-8.627663e-002 
-7.679771e-002 
-7.047153e-002 
-6.841034e-002 
-6.623772e-002 
-6.562458e-002 
-6.672918e-002 
-6.760067e-002 
-6.806716e-002 
-6.810782e-002 
-6.757885e-002 
-6.645781e-002 
-6.237904e-002 
-5.672710e-002 
-5.170476e-002 
-4.652638e-002 
-4.240238e-002 
-4.097835e-002 
-4.125186e-002 
-4.049228e-002 
-3.881242e-002 
-3.811516e-002 
-3.687272e-002 
-3.266262e-002 
-2.778793e-002 
-2.240076e-002 
-1.535345e-002 
-8.771294e-003 
-3.252824e-003 
-1.572320e-003 
-2.940468e-003 
-2.169806e-003 
9.671403e-006 
1.996480e-004 
2.322690e-003 
6.803645e-003 
1.193945e-002 
1.958699e-002 
2.774002e-002 
3.810756e-002 
4.896650e-002 
5.399917e-002 
5.512424e-002 
5.766852e-002 
6.158716e-002 
6.779658e-002 
7.514423e-002 
8.161354e-002 
8.972328e-002 
9.662389e-002 
1.015195e-001 
1.087762e-001 
1.180440e-001 
1.265582e-001 
1.338510e-001 
1.391037e-001 
1.420635e-001 
1.470091e-001 
1.510885e-001 
1.545508e-001 
1.607715e-001 
1.681278e-001 
1.741193e-001 
1.790216e-001 
1.801848e-001 
1.785209e-001 
1.762500e-001 
1.678144e-001 
1.587968e-001 
1.519107e-001 
1.434998e-001 
1.324908e-001 
1.212510e-001 
1.103442e-001 
1.010762e-001 
8.860830e-002 
7.211354e-002 
5.655387e-002 
3.867738e-002 
1.804898e-002 
-2.528095e-003 
-1.942234e-002 
-3.261769e-002 
-4.457640e-002 
-5.681806e-002 
-6.703292e-002 
-7.526683e-002 
-8.436312e-002 
-9.390789e-002 
-1.035029e-001 
-1.129347e-001 
-1.213054e-001 
-1.290454e-001 
-1.355239e-001 
-1.383939e-001 
-1.401588e-001 
-1.421898e-001 
-1.405300e-001 
-1.394825e-001 
-1.401895e-001 
-1.398454e-001 
-1.425411e-001 
-1.480013e-001 
-1.529858e-001 
-1.596122e-001 
-1.626333e-001 
-1.621294e-001 
-1.625929e-001 
-1.588092e-001 
-1.531917e-001 
-1.513053e-001 
-1.492582e-001 
-1.460475e-001 
-1.451768e-001 
-1.452906e-001 
-1.482007e-001 
-1.502104e-001 
-1.501167e-001 
-1.513177e-001 
-1.512095e-001 
-1.462269e-001 
-1.386715e-001 
-1.336622e-001 
-1.302116e-001 
-1.281494e-001 
-1.283420e-001 
-1.310110e-001 
-1.352528e-001 
-1.392351e-001 
-1.414128e-001 
-1.439205e-001 
-1.463237e-001 
-1.450621e-001 
-1.430379e-001 
-1.402951e-001 
-1.353458e-001 
-1.316366e-001 
-1.302515e-001 
-1.306020e-001 
-1.328188e-001 
-1.349818e-001 
-1.387829e-001 
-1.437419e-001 
-1.448281e-001 
-1.446942e-001 
-1.464150e-001 
-1.458699e-001 
-1.442549e-001 
-1.437000e-001 
-1.455979e-001 
-1.512710e-001 
-1.554968e-001 
-1.581169e-001 
-1.634072e-001 
-1.671468e-001 
-1.674817e-001 
-1.689839e-001 
-1.709946e-001 
-1.730046e-001 
-1.730807e-001 
-1.707513e-001 
-1.702467e-001 
-1.723029e-001 
-1.742514e-001 
-1.764903e-001 
-1.779207e-001 
-1.780841e-001 
-1.767751e-001 
-1.741851e-001 
-1.730895e-001 
-1.735041e-001 
-1.749561e-001 
-1.747367e-001 
-1.731201e-001 
-1.702526e-001 
-1.666142e-001 
-1.621908e-001 
-1.566185e-001 
-1.485156e-001 
-1.380151e-001 
-1.261332e-001 
-1.147847e-001 
-1.075721e-001 
-1.011821e-001 
-9.580017e-002 
-9.214511e-002 
-8.783496e-002 
-8.311519e-002 
-8.058864e-002 
-8.179806e-002 
-8.582658e-002 
-8.935026e-002 
-9.121394e-002 
-9.320684e-002 
-9.492759e-002 
-9.621146e-002 
-9.947439e-002 
-1.086005e-001 
-1.201933e-001 
-1.280254e-001 
-1.346419e-001 
-1.393646e-001 
-1.395553e-001 
-1.390668e-001 
-1.384631e-001 
-1.410134e-001 
-1.468871e-001 
-1.509463e-001 
-1.556531e-001 
-1.622670e-001 
-1.658495e-001 
-1.688060e-001 
-1.739853e-001 
-1.784387e-001 
-1.840890e-001 
-1.887118e-001 
-1.931555e-001 
-1.967826e-001 
-1.964790e-001 
-1.940642e-001 
-1.919212e-001 
-1.895845e-001 
-1.882562e-001 
-1.885491e-001 
-1.894209e-001 
-1.918705e-001 
-1.924686e-001 
-1.944464e-001 
-2.007132e-001 
-2.132823e-001 
-2.363195e-001 
-2.709227e-001 
-3.155107e-001 
-3.732871e-001 
-4.414904e-001 
-5.172031e-001 
-6.018769e-001 
-6.901343e-001 
-7.786427e-001 
-8.615756e-001 
-9.320445e-001 
-9.897866e-001 
-1.036561e+000 
-1.070106e+000 
-1.095447e+000 
-1.112081e+000 
-1.115290e+000 
-1.101022e+000 
-1.066941e+000 
-1.014412e+000 
-9.473125e-001 
-8.731079e-001 
-7.947410e-001 
-7.142965e-001 
-6.298798e-001 
-5.416517e-001 
-4.542751e-001 
-3.735083e-001 
-3.014086e-001 
-2.449616e-001 
-2.060894e-001 
-1.747886e-001 
-1.467642e-001 
-1.197137e-001 
-9.515204e-002 
-7.329344e-002 
-5.484687e-002 
-4.277314e-002 
-3.764685e-002 
-3.457328e-002 
-2.895652e-002 
-2.302281e-002 
-1.848675e-002 
-1.508295e-002 
-1.106434e-002 
-8.571513e-003 
-5.396187e-003 
-4.340934e-004 
5.980247e-003 
1.327867e-002 
1.874984e-002 
2.190093e-002 
2.350105e-002 
2.507606e-002 
2.624694e-002 
2.708344e-002 
2.983176e-002 
3.605632e-002 
4.184895e-002 
4.901128e-002 
5.776283e-002 
6.486000e-002 
7.034174e-002 
7.210863e-002 
7.172849e-002 
7.409109e-002 
7.571520e-002 
7.619523e-002 
8.005834e-002 
8.313610e-002 
8.517459e-002 
8.932178e-002 
9.439517e-002 
1.033201e-001 
1.141910e-001 
1.218206e-001 
1.299512e-001 
1.373180e-001 
1.427812e-001 
1.493390e-001 
1.563200e-001 
1.644977e-001 
1.753842e-001 
1.841674e-001 
1.934528e-001 
2.053701e-001 
2.156632e-001 
2.243097e-001 
2.294622e-001 
2.316102e-001 
2.335304e-001 
2.352701e-001 
2.385849e-001 
2.446964e-001 
2.514368e-001 
2.590688e-001 
2.651668e-001 
2.670767e-001 
2.685408e-001 
2.699684e-001 
2.693551e-001 
2.678174e-001 
2.632287e-001 
2.583369e-001 
2.532616e-001 
2.449751e-001 
2.371859e-001 
2.328745e-001 
2.277733e-001 
2.193653e-001 
2.082649e-001 
1.927954e-001 
1.742490e-001 
1.522315e-001 
1.303660e-001 
1.115661e-001 
9.556502e-002 
8.059343e-002 
6.411560e-002 
4.659537e-002 
2.839606e-002 
9.648839e-003 
-8.770727e-003 
-2.509291e-002 
-3.927702e-002 
-5.199415e-002 
-6.742645e-002 
-8.464603e-002 
-9.841811e-002 
-1.083531e-001 
-1.157786e-001 
-1.193011e-001 
-1.190108e-001 
-1.171914e-001 
-1.188442e-001 
-1.246419e-001 
-1.301371e-001 
-1.337296e-001 
-1.361970e-001 
-1.367295e-001 
-1.330489e-001 
-1.267888e-001 
-1.217379e-001 
-1.191755e-001 
-1.176893e-001 
-1.165539e-001 
-1.158463e-001 
-1.153099e-001 
-1.131253e-001 
-1.099450e-001 
-1.075303e-001 
-1.058824e-001 
-1.053055e-001 
-1.050348e-001 
-1.029847e-001 
-1.012993e-001 
-9.888903e-002 
-9.650806e-002 
-9.665743e-002 
-9.744313e-002 
-9.930893e-002 
-1.023807e-001 
-1.035143e-001 
-1.034227e-001 
-1.051368e-001 
-1.047175e-001 
-1.033229e-001 
-1.024295e-001 
-1.009654e-001 
-1.013756e-001 
-1.023283e-001 
-1.048034e-001 
-1.108001e-001 
-1.158890e-001 
-1.176877e-001 
-1.191729e-001 
-1.196167e-001 
-1.194826e-001 
-1.193898e-001 
-1.192199e-001 
-1.229109e-001 
-1.264409e-001 
-1.287287e-001 
-1.333201e-001 
-1.380895e-001 
-1.413008e-001 
-1.441646e-001 
-1.454446e-001 
-1.457243e-001 
-1.465039e-001 
-1.459668e-001 
-1.455125e-001 
-1.430142e-001 
-1.379540e-001 
-1.342639e-001 
-1.337741e-001 
-1.349176e-001 
-1.377742e-001 
-1.424246e-001 
-1.475875e-001 
-1.480011e-001 
-1.461624e-001 
-1.448878e-001 
-1.443497e-001 
-1.442653e-001 
-1.427063e-001 
-1.412997e-001 
-1.425755e-001 
-1.443112e-001 
-1.450758e-001 
-1.492170e-001 
-1.515410e-001 
-1.507551e-001 
-1.460633e-001 
-1.374538e-001 
-1.278412e-001 
-1.204931e-001 
-1.126455e-001 
-1.061915e-001 
-1.002704e-001 
-9.227506e-002 
-8.542371e-002 
-7.816482e-002 
-7.144960e-002 
-6.845824e-002 
-6.654323e-002 
-6.275331e-002 
-5.762378e-002 
-4.927811e-002 
-4.330772e-002 
-4.043034e-002 
-3.847038e-002 
-4.044307e-002 
-4.557856e-002 
-4.926214e-002 
-5.398425e-002 
-5.643144e-002 
-5.808619e-002 
-6.258374e-002 
-6.604947e-002 
-6.913344e-002 
-7.413166e-002 
-7.904564e-002 
-8.572209e-002 
-9.236425e-002 
-9.657515e-002 
-1.042231e-001 
-1.124556e-001 
-1.210544e-001 
-1.298853e-001 
-1.364717e-001 
-1.403769e-001 
-1.416562e-001 
-1.398175e-001 
-1.416991e-001 
-1.470140e-001 
-1.521625e-001 
-1.586085e-001 
-1.620421e-001 
-1.611248e-001 
-1.587705e-001 
-1.555514e-001 
-1.543344e-001 
-1.547370e-001 
-1.531405e-001 
-1.512779e-001 
-1.498272e-001 
-1.506509e-001 
-1.587671e-001 
-1.783435e-001 
-2.103821e-001 
-2.555520e-001 
-3.120376e-001 
-3.786583e-001 
-4.536815e-001 
-5.355926e-001 
-6.213807e-001 
-7.069360e-001 
-7.872538e-001 
-8.566595e-001 
-9.155805e-001 
-9.655199e-001 
-1.006898e+000 
-1.041574e+000 
-1.065635e+000 
-1.072307e+000 
-1.058602e+000 
-1.022970e+000 
-9.687345e-001 
-9.025396e-001 
-8.284377e-001 
-7.497042e-001 
-6.674598e-001 
-5.782481e-001 
-4.871853e-001 
-4.001621e-001 
-3.217569e-001 
-2.542463e-001 
-1.997374e-001 
-1.560570e-001 
-1.196672e-001 
-8.938306e-002 
-6.358468e-002 
-4.525334e-002 
-3.131809e-002 
-2.013661e-002 
-1.251019e-002 
-8.060611e-003 
-2.534622e-003 
8.265796e-004 
1.865340e-003 
4.215364e-003 
7.941220e-003 
1.533777e-002 
2.335954e-002 
3.030922e-002 
3.578107e-002 
3.803518e-002 
3.534087e-002 
3.271040e-002 
3.413453e-002 
4.159288e-002 
5.389125e-002 
6.656344e-002 
7.866708e-002 
8.670696e-002 
8.853068e-002 
8.738170e-002 
8.837367e-002 
9.210043e-002 
9.778815e-002 
1.015531e-001 
1.051639e-001 
1.098546e-001 
1.121329e-001 
1.137823e-001 
1.197812e-001 
1.291249e-001 
1.377381e-001 
1.448456e-001 
1.488958e-001 
1.530861e-001 
1.556849e-001 
1.574408e-001 
1.631475e-001 
1.739768e-001 
1.859626e-001 
1.982086e-001 
2.104729e-001 
2.214192e-001 
2.321156e-001 
2.407841e-001 
2.492058e-001 
2.578601e-001 
2.641064e-001 
2.688884e-001 
2.747886e-001 
2.811642e-001 
2.884438e-001 
2.957466e-001 
3.010308e-001 
3.041453e-001 
3.039430e-001 
3.018846e-001 
3.025058e-001 
3.034627e-001 
3.037186e-001 
3.029453e-001 
2.983033e-001 
2.905593e-001 
2.805209e-001 
2.699043e-001 
2.609943e-001 
2.515152e-001 
2.388016e-001 
2.249891e-001 
2.095040e-001 
1.915790e-001 
1.717381e-001 
1.511100e-001 
1.326959e-001 
1.156682e-001 
9.805367e-002 
8.264400e-002 
6.933841e-002 
5.530543e-002 
3.853250e-002 
1.856437e-002 
-7.180741e-004 
-1.658700e-002 
-3.108237e-002 
-4.135738e-002 
-4.640047e-002 
-5.196817e-002 
-5.914619e-002 
-6.709170e-002 
-7.550951e-002 
-8.149994e-002 
-8.666192e-002 
-9.121270e-002 
-9.363309e-002 
-9.616014e-002 
-1.009614e-001 
-1.044729e-001 
-1.066425e-001 
-1.086517e-001 
-1.094047e-001 
-1.087769e-001 
-1.061663e-001 
-1.029554e-001 
-9.915868e-002 
-9.693436e-002 
-9.698111e-002 
-9.986079e-002 
-1.045704e-001 
-1.087788e-001 
-1.095481e-001 
-1.076963e-001 
-1.021522e-001 
-9.494828e-002 
-9.137394e-002 
-9.267582e-002 
-9.544342e-002 
-9.838426e-002 
-1.008662e-001 
-9.976137e-002 
-9.405902e-002 
-8.669451e-002 
-8.228413e-002 
-8.135496e-002 
-8.228544e-002 
-8.116907e-002 
-8.148921e-002 
-8.287094e-002 
-7.979390e-002 
-7.784051e-002 
-8.239231e-002 
-8.910748e-002 
-9.611281e-002 
-1.001185e-001 
-9.982622e-002 
-1.017613e-001 
-1.004111e-001 
-9.397543e-002 
-9.261787e-002 
-9.397229e-002 
-9.513684e-002 
-9.766589e-002 
-9.821776e-002 
-1.007536e-001 
-1.050104e-001 
-1.022539e-001 
-9.771841e-002 
-9.675440e-002 
-9.381213e-002 
-9.084017e-002 
-8.821041e-002 
-8.636457e-002 
-8.796946e-002 
-8.857734e-002 
-8.846099e-002 
-9.193933e-002 
-9.666622e-002 
-9.980942e-002 
-1.009190e-001 
-1.003214e-001 
-9.960248e-002 
-9.612037e-002 
-9.087374e-002 
-8.692904e-002 
-8.388073e-002 
-8.258452e-002 
-8.235549e-002 
-8.164805e-002 
-8.178829e-002 
-8.196952e-002 
-8.024152e-002 
-7.883223e-002 
-7.665393e-002 
-7.368941e-002 
-7.114980e-002 
-6.689430e-002 
-6.084721e-002 
-5.703060e-002 
-5.494944e-002 
-5.198786e-002 
-4.859370e-002 
-4.570590e-002 
-4.304804e-002 
-3.760602e-002 
-3.097180e-002 
-2.361530e-002 
-1.688181e-002 
-1.002733e-002 
-3.797589e-003 
-2.526662e-004 
3.403178e-004 
2.377768e-003 
3.405730e-003 
1.715434e-003 
1.449002e-003 
3.179663e-004 
-2.851454e-003 
-6.132010e-003 
-8.576262e-003 
-9.979216e-003 
-9.831415e-003 
-1.211752e-002 
-1.394157e-002 
-1.616034e-002 
-2.222582e-002 
-3.037430e-002 
-3.648013e-002 
-4.044631e-002 
-4.327964e-002 
-4.348778e-002 
-4.179548e-002 
-4.155947e-002 
-4.643980e-002 
-5.653842e-002 
-6.829408e-002 
-7.753416e-002 
-8.478913e-002 
-8.923182e-002 
-8.989070e-002 
-9.163032e-002 
-9.817192e-002 
-1.059295e-001 
-1.125847e-001 
-1.166556e-001 
-1.163116e-001 
-1.144815e-001 
-1.114659e-001 
-1.091274e-001 
-1.106225e-001 
-1.124314e-001 
-1.112998e-001 
-1.092036e-001 
-1.069533e-001 
-1.072102e-001 
-1.141761e-001 
-1.290785e-001 
-1.573624e-001 
-1.973415e-001 
-2.459951e-001 
-3.050479e-001 
-3.737202e-001 
-4.503719e-001 
-5.350271e-001 
-6.232704e-001 
-7.120582e-001 
-7.974525e-001 
-8.704162e-001 
-9.297636e-001 
-9.778614e-001 
-1.016082e+000 
-1.046909e+000 
-1.068404e+000 
-1.073959e+000 
-1.060054e+000 
-1.023656e+000 
-9.637919e-001 
-8.878150e-001 
-8.063057e-001 
-7.213205e-001 
-6.352598e-001 
-5.469945e-001 
-4.553048e-001 
-3.633436e-001 
-2.769534e-001 
-2.002451e-001 
-1.384864e-001 
-9.199156e-002 
-5.527485e-002 
-2.691857e-002 
1.379561e-003 
2.993157e-002 
5.335463e-002 
7.074616e-002 
8.310480e-002 
8.958957e-002 
9.179923e-002 
9.211789e-002 
9.569486e-002 
1.041074e-001 
1.107572e-001 
1.176092e-001 
1.265642e-001 
1.352359e-001 
1.421480e-001 
1.464905e-001 
1.503299e-001 
1.529374e-001 
1.520313e-001 
1.487564e-001 
1.480746e-001 
1.494178e-001 
1.521466e-001 
1.544577e-001 
1.568415e-001 
1.602549e-001 
1.613201e-001 
1.620171e-001 
1.622154e-001 
1.633339e-001 
1.652872e-001 
1.660973e-001 
1.660066e-001 
1.681460e-001 
1.701323e-001 
1.724623e-001 
1.758420e-001 
1.800058e-001 
1.867107e-001 
1.926066e-001 
1.965745e-001 
2.003940e-001 
2.046039e-001 
2.090696e-001 
2.150197e-001 
2.221711e-001 
2.327623e-001 
2.435582e-001 
2.528020e-001 
2.621123e-001 
2.722927e-001 
2.828795e-001 
2.925970e-001 
3.008476e-001 
3.093063e-001 
3.169707e-001 
3.208222e-001 
3.244054e-001 
3.280634e-001 
3.322229e-001 
3.338065e-001 
3.331905e-001 
3.313331e-001 
3.290108e-001 
3.238201e-001 
3.159822e-001 
3.082130e-001 
2.997952e-001 
2.902467e-001 
2.778728e-001 
2.662103e-001 
2.532980e-001 
2.410284e-001 
2.282326e-001 
2.150163e-001 
2.024945e-001 
1.891851e-001 
1.738429e-001 
1.573456e-001 
1.410091e-001 
1.233782e-001 
1.097447e-001 
9.568119e-002 
8.127705e-002 
6.944273e-002 
5.904794e-002 
4.925440e-002 
4.099625e-002 
3.326080e-002 
2.652721e-002 
2.103951e-002 
1.167766e-002 
4.145155e-003 
-1.176568e-003 
-5.754725e-003 
-8.232734e-003 
-9.258104e-003 
-1.011785e-002 
-9.794142e-003 
-9.707316e-003 
-1.038162e-002 
-1.035740e-002 
-1.134705e-002 
-1.162229e-002 
-1.193804e-002 
-1.320943e-002 
-1.311595e-002 
-1.023391e-002 
-6.940095e-003 
-3.943550e-003 
-9.599415e-004 
2.908549e-003 
5.315702e-003 
4.673762e-003 
4.077974e-003 
2.806861e-003 
5.940736e-004 
-2.458473e-003 
-5.763986e-003 
-7.598907e-003 
-8.090388e-003 
-1.007807e-002 
-1.254394e-002 
-1.514635e-002 
-1.834733e-002 
-2.062532e-002 
-2.436907e-002 
-2.765077e-002 
-2.959885e-002 
-3.263405e-002 
-3.643168e-002 
-3.902762e-002 
-3.784036e-002 
-3.425984e-002 
-3.234700e-002 
-3.129324e-002 
-2.891563e-002 
-3.006816e-002 
-3.400380e-002 
-3.666904e-002 
-3.850769e-002 
-3.773880e-002 
-3.921733e-002 
-4.160688e-002 
-4.263820e-002 
-4.354182e-002 
-4.499438e-002 
-4.475056e-002 
-4.553149e-002 
-4.721546e-002 
-4.827050e-002 
-5.204840e-002 
-5.544616e-002 
-5.876893e-002 
-6.063314e-002 
-6.067556e-002 
-5.976884e-002 
-5.890631e-002 
-5.658445e-002 
-5.445594e-002 
-5.419254e-002 
-5.595240e-002 
-5.816066e-002 
-5.799580e-002 
-5.463340e-002 
-5.108342e-002 
-4.803678e-002 
-4.593301e-002 
-4.339412e-002 
-4.273660e-002 
-4.193020e-002 
-3.625291e-002 
-2.865998e-002 
-2.343443e-002 
-2.166245e-002 
-2.154451e-002 
-2.230587e-002 
-2.196486e-002 
-2.053259e-002 
-1.493302e-002 
-8.332721e-003 
-4.343127e-003 
-1.824588e-004 
6.136907e-003 
1.050094e-002 
1.247207e-002 
1.463111e-002 
1.717980e-002 
1.934567e-002 
2.167019e-002 
2.564588e-002 
3.248398e-002 
3.907882e-002 
4.178946e-002 
4.227388e-002 
4.120705e-002 
3.802071e-002 
3.359176e-002 
2.986644e-002 
2.639656e-002 
2.367410e-002 
1.972975e-002 
1.238925e-002 
4.191149e-003 
-3.422475e-003 
-9.994490e-003 
-1.472013e-002 
-1.763431e-002 
-2.043866e-002 
-2.519546e-002 
-3.419383e-002 
-4.571313e-002 
-5.679459e-002 
-6.666498e-002 
-7.241585e-002 
-7.327157e-002 
-7.136043e-002 
-7.056178e-002 
-7.263620e-002 
-7.688459e-002 
-8.249044e-002 
-8.919310e-002 
-9.222165e-002 
-9.008608e-002 
-8.572887e-002 
-8.145982e-002 
-7.967058e-002 
-7.813253e-002 
-7.703618e-002 
-7.679474e-002 
-7.377131e-002 
-6.891073e-002 
-7.118434e-002 
-8.190777e-002 
-1.044811e-001 
-1.384773e-001 
-1.809466e-001 
-2.350381e-001 
-2.938866e-001 
-3.559905e-001 
-4.274188e-001 
-5.047894e-001 
-5.826123e-001 
-6.575594e-001 
-7.222816e-001 
-7.776878e-001 
-8.229323e-001 
-8.553792e-001 
-8.820904e-001 
-8.991938e-001 
-9.025214e-001 
-8.896223e-001 
-8.551911e-001 
-8.042379e-001 
-7.421100e-001 
-6.724951e-001 
-6.001233e-001 
-5.247454e-001 
-4.448668e-001 
-3.650578e-001 
-2.828895e-001 
-2.050530e-001 
-1.391285e-001 
-8.313599e-002 
-3.731816e-002 
9.621441e-004 
3.508531e-002 
6.407203e-002 
8.877342e-002 
1.100148e-001 
1.239405e-001 
1.334335e-001 
1.428495e-001 
1.506473e-001 
1.572422e-001 
1.645172e-001 
1.698268e-001 
1.746232e-001 
1.787161e-001 
1.820618e-001 
1.857401e-001 
1.890578e-001 
1.900434e-001 
1.895877e-001 
1.888709e-001 
1.860647e-001 
1.853559e-001 
1.880940e-001 
1.929845e-001 
1.974928e-001 
2.017878e-001 
2.054751e-001 
2.074565e-001 
2.076345e-001 
2.057392e-001 
2.071831e-001 
2.097360e-001 
2.125211e-001 
2.158857e-001 
2.200782e-001 
2.247203e-001 
2.293848e-001 
2.332238e-001 
2.352716e-001 
2.361571e-001 
2.364564e-001 
2.377377e-001 
2.386909e-001 
2.407748e-001 
2.451140e-001 
2.504062e-001 
2.547463e-001 
2.582795e-001 
2.645610e-001 
2.733646e-001 
2.800125e-001 
2.859716e-001 
2.922517e-001 
2.966017e-001 
2.988105e-001 
3.001795e-001 
3.030417e-001 
3.087773e-001 
3.144877e-001 
3.201021e-001 
3.275863e-001 
3.321217e-001 
3.338861e-001 
3.339025e-001 
3.309106e-001 
3.271625e-001 
3.238685e-001 
3.206100e-001 
3.176315e-001 
3.129856e-001 
3.065509e-001 
2.999662e-001 
2.895209e-001 
2.776835e-001 
2.667377e-001 
2.540279e-001 
2.386836e-001 
2.212770e-001 
2.023695e-001 
1.833954e-001 
1.626544e-001 
1.422221e-001 
1.252841e-001 
1.096976e-001 
9.483653e-002 
8.280948e-002 
7.242481e-002 
6.092703e-002 
4.840733e-002 
3.651746e-002 
2.701099e-002 
1.994471e-002 
1.472898e-002 
1.293264e-002 
1.444513e-002 
1.427311e-002 
1.161720e-002 
8.376970e-003 
5.026756e-003 
2.303119e-003 
-9.383221e-004 
-5.324404e-003 
-8.275886e-003 
-1.384732e-002 
-2.099131e-002 
-2.691622e-002 
-3.089262e-002 
-3.185022e-002 
-3.040459e-002 
-3.027616e-002 
-3.041630e-002 
-3.230950e-002 
-3.732177e-002 
-4.197481e-002 
-4.678618e-002 
-4.987021e-002 
-5.076744e-002 
-5.010797e-002 
-4.884007e-002 
-4.592794e-002 
-4.319675e-002 
-4.206222e-002 
-4.291440e-002 
-4.536352e-002 
-4.895102e-002 
-5.278177e-002 
-5.583013e-002 
-5.784420e-002 
-5.946385e-002 
-6.171117e-002 
-6.459464e-002 
-6.581920e-002 
-6.435509e-002 
-6.003800e-002 
-5.522843e-002 
-5.374127e-002 
-5.605635e-002 
-6.204535e-002 
-6.943248e-002 
-7.708192e-002 
-8.130509e-002 
-8.280226e-002 
-8.401029e-002 
-8.612455e-002 
-8.834396e-002 
-8.923401e-002 
-8.964235e-002 
-9.098621e-002 
-9.400445e-002 
-9.806126e-002 
-1.059675e-001 
-1.130147e-001 
-1.165363e-001 
-1.174566e-001 
-1.144236e-001 
-1.093812e-001 
-1.047351e-001 
-9.958517e-002 
-9.488884e-002 
-9.139385e-002 
-8.616241e-002 
-8.143400e-002 
-8.021181e-002 
-8.054966e-002 
-8.337444e-002 
-8.751882e-002 
-9.008785e-002 
-9.161657e-002 
-9.038193e-002 
-8.506553e-002 
-8.189885e-002 
-8.471081e-002 
-9.007842e-002 
-9.830230e-002 
-1.063609e-001 
-1.129976e-001 
-1.164938e-001 
-1.152148e-001 
-1.133712e-001 
-1.124023e-001 
-1.091181e-001 
-1.031207e-001 
-9.363277e-002 
-8.159613e-002 
-7.114121e-002 
-6.148127e-002 
-5.531366e-002 
-5.147954e-002 
-4.618643e-002 
-3.980941e-002 
-3.077376e-002 
-1.958014e-002 
-1.082867e-002 
-4.492232e-003 
-7.635866e-004 
1.984321e-003 
5.578090e-003 
6.039876e-003 
4.980350e-003 
1.644774e-003 
-5.382601e-003 
-1.107295e-002 
-1.437489e-002 
-1.530351e-002 
-1.191044e-002 
-1.075053e-002 
-1.546187e-002 
-2.364850e-002 
-3.580567e-002 
-4.668869e-002 
-5.423305e-002 
-6.124123e-002 
-6.625832e-002 
-7.022194e-002 
-7.840130e-002 
-8.807025e-002 
-9.397044e-002 
-9.688034e-002 
-9.842407e-002 
-1.007451e-001 
-1.049110e-001 
-1.104314e-001 
-1.176097e-001 
-1.269635e-001 
-1.327914e-001 
-1.332442e-001 
-1.311131e-001 
-1.256192e-001 
-1.195004e-001 
-1.145716e-001 
-1.103735e-001 
-1.076389e-001 
-1.076405e-001 
-1.083670e-001 
-1.099612e-001 
-1.124626e-001 
-1.184998e-001 
-1.305460e-001 
-1.476985e-001 
-1.740266e-001 
-2.119726e-001 
-2.616129e-001 
-3.211395e-001 
-3.911348e-001 
-4.704826e-001 
-5.612348e-001 
-6.599123e-001 
-7.632793e-001 
-8.688117e-001 
-9.661345e-001 
-1.048568e+000 
-1.115196e+000 
-1.165996e+000 
-1.201747e+000 
-1.227320e+000 
-1.239507e+000 
-1.237380e+000 
-1.216527e+000 
-1.172079e+000 
-1.107190e+000 
-1.029197e+000 
-9.406472e-001 
-8.456643e-001 
-7.501604e-001 
-6.524025e-001 
-5.549781e-001 
-4.601862e-001 
-3.714309e-001 
-2.936619e-001 
-2.305460e-001 
-1.769266e-001 
-1.352392e-001 
-1.030333e-001 
-7.486969e-002 
-5.122357e-002 
-3.145972e-002 
-1.436058e-002 
-6.369542e-004 
9.697054e-003 
1.774398e-002 
2.138972e-002 
2.493854e-002 
2.796955e-002 
2.955419e-002 
3.122009e-002 
3.588703e-002 
4.237917e-002 
4.823376e-002 
5.487757e-002 
6.172658e-002 
6.764333e-002 
6.881080e-002 
6.490590e-002 
6.212152e-002 
6.205380e-002 
6.247790e-002 
6.442800e-002 
6.828257e-002 
7.274071e-002 
7.810598e-002 
8.177042e-002 
8.641598e-002 
9.363143e-002 
1.005708e-001 
1.049059e-001 
1.069497e-001 
1.091395e-001 
1.126872e-001 
1.172793e-001 
1.221497e-001 
1.269404e-001 
1.333599e-001 
1.405632e-001 
1.470898e-001 
1.561272e-001 
1.652446e-001 
1.720318e-001 
1.768547e-001 
1.793709e-001 
1.801012e-001 
1.819559e-001 
1.858748e-001 
1.928503e-001 
2.018952e-001 
2.104751e-001 
2.200532e-001 
2.301319e-001 
2.395134e-001 
2.468070e-001 
2.530954e-001 
2.600163e-001 
2.657515e-001 
2.709390e-001 
2.772622e-001 
2.844471e-001 
2.895130e-001 
2.941942e-001 
2.963395e-001 
2.961801e-001 
2.954150e-001 
2.919161e-001 
2.876284e-001 
2.835813e-001 
2.771263e-001 
2.693871e-001 
2.642407e-001 
2.558256e-001 
2.465481e-001 
2.368267e-001 
2.256387e-001 
2.143917e-001 
2.002396e-001 
1.825160e-001 
1.657756e-001 
1.481502e-001 
1.276969e-001 
1.090889e-001 
9.299315e-002 
8.012993e-002 
6.620748e-002 
5.053889e-002 
3.561352e-002 
2.034034e-002 
2.236997e-003 
-1.471828e-002 
-2.897496e-002 
-4.046285e-002 
-5.133306e-002 
-6.202657e-002 
-6.898895e-002 
-7.331543e-002 
-7.669434e-002 
-7.715581e-002 
-7.576230e-002 
-7.732708e-002 
-8.068633e-002 
-8.570379e-002 
-9.094230e-002 
-9.645398e-002 
-1.009494e-001 
-1.024736e-001 
-1.018255e-001 
-1.026262e-001 
-1.025468e-001 
-9.847860e-002 
-9.322297e-002 
-9.088364e-002 
-8.960637e-002 
-8.785216e-002 
-8.884876e-002 
-9.212008e-002 
-9.445908e-002 
-9.410778e-002 
-9.213430e-002 
-8.994879e-002 
-8.912637e-002 
-8.457037e-002 
-7.971240e-002 
-7.705195e-002 
-7.435975e-002 
-7.233738e-002 
-7.352258e-002 
-7.586953e-002 
-8.018180e-002 
-8.528803e-002 
-8.605595e-002 
-8.576328e-002 
-8.352778e-002 
-7.780011e-002 
-7.112902e-002 
-6.648774e-002 
-6.369909e-002 
-6.417925e-002 
-6.431935e-002 
-6.424773e-002 
-6.526150e-002 
-6.450173e-002 
-6.276216e-002 
-6.234451e-002 
-6.300386e-002 
-6.223517e-002 
-5.936599e-002 
-5.614502e-002 
-5.576170e-002 
-5.595078e-002 
-5.876514e-002 
-6.561415e-002 
-7.388773e-002 
-8.219759e-002 
-8.699468e-002 
-8.873811e-002 
-8.992156e-002 
-9.003948e-002 
-8.838873e-002 
-8.872619e-002 
-8.988830e-002 
-9.239551e-002 
-9.568800e-002 
-9.680627e-002 
-9.749780e-002 
-9.800567e-002 
-9.657818e-002 
-9.234951e-002 
-8.793694e-002 
-8.388030e-002 
-8.036314e-002 
-7.514003e-002 
-6.949111e-002 
-6.589478e-002 
-6.517074e-002 
-6.587576e-002 
-6.625301e-002 
-6.783995e-002 
-6.781023e-002 
-6.419981e-002 
-5.786070e-002 
-5.134746e-002 
-4.686334e-002 
-4.458224e-002 
-4.175339e-002 
-3.984084e-002 
-3.887724e-002 
-3.659971e-002 
-3.477312e-002 
-3.194854e-002 
-2.807907e-002 
-2.333772e-002 
-1.619510e-002 
-6.922753e-003 
9.527085e-004 
7.765401e-003 
1.267450e-002 
1.698066e-002 
2.112867e-002 
2.288717e-002 
2.341592e-002 
2.295386e-002 
2.209021e-002 
2.055941e-002 
2.184494e-002 
2.444465e-002 
2.669788e-002 
2.653073e-002 
2.312945e-002 
1.618652e-002 
7.767779e-003 
-1.386022e-003 
-8.921386e-003 
-1.397768e-002 
-2.187841e-002 
-2.753919e-002 
-3.289940e-002 
-3.964578e-002 
-4.485443e-002 
-4.829864e-002 
-5.232074e-002 
-5.625923e-002 
-6.317390e-002 
-7.108107e-002 
-7.546781e-002 
-8.095436e-002 
-8.507552e-002 
-8.638466e-002 
-8.570910e-002 
-8.435656e-002 
-8.307144e-002 
-8.096930e-002 
-7.661637e-002 
-7.053299e-002 
-6.585010e-002 
-6.280658e-002 
-6.173450e-002 
-6.190074e-002 
-6.490231e-002 
-7.060468e-002 
-7.969978e-002 
-9.348513e-002 
-1.143580e-001 
-1.476021e-001 
-1.934713e-001 
-2.501397e-001 
-3.146044e-001 
-3.885565e-001 
-4.717736e-001 
-5.611040e-001 
-6.505039e-001 
-7.367786e-001 
-8.142223e-001 
-8.767998e-001 
-9.230283e-001 
-9.548935e-001 
-9.785720e-001 
-9.942992e-001 
-9.984779e-001 
-9.862592e-001 
-9.545171e-001 
-9.013703e-001 
-8.330181e-001 
-7.555327e-001 
-6.733762e-001 
-5.895750e-001 
-5.039185e-001 
-4.151677e-001 
-3.230652e-001 
-2.334246e-001 
-1.539014e-001 
-9.022737e-002 
-4.128441e-002 
-4.030206e-003 
2.452805e-002 
4.851918e-002 
7.292316e-002 
9.651875e-002 
1.153752e-001 
1.302214e-001 
1.418361e-001 
1.496907e-001 
1.548519e-001 
1.583013e-001 
1.611356e-001 
1.645468e-001 
1.672462e-001 
1.715931e-001 
1.781183e-001 
1.844213e-001 
1.898183e-001 
1.933575e-001 
1.957725e-001 
1.976835e-001 
1.986513e-001 
1.992905e-001 
2.004032e-001 
1.991463e-001 
1.993525e-001 
2.003982e-001 
2.008780e-001 
2.055506e-001 
2.101948e-001 
2.123861e-001 
2.142097e-001 
2.134028e-001 
2.118331e-001 
2.136836e-001 
2.149544e-001 
2.199523e-001 
2.268750e-001 
2.306590e-001 
2.352345e-001 
2.423937e-001 
2.497998e-001 
2.593257e-001 
2.688334e-001 
2.767564e-001 
2.838021e-001 
2.862682e-001 
2.884548e-001 
2.943385e-001 
3.022781e-001 
3.105996e-001 
3.212418e-001 
3.319789e-001 
3.406546e-001 
3.458341e-001 
3.475885e-001 
3.502790e-001 
3.542165e-001 
3.582541e-001 
3.625353e-001 
3.681125e-001 
3.734944e-001 
3.766643e-001 
3.789140e-001 
3.824851e-001 
3.892861e-001 
3.954188e-001 
3.969376e-001 
3.928816e-001 
3.851782e-001 
3.729886e-001 
3.565128e-001 
3.419862e-001 
3.307938e-001 
3.206429e-001 
3.069969e-001 
2.898171e-001 
2.724107e-001 
2.539502e-001 
2.324502e-001 
2.108127e-001 
1.909245e-001 
1.700200e-001 
1.494809e-001 
1.303049e-001 
1.155272e-001 
1.033082e-001 
9.200158e-002 
8.373693e-002 
7.689067e-002 
6.945484e-002 
6.225026e-002 
5.618430e-002 
4.887490e-002 
4.088509e-002 
3.145348e-002 
2.454030e-002 
1.988453e-002 
1.492272e-002 
1.146252e-002 
9.315229e-003 
7.144314e-003 
4.211136e-003 
9.520251e-004 
-2.073832e-003 
-3.865857e-003 
-6.883685e-003 
-1.140208e-002 
-1.431171e-002 
-1.511970e-002 
-1.356485e-002 
-1.084755e-002 
-8.785481e-003 
-6.209384e-003 
-3.457539e-003 
-4.307982e-003 
-7.310432e-003 
-6.597271e-003 
-5.985482e-003 
-5.033061e-003 
-4.593681e-003 
-4.012708e-003 
-4.163849e-004 
3.367642e-003 
4.365617e-003 
6.025784e-003 
1.064513e-002 
1.153864e-002 
1.170399e-002 
1.218517e-002 
1.290170e-002 
1.263066e-002 
1.211274e-002 
1.063711e-002 
1.128313e-002 
1.477574e-002 
1.788516e-002 
2.318471e-002 
2.782305e-002 
2.832418e-002 
2.608421e-002 
2.307104e-002 
1.901010e-002 
1.720243e-002 
1.708680e-002 
1.881692e-002 
2.202194e-002 
2.506255e-002 
2.787694e-002 
3.035511e-002 
3.000473e-002 
2.868653e-002 
2.739587e-002 
2.438083e-002 
2.075404e-002 
1.681980e-002 
1.359031e-002 
1.188899e-002 
9.044909e-003 
5.581779e-003 
8.207336e-003 
1.329358e-002 
1.675958e-002 
2.022516e-002 
2.173266e-002 
2.189682e-002 
2.007147e-002 
1.410458e-002 
1.099067e-002 
1.392948e-002 
1.693350e-002 
1.980484e-002 
2.327475e-002 
2.619029e-002 
2.850283e-002 
2.672835e-002 
2.315490e-002 
2.327265e-002 
2.458975e-002 
2.471289e-002 
2.476349e-002 
2.640116e-002 
3.019335e-002 
3.449605e-002 
4.045863e-002 
4.900217e-002 
5.846684e-002 
6.674852e-002 
7.426076e-002 
7.955335e-002 
8.588925e-002 
9.227307e-002 
9.935060e-002 
1.084142e-001 
1.159430e-001 
1.240339e-001 
1.325087e-001 
1.374687e-001 
1.384221e-001 
1.393984e-001 
1.361975e-001 
1.327375e-001 
1.280300e-001 
1.220204e-001 
1.180962e-001 
1.139948e-001 
1.079857e-001 
1.026103e-001 
9.777671e-002 
9.328723e-002 
9.275875e-002 
8.920508e-002 
8.275731e-002 
7.498273e-002 
6.504203e-002 
5.312355e-002 
4.098082e-002 
3.160350e-002 
2.933725e-002 
2.943999e-002 
2.691235e-002 
2.521479e-002 
2.214134e-002 
1.638026e-002 
8.976010e-003 
1.943699e-003 
-9.194363e-004 
-1.916385e-003 
-5.108499e-003 
-6.483605e-003 
-5.319317e-003 
-3.649827e-003 
1.443085e-003 
8.530384e-003 
1.495003e-002 
1.761612e-002 
1.232360e-002 
5.599412e-004 
-1.801742e-002 
-4.601681e-002 
-8.236842e-002 
-1.256915e-001 
-1.792919e-001 
-2.414139e-001 
-3.106800e-001 
-3.866875e-001 
-4.671193e-001 
-5.526374e-001 
-6.399739e-001 
-7.202910e-001 
-7.893731e-001 
-8.444864e-001 
-8.815735e-001 
-9.061130e-001 
-9.202116e-001 
-9.218652e-001 
-9.101563e-001 
-8.795393e-001 
-8.281058e-001 
-7.616442e-001 
-6.840798e-001 
-6.023722e-001 
-5.214401e-001 
-4.401172e-001 
-3.571129e-001 
-2.711568e-001 
-1.842702e-001 
-1.033554e-001 
-3.404283e-002 
2.098175e-002 
6.271290e-002 
9.423070e-002 
1.167990e-001 
1.352275e-001 
1.525347e-001 
1.666620e-001 
1.761002e-001 
1.830548e-001 
1.887007e-001 
1.927878e-001 
1.956783e-001 
1.978683e-001 
2.020294e-001 
2.072948e-001 
2.104506e-001 
2.130777e-001 
2.164061e-001 
2.179334e-001 
2.177248e-001 
2.171857e-001 
2.163547e-001 
2.185933e-001 
2.220292e-001 
2.255926e-001 
2.310279e-001 
2.354779e-001 
2.385705e-001 
2.404768e-001 
2.404249e-001 
2.410965e-001 
2.428598e-001 
2.419677e-001 
2.422325e-001 
2.459973e-001 
2.519652e-001 
2.608540e-001 
2.692437e-001 
2.770577e-001 
2.837305e-001 
2.872488e-001 
2.885523e-001 
2.913853e-001 
2.961055e-001 
3.013732e-001 
3.049281e-001 
3.071700e-001 
3.113768e-001 
3.155767e-001 
3.222900e-001 
3.297440e-001 
3.366026e-001 
3.430641e-001 
3.459086e-001 
3.444426e-001 
3.447060e-001 
3.468843e-001 
3.506180e-001 
3.574170e-001 
3.646619e-001 
3.742316e-001 
3.853571e-001 
3.931491e-001 
3.979999e-001 
4.025230e-001 
4.044702e-001 
4.052507e-001 
4.045822e-001 
4.035894e-001 
4.052073e-001 
4.068245e-001 
4.061038e-001 
4.046029e-001 
4.018591e-001 
3.980872e-001 
3.910228e-001 
3.783545e-001 
3.647237e-001 
3.504327e-001 
3.329769e-001 
3.151010e-001 
2.987229e-001 
2.846404e-001 
2.710892e-001 
2.553434e-001 
2.401882e-001 
2.266193e-001 
2.099912e-001 
1.909497e-001 
1.727992e-001 
1.557691e-001 
1.388253e-001 
1.236770e-001 
1.134594e-001 
1.070746e-001 
1.024773e-001 
9.799390e-002 
9.322892e-002 
8.893584e-002 
8.284268e-002 
7.612049e-002 
7.237819e-002 
6.920827e-002 
6.565534e-002 
6.292442e-002 
6.157245e-002 
6.307197e-002 
6.700663e-002 
7.105235e-002 
7.748097e-002 
8.184449e-002 
8.316415e-002 
8.095905e-002 
7.631396e-002 
7.315807e-002 
7.109448e-002 
6.948663e-002 
7.121935e-002 
7.435896e-002 
7.539300e-002 
7.723280e-002 
7.593671e-002 
7.384815e-002 
7.225497e-002 
6.914686e-002 
6.647514e-002 
6.451428e-002 
6.184732e-002 
6.117340e-002 
6.172424e-002 
6.219786e-002 
6.611630e-002 
7.159026e-002 
7.698682e-002 
8.118967e-002 
8.344437e-002 
8.489787e-002 
8.352231e-002 
7.980170e-002 
7.740210e-002 
7.563154e-002 
7.319817e-002 
7.148415e-002 
7.031122e-002 
7.125174e-002 
7.125154e-002 
6.769124e-002 
6.460480e-002 
6.199185e-002 
5.681551e-002 
5.057881e-002 
4.450886e-002 
4.060103e-002 
3.908311e-002 
3.651373e-002 
3.558308e-002 
3.769893e-002 
3.936879e-002 
3.882951e-002 
3.678234e-002 
3.328776e-002 
3.119094e-002 
2.992631e-002 
2.857084e-002 
2.837891e-002 
2.836884e-002 
2.832565e-002 
2.767793e-002 
2.658772e-002 
2.743094e-002 
3.095758e-002 
3.373681e-002 
3.482942e-002 
3.412535e-002 
3.191073e-002 
2.908504e-002 
2.633119e-002 
2.672961e-002 
2.933726e-002 
3.283651e-002 
3.801816e-002 
4.284961e-002 
4.480783e-002 
4.497671e-002 
4.506091e-002 
4.539166e-002 
4.697917e-002 
5.002637e-002 
5.750022e-002 
6.712649e-002 
7.491958e-002 
8.097820e-002 
8.726244e-002 
9.186094e-002 
9.459834e-002 
9.967239e-002 
1.043343e-001 
1.083894e-001 
1.096320e-001 
1.068005e-001 
1.021398e-001 
9.823036e-002 
9.439283e-002 
9.503029e-002 
9.644506e-002 
9.325954e-002 
8.875340e-002 
8.136439e-002 
7.198086e-002 
6.352385e-002 
5.796548e-002 
5.337870e-002 
5.019430e-002 
4.443146e-002 
3.753618e-002 
3.372551e-002 
3.219075e-002 
3.020885e-002 
2.737501e-002 
2.341973e-002 
1.488717e-002 
5.504553e-003 
-4.064815e-003 
-1.244035e-002 
-1.437705e-002 
-1.310911e-002 
-1.384032e-002 
-1.409945e-002 
-1.459713e-002 
-1.637571e-002 
-1.568117e-002 
-1.565498e-002 
-1.440743e-002 
-8.145866e-003 
-2.026883e-003 
1.414374e-003 
5.417327e-003 
8.536475e-003 
1.209020e-002 
1.523070e-002 
1.239963e-002 
5.282272e-003 
-8.317057e-003 
-3.528550e-002 
-7.429520e-002 
-1.242255e-001 
-1.828211e-001 
-2.455083e-001 
-3.171602e-001 
-3.952739e-001 
-4.730257e-001 
-5.487125e-001 
-6.197350e-001 
-6.805655e-001 
-7.306333e-001 
-7.691776e-001 
-8.018165e-001 
-8.328679e-001 
-8.540884e-001 
-8.587324e-001 
-8.446898e-001 
-8.115684e-001 
-7.603219e-001 
-6.986804e-001 
-6.344546e-001 
-5.710403e-001 
-5.050721e-001 
-4.335840e-001 
-3.561699e-001 
-2.792140e-001 
-2.071233e-001 
-1.462347e-001 
-1.030953e-001 
-7.158549e-002 
-4.492702e-002 
-1.920632e-002 
7.993502e-003 
3.515353e-002 
5.766136e-002 
7.400218e-002 
7.945825e-002 
7.929917e-002 
7.923344e-002 
7.877403e-002 
7.983572e-002 
8.336502e-002 
8.741847e-002 
9.006033e-002 
9.007457e-002 
8.664849e-002 
8.503694e-002 
8.396078e-002 
8.376751e-002 
8.640788e-002 
9.065988e-002 
9.444204e-002 
9.601906e-002 
9.457542e-002 
9.213706e-002 
9.326670e-002 
9.638645e-002 
1.018778e-001 
1.073473e-001 
1.109457e-001 
1.115163e-001 
1.082452e-001 
1.029451e-001 
1.012582e-001 
1.039709e-001 
1.078611e-001 
1.126147e-001 
1.168201e-001 
1.218239e-001 
1.245092e-001 
1.232794e-001 
1.222242e-001 
1.234244e-001 
1.245540e-001 
1.262547e-001 
1.294094e-001 
1.362169e-001 
1.457233e-001 
1.528309e-001 
1.591874e-001 
1.672618e-001 
1.734606e-001 
1.778645e-001 
1.820220e-001 
1.860391e-001 
1.921991e-001 
1.979787e-001 
2.023562e-001 
2.092159e-001 
2.168583e-001 
2.228317e-001 
2.314972e-001 
2.410458e-001 
2.504535e-001 
2.601272e-001 
2.660559e-001 
2.676703e-001 
2.677316e-001 
2.651524e-001 
2.626870e-001 
2.652011e-001 
2.697469e-001 
2.757836e-001 
2.814818e-001 
2.819317e-001 
2.764530e-001 
2.684482e-001 
2.578402e-001 
2.472327e-001 
2.379189e-001 
2.275418e-001 
2.156271e-001 
2.006368e-001 
1.829582e-001 
1.660864e-001 
1.542237e-001 
1.441548e-001 
1.332936e-001 
1.215288e-001 
1.085713e-001 
9.231150e-002 
7.453912e-002 
5.910652e-002 
4.754755e-002 
3.884368e-002 
2.986502e-002 
2.061275e-002 
1.347577e-002 
8.641413e-003 
2.258854e-003 
-2.405558e-003 
-5.993380e-003 
-1.090725e-002 
-1.615775e-002 
-2.127108e-002 
-2.713919e-002 
-3.186539e-002 
-3.636097e-002 
-4.122944e-002 
-4.329756e-002 
-4.433120e-002 
-4.623632e-002 
-4.829676e-002 
-5.217388e-002 
-5.804763e-002 
-6.381016e-002 
-6.820288e-002 
-7.004979e-002 
-6.943406e-002 
-6.820065e-002 
-6.896549e-002 
-7.089452e-002 
-7.271756e-002 
-7.462075e-002 
-7.507882e-002 
-7.200821e-002 
-7.021436e-002 
-6.938763e-002 
-7.065799e-002 
-7.601503e-002 
-8.021715e-002 
-8.103287e-002 
-8.011554e-002 
-7.529446e-002 
-6.924198e-002 
-6.679457e-002 
-6.586868e-002 
-7.011036e-002 
-7.741362e-002 
-8.083154e-002 
-8.180848e-002 
-8.312348e-002 
-8.363634e-002 
-8.380898e-002 
-8.405846e-002 
-8.407423e-002 
-8.618448e-002 
-8.657551e-002 
-8.396762e-002 
-8.347830e-002 
-8.643951e-002 
-8.791844e-002 
-8.803660e-002 
-8.985248e-002 
-9.232551e-002 
-9.528059e-002 
-9.389351e-002 
-8.898061e-002 
-8.509835e-002 
-8.069605e-002 
-7.415197e-002 
-7.127413e-002 
-7.373546e-002 
-7.777771e-002 
-8.272393e-002 
-8.536472e-002 
-8.653635e-002 
-8.645295e-002 
-8.378323e-002 
-8.119703e-002 
-8.144052e-002 
-8.175177e-002 
-8.160606e-002 
-8.244945e-002 
-8.314653e-002 
-8.252995e-002 
-8.132967e-002 
-8.288990e-002 
-8.611271e-002 
-8.740658e-002 
-8.651833e-002 
-8.478908e-002 
-7.972633e-002 
-7.300386e-002 
-6.596632e-002 
-6.119439e-002 
-5.898423e-002 
-5.620208e-002 
-5.304760e-002 
-5.103279e-002 
-4.751683e-002 
-4.246578e-002 
-3.733120e-002 
-2.933582e-002 
-1.940620e-002 
-8.794751e-003 
-7.820856e-005 
5.748916e-003 
8.539822e-003 
8.959118e-003 
9.863449e-003 
1.374815e-002 
1.817776e-002 
2.147665e-002 
2.202333e-002 
1.959296e-002 
1.413490e-002 
7.917291e-003 
6.517356e-003 
8.728859e-003 
8.365863e-003 
5.231016e-003 
1.224512e-003 
-6.324254e-003 
-1.498041e-002 
-2.380107e-002 
-2.723733e-002 
-2.584284e-002 
-2.708345e-002 
-2.966823e-002 
-3.115575e-002 
-3.618341e-002 
-4.439606e-002 
-5.203174e-002 
-5.931387e-002 
-6.173985e-002 
-6.252277e-002 
-6.466866e-002 
-6.643215e-002 
-6.885021e-002 
-7.335549e-002 
-7.822821e-002 
-8.379917e-002 
-8.785678e-002 
-8.860408e-002 
-9.065203e-002 
-9.337922e-002 
-9.317871e-002 
-9.021052e-002 
-8.540605e-002 
-8.094296e-002 
-7.759775e-002 
-7.520821e-002 
-7.768933e-002 
-8.631519e-002 
-1.017951e-001 
-1.267744e-001 
-1.614426e-001 
-2.068493e-001 
-2.654190e-001 
-3.330798e-001 
-4.076896e-001 
-4.896743e-001 
-5.753654e-001 
-6.622870e-001 
-7.447139e-001 
-8.163702e-001 
-8.795256e-001 
-9.321669e-001 
-9.717267e-001 
-1.002022e+000 
-1.021262e+000 
-1.024525e+000 
-1.009944e+000 
-9.750647e-001 
-9.217505e-001 
-8.559006e-001 
-7.805267e-001 
-7.031824e-001 
-6.237919e-001 
-5.390115e-001 
-4.519162e-001 
-3.671087e-001 
-2.873377e-001 
-2.161438e-001 
-1.567074e-001 
-1.097979e-001 
-7.370718e-002 
-4.034987e-002 
-1.058174e-002 
1.340160e-002 
3.299648e-002 
4.859005e-002 
6.111144e-002 
7.106474e-002 
7.728632e-002 
8.048952e-002 
8.397734e-002 
8.603895e-002 
8.758377e-002 
9.007887e-002 
9.441675e-002 
1.010821e-001 
1.053735e-001 
1.039776e-001 
9.997984e-002 
9.753275e-002 
9.457691e-002 
9.284313e-002 
9.372270e-002 
9.660766e-002 
9.949145e-002 
1.010872e-001 
1.052821e-001 
1.115884e-001 
1.165244e-001 
1.189743e-001 
1.201142e-001 
1.192061e-001 
1.181973e-001 
1.179097e-001 
1.205973e-001 
1.279475e-001 
1.344273e-001 
1.402975e-001 
1.465585e-001 
1.528319e-001 
1.605371e-001 
1.686410e-001 
1.748179e-001 
1.803936e-001 
1.871373e-001 
1.911711e-001 
1.947817e-001 
2.004564e-001 
2.106270e-001 
2.216864e-001 
2.303613e-001 
2.373453e-001 
2.434377e-001 
2.488055e-001 
2.500405e-001 
2.525160e-001 
2.592871e-001 
2.677128e-001 
2.739297e-001 
2.807629e-001 
2.880128e-001 
2.954880e-001 
3.037286e-001 
3.119043e-001 
3.215790e-001 
3.282635e-001 
3.304068e-001 
3.321256e-001 
3.345394e-001 
3.355765e-001 
3.376549e-001 
3.405516e-001 
3.428506e-001 
3.425693e-001 
3.382242e-001 
3.340947e-001 
3.273448e-001 
3.147231e-001 
3.007401e-001 
2.863914e-001 
2.717210e-001 
2.563714e-001 
2.405654e-001 
2.253882e-001 
2.088944e-001 
1.871415e-001 
1.659746e-001 
1.480883e-001 
1.301862e-001 
1.132182e-001 
9.705194e-002 
8.241536e-002 
6.656852e-002 
5.013738e-002 
3.626459e-002 
2.794771e-002 
2.278438e-002 
1.961151e-002 
1.808412e-002 
1.631964e-002 
1.154497e-002 
3.997371e-003 
-1.620870e-003 
-6.134262e-003 
-8.223342e-003 
-8.863472e-003 
-9.008331e-003 
-1.065835e-002 
-1.476556e-002 
-1.832360e-002 
-1.999303e-002 
-2.090324e-002 
-2.099658e-002 
-2.028222e-002 
-2.119193e-002 
-2.324203e-002 
-2.757684e-002 
-2.957143e-002 
-2.857569e-002 
-2.751571e-002 
-2.428341e-002 
-1.883571e-002 
-1.372697e-002 
-7.895941e-003 
-2.469579e-003 
1.443218e-003 
5.466476e-003 
6.552809e-003 
6.466828e-003 
6.859631e-003 
8.581642e-003 
1.319006e-002 
1.900475e-002 
2.354240e-002 
2.587302e-002 
2.606245e-002 
2.502930e-002 
2.310251e-002 
2.087592e-002 
2.047129e-002 
2.086101e-002 
1.955690e-002 
1.708011e-002 
1.395815e-002 
1.382108e-002 
1.650375e-002 
2.168771e-002 
2.745209e-002 
3.168994e-002 
3.292810e-002 
2.932999e-002 
2.280075e-002 
1.644430e-002 
1.291335e-002 
1.162834e-002 
1.330481e-002 
1.354248e-002 
1.386185e-002 
1.333388e-002 
1.009110e-002 
5.813067e-003 
9.247001e-004 
-4.856233e-003 
-9.900281e-003 
-1.414425e-002 
-1.878564e-002 
-2.090399e-002 
-2.283538e-002 
-2.434609e-002 
-2.368042e-002 
-2.086186e-002 
-1.633197e-002 
-1.018926e-002 
-5.495921e-003 
-4.806995e-003 
-6.847050e-003 
-1.139760e-002 
-1.629967e-002 
-1.785508e-002 
-1.620780e-002 
-1.329793e-002 
-6.778123e-003 
2.869897e-004 
4.995081e-003 
1.003489e-002 
1.573943e-002 
2.206398e-002 
2.992498e-002 
3.843535e-002 
4.741505e-002 
5.862266e-002 
6.756057e-002 
7.448441e-002 
8.322905e-002 
9.288956e-002 
1.009777e-001 
1.075571e-001 
1.121592e-001 
1.128764e-001 
1.111561e-001 
1.064553e-001 
1.007574e-001 
9.621285e-002 
9.113124e-002 
8.481079e-002 
7.835392e-002 
7.228070e-002 
6.435147e-002 
5.716702e-002 
4.964218e-002 
4.168953e-002 
3.298308e-002 
2.564430e-002 
2.058690e-002 
1.776167e-002 
1.750897e-002 
1.867529e-002 
2.168212e-002 
2.115440e-002 
1.739771e-002 
1.324394e-002 
1.082575e-002 
8.273963e-003 
7.501172e-003 
7.635586e-003 
6.197857e-003 
9.386883e-004 
-4.515880e-003 
-4.455196e-003 
4.433657e-005 
6.275486e-003 
1.355683e-002 
1.937667e-002 
1.763974e-002 
1.055324e-002 
1.863464e-003 
-2.784108e-003 
-7.957569e-003 
-1.828810e-002 
-3.571282e-002 
-6.300104e-002 
-1.036564e-001 
-1.546198e-001 
-2.107923e-001 
-2.735615e-001 
-3.445952e-001 
-4.266186e-001 
-5.140966e-001 
-6.029362e-001 
-6.849959e-001 
-7.521574e-001 
-8.007132e-001 
-8.356598e-001 
-8.629119e-001 
-8.851918e-001 
-8.990296e-001 
-8.982533e-001 
-8.791899e-001 
-8.368322e-001 
-7.758267e-001 
-7.059889e-001 
-6.328974e-001 
-5.588807e-001 
-4.828793e-001 
-3.991012e-001 
-3.087131e-001 
-2.175917e-001 
-1.327127e-001 
-6.289110e-002 
-1.222563e-002 
2.412338e-002 
4.952726e-002 
6.972451e-002 
9.329219e-002 
1.176239e-001 
1.378054e-001 
1.538309e-001 
1.630464e-001 
1.650106e-001 
1.651148e-001 
1.640301e-001 
1.639971e-001 
1.678166e-001 
1.701202e-001 
1.699609e-001 
1.710246e-001 
1.711959e-001 
1.714760e-001 
1.761759e-001 
1.836484e-001 
1.905840e-001 
1.973245e-001 
2.023733e-001 
2.055824e-001 
2.086260e-001 
2.090567e-001 
2.080863e-001 
2.109017e-001 
2.156567e-001 
2.199851e-001 
2.287997e-001 
2.369959e-001 
2.425923e-001 
2.469980e-001 
2.497384e-001 
2.529030e-001 
2.589639e-001 
2.655642e-001 
2.736908e-001 
2.832998e-001 
2.892165e-001 
2.946974e-001 
3.016150e-001 
3.107775e-001 
3.203908e-001 
3.304832e-001 
3.406048e-001 
3.505964e-001 
3.582178e-001 
3.635131e-001 
3.687467e-001 
3.756087e-001 
3.849934e-001 
3.931299e-001 
4.022322e-001 
4.126776e-001 
4.214861e-001 
4.267740e-001 
4.287141e-001 
4.288616e-001 
4.292805e-001 
4.289415e-001 
4.280857e-001 
4.295651e-001 
4.304306e-001 
4.283418e-001 
4.251616e-001 
4.224214e-001 
4.176409e-001 
4.114835e-001 
4.030686e-001 
3.919213e-001 
3.772072e-001 
3.584088e-001 
3.378540e-001 
3.213971e-001 
3.061698e-001 
2.898067e-001 
2.762922e-001 
2.621301e-001 
2.479714e-001 
2.340775e-001 
2.176043e-001 
2.002823e-001 
1.853523e-001 
1.678572e-001 
1.514534e-001 
1.379978e-001 
1.263242e-001 
1.204388e-001 
1.165898e-001 
1.139349e-001 
1.156116e-001 
1.186202e-001 
1.191447e-001 
1.184832e-001 
1.144243e-001 
1.091429e-001 
1.044117e-001 
9.875504e-002 
9.614326e-002 
9.609721e-002 
9.636704e-002 
9.821713e-002 
9.985547e-002 
9.947664e-002 
9.910559e-002 
9.711425e-002 
9.235182e-002 
8.749216e-002 
8.121360e-002 
7.617826e-002 
7.294545e-002 
7.062995e-002 
7.076074e-002 
7.245790e-002 
7.382893e-002 
7.519475e-002 
7.616172e-002 
7.601717e-002 
7.656950e-002 
7.715688e-002 
7.949065e-002 
8.132601e-002 
8.183055e-002 
8.326793e-002 
8.470581e-002 
8.588193e-002 
8.986833e-002 
9.363370e-002 
9.702000e-002 
9.950757e-002 
9.759192e-002 
9.312501e-002 
8.814956e-002 
8.159111e-002 
7.890510e-002 
7.875351e-002 
7.714967e-002 
7.746657e-002 
7.667549e-002 
7.205207e-002 
6.562393e-002 
5.918034e-002 
5.349103e-002 
5.124412e-002 
4.909962e-002 
4.794095e-002 
4.976923e-002 
5.123580e-002 
5.162959e-002 
5.133489e-002 
4.963761e-002 
4.726090e-002 
4.570579e-002 
4.397581e-002 
4.209519e-002 
4.004556e-002 
3.725326e-002 
3.386889e-002 
3.011266e-002 
3.033661e-002 
3.536353e-002 
4.218183e-002 
4.626374e-002 
4.610883e-002 
4.320467e-002 
3.952181e-002 
3.506131e-002 
3.348002e-002 
3.643571e-002 
3.811503e-002 
3.702779e-002 
3.442081e-002 
3.308781e-002 
3.592721e-002 
3.971540e-002 
4.351842e-002 
4.588447e-002 
4.232612e-002 
3.424875e-002 
2.641771e-002 
2.229290e-002 
2.426677e-002 
3.011671e-002 
3.726742e-002 
4.596488e-002 
5.159041e-002 
5.719755e-002 
6.566737e-002 
7.396966e-002 
8.095926e-002 
8.741282e-002 
9.134269e-002 
9.234213e-002 
9.001165e-002 
8.788448e-002 
8.981857e-002 
9.025527e-002 
8.625352e-002 
8.229302e-002 
7.820126e-002 
7.210736e-002 
6.253321e-002 
5.320398e-002 
4.759507e-002 
3.995161e-002 
2.849753e-002 
1.989929e-002 
1.523291e-002 
1.121215e-002 
1.049046e-002 
8.934264e-003 
1.022002e-002 
1.050198e-002 
6.067729e-003 
6.052704e-004 
-3.146334e-003 
-6.627211e-003 
-8.567043e-003 
-8.574282e-003 
-1.118533e-002 
-1.485663e-002 
-2.003746e-002 
-2.566595e-002 
-3.172580e-002 
-3.465610e-002 
-3.660651e-002 
-3.917630e-002 
-4.333817e-002 
-4.958283e-002 
-5.506214e-002 
-5.696434e-002 
-5.602241e-002 
-5.082988e-002 
-4.258999e-002 
-3.765011e-002 
-3.758819e-002 
-4.312863e-002 
-5.411498e-002 
-7.111448e-002 
-9.355707e-002 
-1.218057e-001 
-1.570007e-001 
-2.025195e-001 
-2.572326e-001 
-3.197524e-001 
-3.887674e-001 
-4.632066e-001 
-5.404759e-001 
-6.135254e-001 
-6.778074e-001 
-7.330787e-001 
-7.806483e-001 
-8.201697e-001 
-8.525358e-001 
-8.761286e-001 
-8.866234e-001 
-8.785287e-001 
-8.470429e-001 
-7.975774e-001 
-7.408106e-001 
-6.812786e-001 
-6.207159e-001 
-5.584170e-001 
-4.910228e-001 
-4.181648e-001 
-3.404649e-001 
-2.629731e-001 
-1.971323e-001 
-1.446951e-001 
-1.015989e-001 
-6.600704e-002 
-3.610149e-002 
-1.064816e-002 
1.087485e-002 
2.956267e-002 
4.322977e-002 
5.212380e-002 
6.012652e-002 
6.823182e-002 
7.421500e-002 
7.823984e-002 
8.377682e-002 
9.042237e-002 
9.600233e-002 
1.016965e-001 
1.050918e-001 
1.056146e-001 
1.044185e-001 
9.970225e-002 
9.651581e-002 
9.729852e-002 
9.825292e-002 
1.011120e-001 
1.060339e-001 
1.083412e-001 
1.106630e-001 
1.112270e-001 
1.082323e-001 
1.062676e-001 
1.039912e-001 
9.958970e-002 
9.786153e-002 
9.763691e-002 
9.899486e-002 
1.026109e-001 
1.056213e-001 
1.101557e-001 
1.175478e-001 
1.239157e-001 
1.288689e-001 
1.356912e-001 
1.401550e-001 
1.436653e-001 
1.474609e-001 
1.532212e-001 
1.621724e-001 
1.733094e-001 
1.863435e-001 
2.012758e-001 
2.147338e-001 
2.233292e-001 
2.330213e-001 
2.421208e-001 
2.510476e-001 
2.586467e-001 
2.652169e-001 
2.738972e-001 
2.822720e-001 
2.873647e-001 
2.954241e-001 
3.071864e-001 
3.149891e-001 
3.205753e-001 
3.224608e-001 
3.235422e-001 
3.266006e-001 
3.259926e-001 
3.224218e-001 
3.223559e-001 
3.175685e-001 
3.074261e-001 
2.983507e-001 
2.897229e-001 
2.816477e-001 
2.708945e-001 
2.531369e-001 
2.315573e-001 
2.080368e-001 
1.805266e-001 
1.562251e-001 
1.370075e-001 
1.182861e-001 
9.852866e-002 
7.731587e-002 
5.574709e-002 
3.476347e-002 
1.439778e-002 
-4.041088e-003 
-1.872143e-002 
-3.166139e-002 
-4.468428e-002 
-5.539198e-002 
-6.170430e-002 
-6.554620e-002 
-6.950640e-002 
-7.157602e-002 
-7.122159e-002 
-6.939515e-002 
-6.817297e-002 
-6.778447e-002 
-6.766096e-002 
-6.996530e-002 
-7.761208e-002 
-8.741679e-002 
-9.329033e-002 
-9.431240e-002 
-9.212872e-002 
-8.652593e-002 
-8.142049e-002 
-8.123882e-002 
-8.554998e-002 
-9.328817e-002 
-1.004124e-001 
-1.035010e-001 
-1.032308e-001 
-9.958162e-002 
-9.394366e-002 
-9.096671e-002 
-9.029417e-002 
-8.864225e-002 
-8.757136e-002 
-8.655954e-002 
-8.206320e-002 
-7.689832e-002 
-7.522839e-002 
-7.809579e-002 
-8.505050e-002 
-9.442844e-002 
-1.028131e-001 
-1.086313e-001 
-1.068395e-001 
-9.672403e-002 
-8.732240e-002 
-8.209148e-002 
-8.098541e-002 
-8.527519e-002 
-9.240882e-002 
-9.687036e-002 
-9.626511e-002 
-9.155706e-002 
-8.615129e-002 
-8.371220e-002 
-8.356771e-002 
-8.375177e-002 
-8.332528e-002 
-8.178870e-002 
-7.851626e-002 
-7.654802e-002 
-7.853142e-002 
-8.340390e-002 
-9.216299e-002 
-1.017481e-001 
-1.080817e-001 
-1.110027e-001 
-1.117406e-001 
-1.106448e-001 
-1.086595e-001 
-1.076215e-001 
-1.078426e-001 
-1.104501e-001 
-1.141133e-001 
-1.161979e-001 
-1.175679e-001 
-1.198303e-001 
-1.199325e-001 
-1.182860e-001 
-1.174801e-001 
-1.167731e-001 
-1.173396e-001 
-1.164008e-001 
-1.129443e-001 
-1.125828e-001 
-1.136454e-001 
-1.130835e-001 
-1.144023e-001 
-1.168044e-001 
-1.186915e-001 
-1.194100e-001 
-1.152339e-001 
-1.107776e-001 
-1.089687e-001 
-1.060499e-001 
-1.025825e-001 
-9.960441e-002 
-9.760958e-002 
-9.511918e-002 
-8.975601e-002 
-8.265611e-002 
-7.712148e-002 
-7.054525e-002 
-6.146045e-002 
-4.915734e-002 
-3.833574e-002 
-3.125174e-002 
-2.269374e-002 
-1.705164e-002 
-1.636469e-002 
-1.693454e-002 
-1.770901e-002 
-1.793229e-002 
-1.766043e-002 
-2.059807e-002 
-2.403538e-002 
-2.759724e-002 
-3.361781e-002 
-3.866214e-002 
-4.365083e-002 
-4.966808e-002 
-5.570348e-002 
-6.329469e-002 
-7.075104e-002 
-7.650706e-002 
-8.013993e-002 
-8.007963e-002 
-7.828657e-002 
-7.701124e-002 
-7.574394e-002 
-7.516941e-002 
-7.492379e-002 
-7.427131e-002 
-7.647208e-002 
-7.887366e-002 
-8.170173e-002 
-8.647053e-002 
-9.053254e-002 
-9.182861e-002 
-9.007036e-002 
-8.629368e-002 
-8.333283e-002 
-8.168928e-002 
-7.911640e-002 
-7.981967e-002 
-8.163848e-002 
-8.173203e-002 
-8.311145e-002 
-8.699410e-002 
-9.257105e-002 
-1.036212e-001 
-1.206550e-001 
-1.448814e-001 
-1.786831e-001 
-2.191607e-001 
-2.700505e-001 
-3.344177e-001 
-4.087026e-001 
-4.912509e-001 
-5.844382e-001 
-6.807630e-001 
-7.759156e-001 
-8.644892e-001 
-9.408027e-001 
-1.005923e+000 
-1.057943e+000 
-1.094264e+000 
-1.118316e+000 
-1.132587e+000 
-1.131620e+000 
-1.115632e+000 
-1.081405e+000 
-1.028513e+000 
-9.613955e-001 
-8.830279e-001 
-7.959201e-001 
-7.066201e-001 
-6.163678e-001 
-5.230014e-001 
-4.311226e-001 
-3.432452e-001 
-2.625320e-001 
-1.943407e-001 
-1.397223e-001 
-9.737147e-002 
-6.491403e-002 
-3.643590e-002 
-1.009531e-002 
1.260878e-002 
3.088524e-002 
4.578986e-002 
5.666934e-002 
6.277821e-002 
6.620746e-002 
7.005628e-002 
7.305378e-002 
7.649883e-002 
8.036886e-002 
8.351519e-002 
8.840605e-002 
9.362880e-002 
9.714161e-002 
1.002185e-001 
1.027684e-001 
1.049035e-001 
1.097031e-001 
1.143999e-001 
1.180500e-001 
1.222443e-001 
1.269839e-001 
1.299879e-001 
1.331322e-001 
1.382753e-001 
1.460024e-001 
1.542934e-001 
1.584700e-001 
1.584641e-001 
1.574689e-001 
1.563424e-001 
1.555477e-001 
1.593510e-001 
1.670073e-001 
1.767223e-001 
1.842373e-001 
1.890766e-001 
1.943153e-001 
2.014475e-001 
2.097491e-001 
2.190959e-001 
2.286452e-001 
2.377004e-001 
2.438232e-001 
2.480837e-001 
2.548208e-001 
2.642526e-001 
2.763688e-001 
2.906604e-001 
3.046605e-001 
3.178445e-001 
3.296445e-001 
3.361108e-001 
3.414961e-001 
3.464749e-001 
3.503433e-001 
3.552298e-001 
3.611952e-001 
3.665515e-001 
3.728451e-001 
3.787175e-001 
3.822086e-001 
3.851348e-001 
3.851967e-001 
3.821528e-001 
3.769939e-001 
3.694122e-001 
3.585424e-001 
3.468514e-001 
3.339306e-001 
3.193412e-001 
3.037704e-001 
2.875206e-001 
2.715226e-001 
2.563464e-001 
2.397135e-001 
2.205117e-001 
2.000998e-001 
1.777270e-001 
1.543831e-001 
1.300637e-001 
1.073151e-001 
8.776058e-002 
7.169295e-002 
5.681768e-002 
4.324556e-002 
3.082539e-002 
2.016089e-002 
9.801330e-003 
-2.718150e-003 
-1.348227e-002 
-2.304987e-002 
-2.988619e-002 
-3.576723e-002 
-4.050805e-002 
-4.093767e-002 
-3.736296e-002 
-3.624502e-002 
-3.839821e-002 
-4.070268e-002 
-4.447618e-002 
-4.582811e-002 
-4.776944e-002 
-4.768955e-002 
-4.327998e-002 
-3.987979e-002 
-4.183031e-002 
-4.405652e-002 
-4.430332e-002 
-4.318221e-002 
-4.007941e-002 
-3.962894e-002 
-3.830920e-002 
-3.781067e-002 
-4.121434e-002 
-4.603664e-002 
-4.866885e-002 
-4.974152e-002 
-4.926713e-002 
-4.746523e-002 
-4.298890e-002 
-3.506373e-002 
-3.057136e-002 
-2.939556e-002 
-3.081990e-002 
-3.396405e-002 
-3.679254e-002 
-3.882778e-002 
-3.815763e-002 
-3.323986e-002 
-2.975560e-002 
-3.030049e-002 
-3.049842e-002 
-3.041405e-002 
-2.914503e-002 
-2.865840e-002 
-3.002015e-002 
-3.077134e-002 
-3.208622e-002 
-3.577756e-002 
-3.863513e-002 
-3.965951e-002 
-3.951632e-002 
-3.822981e-002 
-3.724694e-002 
-3.550445e-002 
-3.252329e-002 
-3.122022e-002 
-3.136492e-002 
-3.230051e-002 
-3.439836e-002 
-3.637016e-002 
-3.810631e-002 
-4.034461e-002 
-4.262922e-002 
-4.509802e-002 
-4.687343e-002 
-4.769966e-002 
-4.775099e-002 
-4.937632e-002 
-5.225857e-002 
-5.499488e-002 
-5.689133e-002 
-5.852183e-002 
-5.930583e-002 
-5.994596e-002 
-5.996568e-002 
-5.986112e-002 
-6.270889e-002 
-6.342014e-002 
-6.173181e-002 
-5.861867e-002 
-5.725919e-002 
-5.833239e-002 
-5.849739e-002 
-5.548076e-002 
-5.447393e-002 
-5.450605e-002 
-5.183607e-002 
-4.716801e-002 
-4.188429e-002 
-3.769636e-002 
-3.230758e-002 
-2.370779e-002 
-1.780207e-002 
-1.693021e-002 
-1.544207e-002 
-1.079324e-002 
-4.118926e-003 
2.504113e-003 
9.149099e-003 
1.491123e-002 
1.877453e-002 
1.916455e-002 
2.198135e-002 
2.735518e-002 
3.263970e-002 
3.711979e-002 
3.941200e-002 
3.729539e-002 
3.116767e-002 
2.326275e-002 
1.984624e-002 
2.095932e-002 
2.200899e-002 
2.607336e-002 
3.222758e-002 
3.560086e-002 
3.476270e-002 
3.164181e-002 
2.937263e-002 
2.962626e-002 
2.728761e-002 
2.589501e-002 
2.584169e-002 
2.416550e-002 
1.914338e-002 
1.326472e-002 
8.978247e-003 
5.583081e-003 
9.194551e-004 
-5.000105e-003 
-1.001451e-002 
-1.560827e-002 
-2.275317e-002 
-3.183637e-002 
-3.991270e-002 
-4.646221e-002 
-5.228835e-002 
-5.539384e-002 
-5.417508e-002 
-4.886151e-002 
-4.349301e-002 
-4.065161e-002 
-3.749743e-002 
-3.357597e-002 
-2.996341e-002 
-2.746855e-002 
-2.700936e-002 
-3.085666e-002 
-4.147724e-002 
-6.454178e-002 
-9.611617e-002 
-1.349872e-001 
-1.840577e-001 
-2.414750e-001 
-3.083317e-001 
-3.864772e-001 
-4.727441e-001 
-5.655633e-001 
-6.620946e-001 
-7.531529e-001 
-8.360377e-001 
-9.061681e-001 
-9.603364e-001 
-1.002886e+000 
-1.034559e+000 
-1.052086e+000 
-1.057444e+000 
-1.046932e+000 
-1.015290e+000 
-9.634439e-001 
-8.933255e-001 
-8.113104e-001 
-7.248695e-001 
-6.347536e-001 
-5.423551e-001 
-4.510041e-001 
-3.581064e-001 
-2.668717e-001 
-1.842662e-001 
-1.129221e-001 
-5.605648e-002 
-1.406373e-002 
1.858649e-002 
4.543530e-002 
6.886070e-002 
9.170692e-002 
1.104501e-001 
1.240017e-001 
1.339688e-001 
1.386846e-001 
1.402214e-001 
1.420605e-001 
1.438522e-001 
1.463620e-001 
1.503246e-001 
1.533184e-001 
1.577538e-001 
1.635641e-001 
1.667392e-001 
1.685956e-001 
1.686610e-001 
1.670598e-001 
1.657628e-001 
1.640538e-001 
1.626571e-001 
1.644990e-001 
1.667688e-001 
1.682639e-001 
1.726368e-001 
1.788235e-001 
1.848431e-001 
1.898850e-001 
1.938602e-001 
1.971297e-001 
1.999232e-001 
2.022904e-001 
2.056891e-001 
2.126220e-001 
2.212692e-001 
2.279913e-001 
2.355100e-001 
2.430154e-001 
2.470495e-001 
2.487022e-001 
2.503850e-001 
2.527189e-001 
2.566908e-001 
2.593030e-001 
2.618445e-001 
2.681908e-001 
2.733387e-001 
2.778861e-001 
2.853822e-001 
2.980359e-001 
3.108132e-001 
3.201662e-001 
3.264723e-001 
3.318435e-001 
3.359248e-001 
3.393510e-001 
3.428480e-001 
3.487638e-001 
3.584088e-001 
3.649146e-001 
3.699085e-001 
3.749439e-001 
3.782078e-001 
3.794279e-001 
3.788665e-001 
3.743551e-001 
3.710934e-001 
3.680401e-001 
3.617575e-001 
3.561564e-001 
3.509639e-001 
3.440790e-001 
3.375436e-001 
3.308320e-001 
3.217641e-001 
3.141365e-001 
3.042886e-001 
2.910142e-001 
2.753769e-001 
2.570985e-001 
2.355995e-001 
2.145838e-001 
1.947341e-001 
1.783582e-001 
1.665748e-001 
1.538947e-001 
1.404845e-001 
1.267117e-001 
1.096428e-001 
9.011274e-002 
7.432547e-002 
6.204172e-002 
5.372917e-002 
4.717823e-002 
4.013426e-002 
3.368162e-002 
2.827421e-002 
2.224735e-002 
1.807387e-002 
1.708535e-002 
1.642745e-002 
1.775918e-002 
1.649088e-002 
1.106020e-002 
5.199660e-003 
1.181293e-003 
-2.872594e-003 
-4.448605e-003 
-1.416935e-003 
3.701421e-003 
8.250645e-003 
8.415626e-003 
5.610904e-003 
1.661104e-003 
-2.553336e-003 
-6.919971e-003 
-7.557740e-003 
-4.346186e-003 
-4.291929e-004 
2.934200e-003 
7.200327e-003 
1.001106e-002 
1.186953e-002 
1.513283e-002 
1.870863e-002 
2.248656e-002 
2.489847e-002 
2.422530e-002 
2.368148e-002 
2.461230e-002 
2.421108e-002 
2.773003e-002 
3.650809e-002 
4.573627e-002 
5.100040e-002 
5.332096e-002 
5.251416e-002 
5.005378e-002 
4.499199e-002 
3.901157e-002 
3.762295e-002 
3.644605e-002 
3.332338e-002 
3.080908e-002 
2.988885e-002 
2.953362e-002 
2.912924e-002 
2.639028e-002 
2.439125e-002 
2.104510e-002 
1.465758e-002 
9.225289e-003 
5.732330e-003 
4.768656e-003 
6.459626e-003 
6.841741e-003 
7.114814e-003 
9.932308e-003 
1.169985e-002 
1.486893e-002 
1.831349e-002 
2.010572e-002 
1.851721e-002 
1.194761e-002 
3.975158e-003 
9.617657e-004 
1.445236e-003 
3.771776e-003 
7.674463e-003 
1.049210e-002 
1.016099e-002 
5.240256e-003 
-1.523787e-004 
-2.165632e-003 
-2.505377e-003 
-5.193598e-003 
-8.419251e-003 
-1.005097e-002 
-1.108141e-002 
-1.210765e-002 
-1.221485e-002 
-8.978858e-003 
-3.997904e-003 
-1.077366e-003 
-7.265926e-004 
-7.123896e-005 
9.621846e-004 
1.116376e-003 
1.796231e-003 
4.681264e-003 
1.094664e-002 
1.965574e-002 
2.833013e-002 
3.727791e-002 
4.794279e-002 
5.848672e-002 
6.743349e-002 
7.485103e-002 
8.002580e-002 
8.248333e-002 
8.339944e-002 
8.354344e-002 
8.582089e-002 
8.821383e-002 
8.822458e-002 
8.653797e-002 
8.344104e-002 
7.666962e-002 
6.906887e-002 
6.234332e-002 
5.497380e-002 
4.672911e-002 
3.433407e-002 
2.218564e-002 
1.241775e-002 
3.464041e-003 
-2.857369e-003 
-4.520638e-003 
-6.166214e-003 
-9.484062e-003 
-1.514692e-002 
-2.214993e-002 
-2.785225e-002 
-3.312002e-002 
-3.628370e-002 
-3.712258e-002 
-3.731797e-002 
-4.016290e-002 
-4.478946e-002 
-4.821519e-002 
-4.982693e-002 
-5.117416e-002 
-5.065874e-002 
-4.868908e-002 
-4.652549e-002 
-4.503600e-002 
-4.566459e-002 
-4.332684e-002 
-3.838592e-002 
-3.429703e-002 
-3.161312e-002 
-2.905920e-002 
-3.038897e-002 
-4.004610e-002 
-6.019120e-002 
-9.081149e-002 
-1.329983e-001 
-1.898886e-001 
-2.555649e-001 
-3.294451e-001 
-4.104801e-001 
-4.986251e-001 
-5.909021e-001 
-6.799272e-001 
-7.613898e-001 
-8.324344e-001 
-8.878861e-001 
-9.279523e-001 
-9.610637e-001 
-9.856579e-001 
-9.997427e-001 
-9.958317e-001 
-9.699602e-001 
-9.234508e-001 
-8.580379e-001 
-7.797958e-001 
-6.974150e-001 
-6.120235e-001 
-5.235411e-001 
-4.321771e-001 
-3.394440e-001 
-2.535869e-001 
-1.765364e-001 
-1.114765e-001 
-6.032528e-002 
-1.879178e-002 
1.774981e-002 
4.884720e-002 
7.609792e-002 
9.776536e-002 
1.150682e-001 
1.292362e-001 
1.399365e-001 
1.484179e-001 
1.536143e-001 
1.562005e-001 
1.562333e-001 
1.553126e-001 
1.569422e-001 
1.613104e-001 
1.671587e-001 
1.744037e-001 
1.789170e-001 
1.800100e-001 
1.801354e-001 
1.779176e-001 
1.767409e-001 
1.799054e-001 
1.843518e-001 
1.905095e-001 
1.969532e-001 
2.021950e-001 
2.069306e-001 
2.105086e-001 
2.117257e-001 
2.140427e-001 
2.163238e-001 
2.159051e-001 
2.154095e-001 
2.158417e-001 
2.178706e-001 
2.202808e-001 
2.235525e-001 
2.278258e-001 
2.321549e-001 
2.343022e-001 
2.361705e-001 
2.395014e-001 
2.436034e-001 
2.462612e-001 
2.488590e-001 
2.544019e-001 
2.607178e-001 
2.667591e-001 
2.761281e-001 
2.909809e-001 
3.047757e-001 
3.152903e-001 
3.234177e-001 
3.316767e-001 
3.385698e-001 
3.421031e-001 
3.450412e-001 
3.517981e-001 
3.598926e-001 
3.682126e-001 
3.806635e-001 
3.939949e-001 
4.051327e-001 
4.106283e-001 
4.105156e-001 
4.076274e-001 
4.029546e-001 
3.972288e-001 
3.941938e-001 
3.893076e-001 
3.785438e-001 
3.658383e-001 
3.524736e-001 
3.409362e-001 
3.317572e-001 
3.223200e-001 
3.115870e-001 
2.975314e-001 
2.752489e-001 
2.482516e-001 
2.225725e-001 
1.996383e-001 
1.810548e-001 
1.672281e-001 
1.566663e-001 
1.468921e-001 
1.369231e-001 
1.239591e-001 
1.103317e-001 
9.774201e-002 
8.557020e-002 
7.555776e-002 
6.893614e-002 
6.278133e-002 
5.680977e-002 
5.252896e-002 
4.853100e-002 
4.786446e-002 
4.936155e-002 
5.145409e-002 
5.613542e-002 
6.084472e-002 
6.274109e-002 
6.335313e-002 
6.165237e-002 
5.879453e-002 
5.821757e-002 
5.924698e-002 
6.276361e-002 
6.973259e-002 
7.550138e-002 
7.846277e-002 
7.789575e-002 
7.326442e-002 
6.718379e-002 
6.315974e-002 
6.149212e-002 
6.165738e-002 
6.282485e-002 
6.364644e-002 
6.387165e-002 
6.239992e-002 
5.917924e-002 
5.763945e-002 
5.896936e-002 
6.004080e-002 
6.000030e-002 
5.864837e-002 
5.818620e-002 
5.619737e-002 
5.332287e-002 
5.244643e-002 
5.557621e-002 
6.008666e-002 
6.414673e-002 
6.461791e-002 
6.318814e-002 
6.311380e-002 
6.095424e-002 
5.898652e-002 
5.719488e-002 
5.677240e-002 
5.666525e-002 
5.596865e-002 
5.475684e-002 
5.906186e-002 
6.520136e-002 
6.795969e-002 
6.859286e-002 
6.675718e-002 
6.327985e-002 
5.900271e-002 
5.695996e-002 
5.752683e-002 
5.968518e-002 
5.938950e-002 
5.707784e-002 
5.380422e-002 
5.028912e-002 
4.874460e-002 
5.053180e-002 
5.216543e-002 
4.931448e-002 
4.265249e-002 
3.392741e-002 
2.440595e-002 
1.696806e-002 
1.478362e-002 
1.685788e-002 
1.890222e-002 
1.647115e-002 
1.196640e-002 
7.142978e-003 
1.899932e-003 
-9.445803e-004 
4.675741e-004 
3.881146e-003 
4.102040e-003 
-6.266498e-004 
-6.919227e-003 
-9.005230e-003 
-9.535914e-003 
-7.237661e-003 
8.156959e-005 
9.754279e-003 
1.599444e-002 
1.632130e-002 
1.573505e-002 
1.838096e-002 
2.501574e-002 
3.285346e-002 
4.314320e-002 
5.374415e-002 
6.338914e-002 
6.834950e-002 
7.108885e-002 
7.633860e-002 
8.164194e-002 
8.436595e-002 
8.462881e-002 
8.100826e-002 
7.572875e-002 
7.087220e-002 
6.412847e-002 
5.947391e-002 
5.717300e-002 
5.247811e-002 
4.439946e-002 
3.445501e-002 
2.211381e-002 
1.061227e-002 
-7.106666e-004 
-1.064557e-002 
-1.804371e-002 
-2.445594e-002 
-3.155036e-002 
-3.955286e-002 
-4.438502e-002 
-4.788953e-002 
-5.050126e-002 
-5.148411e-002 
-5.259826e-002 
-5.487906e-002 
-5.900776e-002 
-6.677756e-002 
-7.350601e-002 
-7.537095e-002 
-7.721609e-002 
-7.401041e-002 
-6.719158e-002 
-6.023089e-002 
-5.484684e-002 
-5.281674e-002 
-5.335815e-002 
-5.381799e-002 
-5.508760e-002 
-5.879077e-002 
-6.448594e-002 
-7.699264e-002 
-9.746603e-002 
-1.269823e-001 
-1.641839e-001 
-2.109277e-001 
-2.640712e-001 
-3.253925e-001 
-3.971415e-001 
-4.747344e-001 
-5.519634e-001 
-6.229358e-001 
-6.817154e-001 
-7.272583e-001 
-7.618046e-001 
-7.885909e-001 
-8.131051e-001 
-8.309186e-001 
-8.366096e-001 
-8.252831e-001 
-7.949250e-001 
-7.487616e-001 
-6.933121e-001 
-6.346785e-001 
-5.763031e-001 
-5.139439e-001 
-4.455997e-001 
-3.711700e-001 
-2.934322e-001 
-2.209091e-001 
-1.597662e-001 
-1.128956e-001 
-8.152539e-002 
-6.046205e-002 
-4.172179e-002 
-2.394545e-002 
-5.823675e-003 
1.263811e-002 
3.042250e-002 
4.579593e-002 
5.771647e-002 
6.426764e-002 
6.785189e-002 
7.187108e-002 
7.405248e-002 
7.549513e-002 
7.940105e-002 
8.264973e-002 
8.445029e-002 
8.656754e-002 
8.784892e-002 
9.061142e-002 
9.698325e-002 
1.016927e-001 
1.055292e-001 
1.094921e-001 
1.115154e-001 
1.133498e-001 
1.149277e-001 
1.144826e-001 
1.151397e-001 
1.164018e-001 
1.162373e-001 
1.188756e-001 
1.259700e-001 
1.360142e-001 
1.463369e-001 
1.534972e-001 
1.564322e-001 
1.577192e-001 
1.567450e-001 
1.564711e-001 
1.605972e-001 
1.675544e-001 
1.739200e-001 
1.797723e-001 
1.851507e-001 
1.905957e-001 
1.967208e-001 
2.035214e-001 
2.106349e-001 
2.173646e-001 
2.200014e-001 
2.211324e-001 
2.249704e-001 
2.299847e-001 
2.360995e-001 
2.445128e-001 
2.544521e-001 
2.652090e-001 
2.745366e-001 
2.800571e-001 
2.860443e-001 
2.909212e-001 
2.931696e-001 
2.941947e-001 
2.955062e-001 
2.994473e-001 
3.046856e-001 
3.081065e-001 
3.116222e-001 
3.159035e-001 
3.189360e-001 
3.185315e-001 
3.121542e-001 
3.048535e-001 
2.967304e-001 
2.845752e-001 
2.710777e-001 
2.581585e-001 
2.450977e-001 
2.315645e-001 
2.152368e-001 
1.992539e-001 
1.864584e-001 
1.710800e-001 
1.517960e-001 
1.306974e-001 
1.082878e-001 
8.531551e-002 
6.562155e-002 
5.020591e-002 
3.997518e-002 
3.218224e-002 
2.348691e-002 
1.454504e-002 
5.232810e-003 
-4.723379e-003 
-1.314789e-002 
-1.904784e-002 
-2.422028e-002 
-2.928362e-002 
-3.603720e-002 
-4.200210e-002 
-4.741937e-002 
-5.272332e-002 
-5.477562e-002 
-5.341550e-002 
-5.084229e-002 
-4.824055e-002 
-4.801112e-002 
-5.091944e-002 
-5.356514e-002 
-5.686131e-002 
-5.817914e-002 
-5.517174e-002 
-4.952700e-002 
-4.280859e-002 
-3.582453e-002 
-3.269952e-002 
-3.254141e-002 
-3.227506e-002 
-3.517723e-002 
-3.770812e-002 
-3.740148e-002 
-3.845861e-002 
-4.027325e-002 
-4.288520e-002 
-4.702609e-002 
-4.907724e-002 
-4.937510e-002 
-5.003954e-002 
-4.613513e-002 
-4.207238e-002 
-4.229309e-002 
-4.142662e-002 
-4.063425e-002 
-4.113945e-002 
-4.244782e-002 
-4.336012e-002 
-4.546157e-002 
-4.497197e-002 
-4.399524e-002 
-4.109497e-002 
-3.488091e-002 
-3.253160e-002 
-3.440535e-002 
-3.817896e-002 
-4.372063e-002 
-5.098816e-002 
-5.353571e-002 
-5.452405e-002 
-5.336290e-002 
-5.377075e-002 
-5.639401e-002 
-5.738227e-002 
-5.896907e-002 
-5.932036e-002 
-5.802700e-002 
-5.539198e-002 
-5.366559e-002 
-5.214405e-002 
-5.340861e-002 
-5.227848e-002 
-5.280676e-002 
-5.584667e-002 
-5.598474e-002 
-5.647125e-002 
-5.652700e-002 
-5.438521e-002 
-5.277782e-002 
-5.324436e-002 
-5.502572e-002 
-6.195697e-002 
-6.686664e-002 
-6.739555e-002 
-6.586042e-002 
-6.102234e-002 
-5.439757e-002 
-4.956364e-002 
-4.737921e-002 
-4.780865e-002 
-4.975749e-002 
-5.087588e-002 
-5.075986e-002 
-5.051678e-002 
-5.082460e-002 
-5.124614e-002 
-4.991769e-002 
-4.725413e-002 
-4.272609e-002 
-3.689660e-002 
-3.048992e-002 
-2.383388e-002 
-1.999157e-002 
-1.858014e-002 
-1.655846e-002 
-1.229113e-002 
-9.001247e-003 
-5.017787e-003 
1.091791e-003 
9.075758e-003 
1.641402e-002 
2.459155e-002 
3.467528e-002 
4.363751e-002 
4.915613e-002 
4.795549e-002 
4.310140e-002 
3.727886e-002 
2.828832e-002 
1.968130e-002 
1.745626e-002 
1.650224e-002 
1.487355e-002 
1.474496e-002 
1.334231e-002 
1.178862e-002 
7.913314e-003 
2.169509e-003 
-8.440822e-004 
-3.716720e-003 
-8.146016e-003 
-1.257766e-002 
-1.657467e-002 
-2.050172e-002 
-2.432839e-002 
-2.744146e-002 
-2.543512e-002 
-2.314770e-002 
-2.416982e-002 
-2.855366e-002 
-3.728869e-002 
-4.650933e-002 
-5.533798e-002 
-6.219610e-002 
-6.402782e-002 
-6.117800e-002 
-6.059516e-002 
-6.249472e-002 
-6.536365e-002 
-6.641219e-002 
-6.634073e-002 
-6.505566e-002 
-6.334749e-002 
-6.174526e-002 
-6.086781e-002 
-6.444566e-002 
-7.064867e-002 
-7.693229e-002 
-8.333635e-002 
-9.358820e-002 
-1.107730e-001 
-1.381207e-001 
-1.744484e-001 
-2.209295e-001 
-2.788643e-001 
-3.449416e-001 
-4.165304e-001 
-4.926642e-001 
-5.757927e-001 
-6.642976e-001 
-7.500943e-001 
-8.271564e-001 
-8.939868e-001 
-9.486221e-001 
-9.903514e-001 
-1.021668e+000 
-1.043687e+000 
-1.059250e+000 
-1.062239e+000 
-1.043651e+000 
-1.004625e+000 
-9.490637e-001 
-8.795256e-001 
-8.020250e-001 
-7.214563e-001 
-6.392397e-001 
-5.582748e-001 
-4.751438e-001 
-3.903748e-001 
-3.114855e-001 
-2.413300e-001 
-1.813174e-001 
-1.330805e-001 
-9.415551e-002 
-6.173286e-002 
-3.409008e-002 
-8.501325e-003 
1.468692e-002 
3.399244e-002 
4.845584e-002 
5.731720e-002 
6.229296e-002 
6.635920e-002 
6.951563e-002 
7.355454e-002 
7.968238e-002 
8.929604e-002 
9.940477e-002 
1.064841e-001 
1.108360e-001 
1.134746e-001 
1.143151e-001 
1.131160e-001 
1.127356e-001 
1.137914e-001 
1.172380e-001 
1.191332e-001 
1.222795e-001 
1.277738e-001 
1.330414e-001 
1.369213e-001 
1.379451e-001 
1.377696e-001 
1.362838e-001 
1.341557e-001 
1.342625e-001 
1.380614e-001 
1.430906e-001 
1.487173e-001 
1.526196e-001 
1.570302e-001 
1.625700e-001 
1.666964e-001 
1.719515e-001 
1.772150e-001 
1.797119e-001 
1.832818e-001 
1.871172e-001 
1.923578e-001 
2.024711e-001 
2.131972e-001 
2.242453e-001 
2.362111e-001 
2.469725e-001 
2.574888e-001 
2.676109e-001 
2.764233e-001 
2.868898e-001 
2.963227e-001 
3.033939e-001 
3.104051e-001 
3.177086e-001 
3.269084e-001 
3.364056e-001 
3.445638e-001 
3.532770e-001 
3.600167e-001 
3.615882e-001 
3.596075e-001 
3.563612e-001 
3.542202e-001 
3.542492e-001 
3.516772e-001 
3.483139e-001 
3.466649e-001 
3.427687e-001 
3.361976e-001 
3.286534e-001 
3.196053e-001 
3.099548e-001 
2.946673e-001 
2.741033e-001 
2.553836e-001 
2.372149e-001 
2.160867e-001 
1.956389e-001 
1.752683e-001 
1.546622e-001 
1.362383e-001 
1.168966e-001 
1.009937e-001 
8.778840e-002 
7.204482e-002 
5.445392e-002 
3.838220e-002 
2.045782e-002 
5.184108e-003 
-6.977374e-003 
-1.704977e-002 
-2.232412e-002 
-2.572721e-002 
-3.004027e-002 
-3.325167e-002 
-3.680491e-002 
-4.273844e-002 
-4.915926e-002 
-5.590419e-002 
-6.006612e-002 
-6.319656e-002 
-6.743579e-002 
-6.987716e-002 
-6.951062e-002 
-6.845938e-002 
-6.559563e-002 
-6.135982e-002 
-5.436963e-002 
-4.906417e-002 
-4.810099e-002 
-4.778183e-002 
-4.749066e-002 
-4.837455e-002 
-4.743507e-002 
-4.315600e-002 
-3.702082e-002 
-3.080290e-002 
-2.602399e-002 
-2.134076e-002 
-1.724737e-002 
-1.393555e-002 
-1.070662e-002 
-8.311239e-003 
-7.071478e-003 
-8.428939e-003 
-1.085353e-002 
-1.273123e-002 
-1.502862e-002 
-1.367233e-002 
-9.978882e-003 
-9.018913e-003 
-1.064584e-002 
-1.296258e-002 
-1.852829e-002 
-2.581316e-002 
-3.514888e-002 
-4.193199e-002 
-4.412318e-002 
-4.750780e-002 
-5.100218e-002 
-5.165969e-002 
-5.132279e-002 
-5.215196e-002 
-5.289230e-002 
-5.243990e-002 
-4.906005e-002 
-4.601066e-002 
-4.526160e-002 
-4.630342e-002 
-4.770702e-002 
-4.877277e-002 
-4.795893e-002 
-4.369495e-002 
-3.660386e-002 
-2.965715e-002 
-2.531774e-002 
-2.670247e-002 
-3.295694e-002 
-3.767639e-002 
-4.109275e-002 
-4.256968e-002 
-3.973404e-002 
-3.644260e-002 
-3.508862e-002 
-3.522908e-002 
-3.876446e-002 
-4.034400e-002 
-3.747416e-002 
-3.542474e-002 
-3.285041e-002 
-3.017179e-002 
-3.261330e-002 
-3.742650e-002 
-4.129507e-002 
-4.504092e-002 
-4.546649e-002 
-4.288883e-002 
-4.023104e-002 
-3.589298e-002 
-3.261077e-002 
-3.379829e-002 
-3.557499e-002 
-3.810659e-002 
-4.086862e-002 
-3.980014e-002 
