55
0.5208
1785
25.9599
9.064396e-004 
2.406080e-003 
3.806716e-003 
5.232528e-003 
6.642447e-003 
8.036554e-003 
9.455868e-003 
1.077658e-002 
1.268842e-002 
1.612657e-002 
1.905615e-002 
2.162452e-002 
2.324258e-002 
2.363768e-002 
2.364948e-002 
2.441299e-002 
2.635870e-002 
2.945093e-002 
3.235181e-002 
3.285858e-002 
3.154337e-002 
2.907937e-002 
2.778948e-002 
2.777452e-002 
2.831705e-002 
2.805167e-002 
2.662822e-002 
2.515049e-002 
2.392988e-002 
2.322369e-002 
2.340797e-002 
2.413188e-002 
2.386244e-002 
2.239041e-002 
2.154948e-002 
2.245879e-002 
2.498879e-002 
2.573727e-002 
2.394424e-002 
2.225589e-002 
2.215519e-002 
2.264406e-002 
2.291777e-002 
2.412892e-002 
2.429446e-002 
2.210196e-002 
1.779155e-002 
1.512848e-002 
1.519459e-002 
1.514480e-002 
1.251730e-002 
8.400701e-003 
6.440094e-003 
5.155026e-003 
3.689151e-003 
2.124471e-003 
9.584367e-004 
-1.116081e-003 
-3.147009e-003 
-4.233220e-003 
-4.308911e-003 
-2.864275e-003 
-3.375938e-003 
-5.250580e-003 
-6.344127e-003 
-5.722880e-003 
-4.543443e-003 
-4.553594e-003 
-7.034866e-003 
-9.809317e-003 
-1.074386e-002 
-1.138151e-002 
-1.105428e-002 
-1.079028e-002 
-1.147159e-002 
-1.396222e-002 
-1.686492e-002 
-1.795362e-002 
-1.698380e-002 
-1.562796e-002 
-1.671336e-002 
-1.907223e-002 
-2.014261e-002 
-1.904339e-002 
-1.779870e-002 
-1.636671e-002 
-1.596812e-002 
-1.577531e-002 
-1.590487e-002 
-1.577187e-002 
-1.400199e-002 
-1.152969e-002 
-1.195234e-002 
-1.441173e-002 
-1.495069e-002 
-1.417230e-002 
-1.316588e-002 
-1.244838e-002 
-1.234289e-002 
-1.415524e-002 
-1.509968e-002 
-1.502697e-002 
-1.256456e-002 
-9.380088e-003 
-9.033986e-003 
-9.219888e-003 
-7.050148e-003 
-3.228563e-003 
1.270074e-003 
6.653698e-003 
9.887911e-003 
1.234555e-002 
1.437989e-002 
1.680749e-002 
2.062599e-002 
2.293399e-002 
2.208999e-002 
1.857605e-002 
1.456551e-002 
1.018840e-002 
6.916855e-003 
2.893193e-003 
-2.624315e-003 
-1.005169e-002 
-1.851894e-002 
-2.472171e-002 
-2.910274e-002 
-3.451842e-002 
-4.034862e-002 
-4.456658e-002 
-4.879601e-002 
-5.221488e-002 
-5.478238e-002 
-5.637650e-002 
-5.724010e-002 
-5.894398e-002 
-5.958248e-002 
-5.711284e-002 
-5.393860e-002 
-5.295574e-002 
-5.359515e-002 
-5.426782e-002 
-5.369968e-002 
-5.157751e-002 
-4.869159e-002 
-4.687976e-002 
-4.782466e-002 
-4.963576e-002 
-4.944185e-002 
-4.660945e-002 
-4.243575e-002 
-3.866921e-002 
-3.588345e-002 
-3.264637e-002 
-2.731382e-002 
-1.723410e-002 
2.496724e-004 
2.204009e-002 
4.085763e-002 
5.743104e-002 
7.448075e-002 
9.017168e-002 
1.018298e-001 
1.052784e-001 
9.872972e-002 
8.216480e-002 
5.365792e-002 
1.500733e-002 
-2.395488e-002 
-6.250708e-002 
-1.015688e-001 
-1.373349e-001 
-1.716795e-001 
-2.049788e-001 
-2.376934e-001 
-2.725604e-001 
-3.057421e-001 
-3.294102e-001 
-3.434840e-001 
-3.448614e-001 
-3.360168e-001 
-3.241223e-001 
-3.077204e-001 
-2.863874e-001 
-2.585276e-001 
-2.188640e-001 
-1.712129e-001 
-1.256196e-001 
-8.725026e-002 
-6.051316e-002 
-4.354705e-002 
-3.140189e-002 
-2.159286e-002 
-1.061656e-002 
1.435620e-003 
9.750188e-003 
1.418662e-002 
1.773240e-002 
2.126094e-002 
2.319190e-002 
2.337180e-002 
2.392636e-002 
2.588418e-002 
2.792449e-002 
2.831379e-002 
2.866973e-002 
2.909626e-002 
2.771671e-002 
2.558087e-002 
2.567032e-002 
2.831334e-002 
2.936325e-002 
2.749773e-002 
2.485356e-002 
2.478480e-002 
2.486462e-002 
2.444922e-002 
2.508104e-002 
2.572925e-002 
2.428908e-002 
2.098958e-002 
1.904099e-002 
1.945462e-002 
2.024632e-002 
1.772748e-002 
1.558373e-002 
1.542876e-002 
1.571256e-002 
1.499171e-002 
1.522981e-002 
1.508060e-002 
1.378430e-002 
1.334884e-002 
1.422748e-002 
1.658557e-002 
1.779088e-002 
1.632287e-002 
1.541921e-002 
1.712665e-002 
1.729952e-002 
1.812669e-002 
2.101272e-002 
2.164311e-002 
1.937844e-002 
1.779382e-002 
1.826924e-002 
2.121220e-002 
2.276694e-002 
2.056612e-002 
1.943676e-002 
1.996741e-002 
1.903999e-002 
1.913232e-002 
1.969167e-002 
1.804867e-002 
1.697459e-002 
1.433964e-002 
1.280221e-002 
1.435012e-002 
1.445403e-002 
1.166091e-002 
8.949637e-003 
4.667682e-003 
2.726638e-003 
3.197044e-003 
1.243204e-003 
1.742445e-004 
-2.256702e-003 
-6.455243e-003 
-8.362967e-003 
-9.316414e-003 
-1.143377e-002 
-1.191371e-002 
-1.406312e-002 
-1.644358e-002 
-1.637178e-002 
-1.722808e-002 
-1.916618e-002 
-2.152022e-002 
-2.481108e-002 
-2.671385e-002 
-2.716781e-002 
-2.723457e-002 
-2.724902e-002 
-2.910584e-002 
-3.395393e-002 
-3.898605e-002 
-4.180205e-002 
-4.420117e-002 
-4.691807e-002 
-5.025924e-002 
-5.298669e-002 
-5.643308e-002 
-5.901640e-002 
-6.050192e-002 
-6.086210e-002 
-6.265934e-002 
-6.474150e-002 
-6.427545e-002 
-6.207442e-002 
-5.877921e-002 
-5.698552e-002 
-5.555181e-002 
-5.452178e-002 
-5.246917e-002 
-4.900772e-002 
-4.145516e-002 
-3.473785e-002 
-2.998072e-002 
-2.583301e-002 
-2.261687e-002 
-1.709820e-002 
-1.126014e-002 
-6.197203e-003 
-2.487713e-003 
1.836282e-004 
1.212486e-003 
3.567321e-003 
7.266143e-003 
1.121435e-002 
1.332032e-002 
1.294215e-002 
1.283968e-002 
1.324421e-002 
1.451550e-002 
1.481873e-002 
1.411955e-002 
1.344227e-002 
1.142469e-002 
9.518584e-003 
1.013922e-002 
1.053526e-002 
9.709863e-003 
9.009394e-003 
7.676117e-003 
8.183622e-003 
9.414674e-003 
1.023997e-002 
1.112538e-002 
1.126766e-002 
1.029800e-002 
1.037499e-002 
1.212212e-002 
1.349228e-002 
1.431629e-002 
1.476705e-002 
1.653222e-002 
1.796652e-002 
2.029943e-002 
2.109703e-002 
2.028846e-002 
1.996178e-002 
2.017503e-002 
2.200324e-002 
2.513681e-002 
2.678948e-002 
2.628805e-002 
2.603611e-002 
2.476349e-002 
2.508516e-002 
2.791948e-002 
3.080782e-002 
3.131901e-002 
3.028716e-002 
3.042285e-002 
3.168834e-002 
3.406342e-002 
3.657674e-002 
3.763266e-002 
3.834684e-002 
3.917551e-002 
3.940681e-002 
4.171791e-002 
4.400229e-002 
4.334282e-002 
4.336830e-002 
4.336418e-002 
4.330651e-002 
4.539322e-002 
4.672216e-002 
4.620591e-002 
4.638575e-002 
4.507792e-002 
4.566883e-002 
4.906074e-002 
5.073868e-002 
5.107222e-002 
5.061830e-002 
5.034671e-002 
5.212550e-002 
5.447888e-002 
5.514310e-002 
5.664314e-002 
5.655743e-002 
5.588502e-002 
5.705238e-002 
5.867076e-002 
5.975072e-002 
6.013047e-002 
5.914234e-002 
5.891356e-002 
6.053565e-002 
6.172893e-002 
6.309280e-002 
6.297754e-002 
6.163757e-002 
6.165636e-002 
6.307371e-002 
6.509575e-002 
6.742174e-002 
6.736863e-002 
6.636739e-002 
6.779820e-002 
7.038405e-002 
7.362255e-002 
7.628760e-002 
7.669819e-002 
7.674617e-002 
7.630483e-002 
7.678904e-002 
8.049547e-002 
8.429768e-002 
8.516652e-002 
8.543724e-002 
8.643968e-002 
8.907507e-002 
9.267757e-002 
9.512186e-002 
9.708216e-002 
9.730912e-002 
9.671664e-002 
9.770318e-002 
1.013589e-001 
1.039331e-001 
1.048954e-001 
1.046611e-001 
1.053930e-001 
1.080307e-001 
1.109562e-001 
1.133571e-001 
1.160399e-001 
1.179744e-001 
1.182172e-001 
1.200162e-001 
1.229153e-001 
1.266299e-001 
1.290844e-001 
1.304931e-001 
1.327447e-001 
1.370693e-001 
1.414436e-001 
1.451237e-001 
1.481489e-001 
1.500936e-001 
1.522977e-001 
1.551920e-001 
1.598249e-001 
1.637659e-001 
1.654672e-001 
1.666697e-001 
1.691992e-001 
1.729460e-001 
1.769631e-001 
1.805846e-001 
1.834862e-001 
1.851396e-001 
1.858553e-001 
1.888198e-001 
1.939402e-001 
1.976657e-001 
1.988058e-001 
1.992533e-001 
2.005993e-001 
2.037944e-001 
2.070197e-001 
2.101826e-001 
2.136288e-001 
2.149129e-001 
2.151683e-001 
2.181793e-001 
2.219377e-001 
2.248620e-001 
2.278291e-001 
2.279921e-001 
2.290772e-001 
2.320728e-001 
2.345783e-001 
2.376426e-001 
2.400396e-001 
2.403330e-001 
2.416751e-001 
2.447382e-001 
2.470816e-001 
2.506472e-001 
2.522785e-001 
2.525005e-001 
2.537014e-001 
2.559660e-001 
2.599827e-001 
2.636396e-001 
2.648977e-001 
2.652764e-001 
2.667832e-001 
2.682286e-001 
2.718403e-001 
2.749718e-001 
2.778047e-001 
2.801261e-001 
2.807278e-001 
2.829326e-001 
2.883631e-001 
2.924307e-001 
2.940120e-001 
2.954540e-001 
2.976759e-001 
3.031449e-001 
3.082979e-001 
3.135482e-001 
3.200489e-001 
3.265515e-001 
3.317224e-001 
3.381615e-001 
3.457152e-001 
3.537585e-001 
3.594243e-001 
3.623548e-001 
3.662416e-001 
3.700911e-001 
3.736130e-001 
3.743786e-001 
3.725477e-001 
3.691467e-001 
3.662335e-001 
3.644360e-001 
3.639760e-001 
3.627619e-001 
3.594373e-001 
3.542199e-001 
3.483113e-001 
3.444699e-001 
3.425564e-001 
3.435194e-001 
3.453525e-001 
3.462423e-001 
3.467467e-001 
3.477134e-001 
3.493272e-001 
3.527550e-001 
3.558729e-001 
3.590681e-001 
3.651253e-001 
3.708962e-001 
3.742199e-001 
3.768143e-001 
3.780152e-001 
3.789703e-001 
3.814410e-001 
3.831210e-001 
3.870069e-001 
3.914603e-001 
3.917923e-001 
3.918875e-001 
3.951041e-001 
3.994392e-001 
4.062241e-001 
4.139280e-001 
4.218182e-001 
4.336067e-001 
4.492524e-001 
4.693365e-001 
4.937859e-001 
5.182621e-001 
5.401261e-001 
5.590312e-001 
5.733170e-001 
5.815316e-001 
5.823989e-001 
5.728197e-001 
5.498671e-001 
5.156499e-001 
4.763212e-001 
4.366732e-001 
4.000703e-001 
3.667154e-001 
3.346412e-001 
3.035104e-001 
2.702528e-001 
2.349242e-001 
2.033208e-001 
1.813180e-001 
1.694583e-001 
1.675686e-001 
1.748869e-001 
1.893921e-001 
2.085771e-001 
2.319124e-001 
2.621064e-001 
3.037461e-001 
3.547815e-001 
4.051060e-001 
4.487816e-001 
4.825934e-001 
5.032166e-001 
5.149785e-001 
5.260223e-001 
5.388834e-001 
5.539325e-001 
5.666224e-001 
5.738394e-001 
5.772526e-001 
5.800189e-001 
5.820730e-001 
5.862075e-001 
5.908558e-001 
5.920969e-001 
5.926478e-001 
5.938773e-001 
5.948720e-001 
5.961500e-001 
5.982040e-001 
5.981440e-001 
5.975544e-001 
5.968783e-001 
5.975000e-001 
6.007220e-001 
6.017615e-001 
6.007412e-001 
5.995934e-001 
6.002869e-001 
6.016711e-001 
6.031639e-001 
6.050857e-001 
6.051844e-001 
6.036596e-001 
6.030098e-001 
6.043083e-001 
6.070294e-001 
6.105088e-001 
6.097553e-001 
6.082758e-001 
6.077763e-001 
6.076015e-001 
6.098019e-001 
6.118697e-001 
6.120217e-001 
6.121405e-001 
6.116126e-001 
6.108663e-001 
6.110138e-001 
6.105339e-001 
6.093675e-001 
6.077186e-001 
6.070024e-001 
6.076758e-001 
6.085926e-001 
6.082278e-001 
6.052263e-001 
6.013745e-001 
6.003348e-001 
6.013397e-001 
6.035175e-001 
6.045529e-001 
6.032464e-001 
6.011897e-001 
5.993594e-001 
5.987508e-001 
6.006763e-001 
6.020186e-001 
6.013573e-001 
5.994243e-001 
5.975103e-001 
5.972243e-001 
5.982004e-001 
5.980623e-001 
5.957927e-001 
5.925581e-001 
5.881773e-001 
5.860963e-001 
5.856019e-001 
5.842842e-001 
5.806232e-001 
5.760041e-001 
5.717223e-001 
5.696570e-001 
5.686353e-001 
5.664492e-001 
5.642883e-001 
5.610690e-001 
5.568769e-001 
5.525666e-001 
5.510386e-001 
5.498750e-001 
5.467220e-001 
5.423008e-001 
5.381693e-001 
5.362072e-001 
5.352767e-001 
5.331036e-001 
5.297539e-001 
5.271184e-001 
5.250440e-001 
5.248623e-001 
5.258927e-001 
5.265522e-001 
5.268253e-001 
5.260447e-001 
5.255534e-001 
5.275876e-001 
5.324096e-001 
5.374668e-001 
5.412630e-001 
5.436007e-001 
5.458452e-001 
5.484469e-001 
5.519682e-001 
5.566927e-001 
5.608909e-001 
5.628671e-001 
5.642344e-001 
5.673846e-001 
5.702782e-001 
5.719125e-001 
5.718780e-001 
5.724078e-001 
5.729122e-001 
5.728497e-001 
5.731984e-001 
5.743708e-001 
5.744896e-001 
5.724008e-001 
5.705159e-001 
5.697942e-001 
5.711250e-001 
5.700453e-001 
5.681089e-001 
5.666348e-001 
5.641842e-001 
5.621392e-001 
5.614404e-001 
5.614391e-001 
5.596740e-001 
5.557945e-001 
5.520019e-001 
5.518646e-001 
5.514676e-001 
5.494320e-001 
5.475499e-001 
5.453158e-001 
5.433226e-001 
5.399414e-001 
5.372890e-001 
5.369437e-001 
5.357768e-001 
5.327238e-001 
5.315949e-001 
5.322069e-001 
5.323165e-001 
5.313584e-001 
5.272380e-001 
5.234604e-001 
5.219896e-001 
5.213770e-001 
5.207491e-001 
5.209886e-001 
5.193842e-001 
5.147727e-001 
5.122001e-001 
5.113951e-001 
5.114992e-001 
5.124176e-001 
5.096531e-001 
5.058451e-001 
5.049849e-001 
5.034200e-001 
5.021676e-001 
5.028134e-001 
4.998264e-001 
4.952479e-001 
4.915702e-001 
4.888601e-001 
4.906096e-001 
4.915116e-001 
4.880471e-001 
4.824673e-001 
4.769189e-001 
4.709859e-001 
4.671838e-001 
4.644932e-001 
4.615567e-001 
4.575439e-001 
4.524036e-001 
4.482239e-001 
4.451821e-001 
4.433912e-001 
4.399627e-001 
4.361137e-001 
4.332403e-001 
4.305907e-001 
4.287960e-001 
4.268386e-001 
4.236678e-001 
4.203390e-001 
4.172399e-001 
4.135463e-001 
4.119822e-001 
4.119828e-001 
4.099085e-001 
4.065651e-001 
4.028313e-001 
4.006416e-001 
3.986430e-001 
3.948116e-001 
3.901560e-001 
3.877439e-001 
3.853763e-001 
3.822301e-001 
3.805153e-001 
3.789006e-001 
3.769858e-001 
3.726804e-001 
3.685573e-001 
3.673824e-001 
3.667067e-001 
3.635822e-001 
3.587316e-001 
3.546276e-001 
3.512798e-001 
3.494515e-001 
3.471351e-001 
3.453493e-001 
3.420453e-001 
3.362335e-001 
3.313088e-001 
3.292431e-001 
3.283644e-001 
3.264632e-001 
3.231343e-001 
3.177550e-001 
3.136649e-001 
3.099886e-001 
3.071675e-001 
3.058760e-001 
3.029349e-001 
2.988219e-001 
2.959274e-001 
2.938500e-001 
2.923921e-001 
2.914612e-001 
2.881545e-001 
2.838456e-001 
2.805776e-001 
2.782910e-001 
2.787295e-001 
2.785929e-001 
2.756751e-001 
2.718160e-001 
2.686587e-001 
2.648981e-001 
2.622816e-001 
2.604847e-001 
2.573327e-001 
2.536593e-001 
2.484696e-001 
2.440463e-001 
2.422688e-001 
2.402075e-001 
2.350248e-001 
2.302436e-001 
2.269818e-001 
2.248566e-001 
2.240027e-001 
2.220426e-001 
2.193466e-001 
2.156671e-001 
2.122789e-001 
2.091149e-001 
2.089701e-001 
2.099476e-001 
2.087460e-001 
2.062093e-001 
2.040247e-001 
2.020769e-001 
2.003494e-001 
1.991240e-001 
1.953895e-001 
1.932570e-001 
1.906901e-001 
1.881188e-001 
1.865175e-001 
1.850136e-001 
1.813964e-001 
1.768993e-001 
1.731687e-001 
1.706504e-001 
1.694864e-001 
1.678380e-001 
1.658627e-001 
1.609979e-001 
1.573885e-001 
1.546338e-001 
1.523762e-001 
1.506975e-001 
1.475857e-001 
1.438737e-001 
1.429005e-001 
1.409998e-001 
1.381867e-001 
1.389527e-001 
1.380925e-001 
1.378936e-001 
1.391212e-001 
1.398648e-001 
1.425886e-001 
1.439790e-001 
1.396725e-001 
1.367018e-001 
1.355385e-001 
1.338760e-001 
1.335747e-001 
1.292026e-001 
1.224027e-001 
1.169586e-001 
1.096516e-001 
1.038429e-001 
1.008493e-001 
9.555104e-002 
8.744201e-002 
7.772600e-002 
6.725891e-002 
6.093559e-002 
5.665081e-002 
5.024900e-002 
4.509372e-002 
3.988979e-002 
3.473149e-002 
3.111833e-002 
3.097755e-002 
3.084736e-002 
2.959182e-002 
2.655898e-002 
2.382837e-002 
2.397721e-002 
2.397992e-002 
2.262586e-002 
2.123901e-002 
2.024598e-002 
1.767413e-002 
1.780790e-002 
2.054026e-002 
2.230090e-002 
2.263743e-002 
2.438903e-002 
3.159860e-002 
4.464560e-002 
6.065928e-002 
7.761069e-002 
9.448873e-002 
1.071895e-001 
1.148695e-001 
1.191527e-001 
1.192842e-001 
1.105672e-001 
8.824785e-002 
5.484342e-002 
1.587154e-002 
-2.278886e-002 
-5.575626e-002 
-8.151324e-002 
-1.047990e-001 
-1.286607e-001 
-1.573857e-001 
-1.891643e-001 
-2.171952e-001 
-2.373304e-001 
-2.472700e-001 
-2.478927e-001 
-2.429730e-001 
-2.363958e-001 
-2.272180e-001 
-2.139079e-001 
-1.912640e-001 
-1.575998e-001 
-1.166743e-001 
-7.656518e-002 
-4.321881e-002 
-2.215299e-002 
-1.371534e-002 
-1.109599e-002 
-9.713330e-003 
-5.663267e-003 
-1.050761e-003 
8.406272e-004 
-1.114064e-004 
-3.215887e-003 
-7.167538e-003 
-8.719481e-003 
-8.294437e-003 
-8.408676e-003 
-1.029576e-002 
-1.335645e-002 
-1.624712e-002 
-1.947965e-002 
-2.333218e-002 
-2.529612e-002 
-2.552096e-002 
-2.663834e-002 
-2.922964e-002 
-3.153192e-002 
-3.328259e-002 
-3.731353e-002 
-4.232263e-002 
-4.561406e-002 
-4.658379e-002 
-4.738878e-002 
-4.947353e-002 
-5.243823e-002 
-5.557055e-002 
-5.907549e-002 
-6.116366e-002 
-6.172712e-002 
-6.257938e-002 
-6.437745e-002 
-6.737731e-002 
-7.001469e-002 
-7.216636e-002 
-7.346738e-002 
-7.405206e-002 
-7.660205e-002 
-7.984228e-002 
-8.193469e-002 
-8.381739e-002 
-8.530189e-002 
-8.690466e-002 
-8.957238e-002 
-9.332048e-002 
-9.768525e-002 
-1.014125e-001 
-1.033401e-001 
-1.060378e-001 
-1.100129e-001 
-1.132643e-001 
-1.153766e-001 
-1.172918e-001 
-1.198657e-001 
-1.228807e-001 
-1.274226e-001 
-1.327182e-001 
-1.368374e-001 
-1.389239e-001 
-1.411011e-001 
-1.445020e-001 
-1.499070e-001 
-1.556399e-001 
-1.594850e-001 
-1.625453e-001 
-1.645311e-001 
-1.668888e-001 
-1.717934e-001 
-1.785211e-001 
-1.830799e-001 
-1.858455e-001 
-1.882860e-001 
-1.919665e-001 
-1.975715e-001 
-2.037763e-001 
-2.097911e-001 
-2.146585e-001 
-2.168756e-001 
-2.192938e-001 
-2.260627e-001 
-2.349614e-001 
-2.418385e-001 
-2.464748e-001 
-2.508438e-001 
-2.564991e-001 
-2.625800e-001 
-2.689131e-001 
-2.768369e-001 
-2.833975e-001 
-2.863715e-001 
-2.879143e-001 
-2.912079e-001 
-2.962995e-001 
-3.009952e-001 
-3.026184e-001 
-3.020851e-001 
-3.007716e-001 
-2.991532e-001 
-2.976745e-001 
-2.951686e-001 
-2.908002e-001 
-2.846465e-001 
-2.781477e-001 
-2.719358e-001 
-2.660175e-001 
-2.600491e-001 
-2.533057e-001 
-2.454566e-001 
-2.378243e-001 
-2.316708e-001 
-2.264491e-001 
-2.229698e-001 
-2.194542e-001 
-2.153846e-001 
-2.120075e-001 
-2.094051e-001 
-2.088810e-001 
-2.095297e-001 
-2.092826e-001 
-2.088329e-001 
-2.102633e-001 
-2.125270e-001 
-2.141902e-001 
-2.139143e-001 
-2.134851e-001 
-2.146302e-001 
-2.156900e-001 
-2.169271e-001 
-2.180893e-001 
-2.190986e-001 
-2.187002e-001 
-2.163190e-001 
-2.148968e-001 
-2.175175e-001 
-2.208015e-001 
-2.211699e-001 
-2.203289e-001 
-2.192318e-001 
-2.197504e-001 
-2.218197e-001 
-2.244489e-001 
-2.269407e-001 
-2.290776e-001 
-2.292991e-001 
-2.300498e-001 
-2.339724e-001 
-2.382586e-001 
-2.412542e-001 
-2.431793e-001 
-2.441182e-001 
-2.449586e-001 
-2.476250e-001 
-2.508917e-001 
-2.540086e-001 
-2.547699e-001 
-2.527874e-001 
-2.522294e-001 
-2.546513e-001 
-2.570503e-001 
-2.574129e-001 
-2.577164e-001 
-2.572350e-001 
-2.564249e-001 
-2.558379e-001 
-2.561625e-001 
-2.582160e-001 
-2.584457e-001 
-2.568482e-001 
-2.557012e-001 
-2.581221e-001 
-2.599547e-001 
-2.607457e-001 
-2.598372e-001 
-2.587937e-001 
-2.599438e-001 
-2.616782e-001 
-2.638633e-001 
-2.657007e-001 
-2.677345e-001 
-2.667082e-001 
-2.666364e-001 
-2.681312e-001 
-2.715962e-001 
-2.739103e-001 
-2.734015e-001 
-2.733061e-001 
-2.748006e-001 
-2.777828e-001 
-2.800415e-001 
-2.826790e-001 
-2.840301e-001 
-2.835049e-001 
-2.820355e-001 
-2.839164e-001 
-2.877510e-001 
-2.897679e-001 
-2.901514e-001 
-2.883941e-001 
-2.876142e-001 
-2.890788e-001 
-2.906894e-001 
-2.924627e-001 
-2.941905e-001 
-2.940471e-001 
-2.933077e-001 
-2.940179e-001 
-2.950542e-001 
-2.966258e-001 
-2.974425e-001 
-2.962207e-001 
-2.960851e-001 
-2.984099e-001 
-3.008883e-001 
-3.025390e-001 
-3.042066e-001 
-3.039029e-001 
-3.040517e-001 
-3.061951e-001 
-3.083212e-001 
-3.109052e-001 
-3.126213e-001 
-3.124557e-001 
-3.137925e-001 
-3.171687e-001 
-3.190485e-001 
-3.216236e-001 
-3.233381e-001 
-3.226555e-001 
-3.233846e-001 
-3.250463e-001 
-3.276971e-001 
-3.310052e-001 
-3.313217e-001 
-3.291112e-001 
-3.301539e-001 
-3.321135e-001 
-3.338636e-001 
-3.360232e-001 
-3.357513e-001 
-3.346980e-001 
-3.339215e-001 
-3.338400e-001 
-3.356892e-001 
-3.383193e-001 
-3.379180e-001 
-3.371359e-001 
-3.364005e-001 
-3.355724e-001 
-3.367110e-001 
-3.383863e-001 
-3.389159e-001 
-3.377333e-001 
-3.371150e-001 
-3.387599e-001 
-3.419749e-001 
-3.429763e-001 
-3.425187e-001 
-3.417636e-001 
-3.417887e-001 
-3.429260e-001 
-3.443222e-001 
-3.464257e-001 
-3.476305e-001 
-3.470049e-001 
-3.454803e-001 
-3.454536e-001 
-3.472241e-001 
-3.495642e-001 
-3.503872e-001 
-3.494794e-001 
-3.492032e-001 
-3.494907e-001 
-3.501183e-001 
-3.500565e-001 
-3.490476e-001 
-3.461332e-001 
-3.440864e-001 
-3.435707e-001 
-3.416140e-001 
-3.386951e-001 
-3.349890e-001 
-3.315810e-001 
-3.287449e-001 
-3.272175e-001 
-3.274041e-001 
-3.305534e-001 
-3.323231e-001 
-3.323863e-001 
-3.346068e-001 
-3.393851e-001 
-3.445628e-001 
-3.487125e-001 
-3.526770e-001 
-3.564539e-001 
-3.615009e-001 
-3.671083e-001 
-3.731181e-001 
-3.782464e-001 
-3.819900e-001 
-3.843670e-001 
-3.864339e-001 
-3.895566e-001 
-3.915679e-001 
-3.914708e-001 
-3.889538e-001 
-3.844165e-001 
-3.803355e-001 
-3.802626e-001 
-3.811529e-001 
-3.813745e-001 
-3.809846e-001 
-3.781194e-001 
-3.761529e-001 
-3.770819e-001 
-3.790229e-001 
-3.815910e-001 
-3.838467e-001 
-3.823166e-001 
-3.797221e-001 
-3.771256e-001 
-3.734778e-001 
-3.684700e-001 
-3.583166e-001 
-3.427362e-001 
-3.247629e-001 
-3.063628e-001 
-2.870647e-001 
-2.694920e-001 
-2.563567e-001 
-2.498087e-001 
-2.517468e-001 
-2.641062e-001 
-2.895719e-001 
-3.256254e-001 
-3.656296e-001 
-4.047813e-001 
-4.424512e-001 
-4.765766e-001 
-5.080754e-001 
-5.375801e-001 
-5.691129e-001 
-6.036407e-001 
-6.335878e-001 
-6.545060e-001 
-6.650141e-001 
-6.643295e-001 
-6.552468e-001 
-6.414369e-001 
-6.247391e-001 
-6.054539e-001 
-5.755401e-001 
-5.312629e-001 
-4.789805e-001 
-4.272230e-001 
-3.847277e-001 
-3.560109e-001 
-3.389886e-001 
-3.299050e-001 
-3.216648e-001 
-3.098589e-001 
-2.991556e-001 
-2.941711e-001 
-2.942424e-001 
-2.964046e-001 
-2.971966e-001 
-2.963104e-001 
-2.949625e-001 
-2.935623e-001 
-2.934811e-001 
-2.956296e-001 
-2.980006e-001 
-2.990774e-001 
-2.998290e-001 
-3.010408e-001 
-3.033550e-001 
-3.040485e-001 
-3.044068e-001 
-3.045702e-001 
-3.040159e-001 
-3.046738e-001 
-3.073998e-001 
-3.092410e-001 
-3.102582e-001 
-3.102878e-001 
-3.101456e-001 
-3.130292e-001 
-3.151402e-001 
-3.165790e-001 
-3.186564e-001 
-3.195859e-001 
-3.191016e-001 
-3.196952e-001 
-3.205927e-001 
-3.210121e-001 
-3.202516e-001 
-3.179483e-001 
-3.172713e-001 
-3.185882e-001 
-3.198809e-001 
-3.201595e-001 
-3.195509e-001 
-3.179992e-001 
-3.167251e-001 
-3.177190e-001 
-3.193460e-001 
-3.216673e-001 
-3.228586e-001 
-3.223577e-001 
-3.219237e-001 
-3.232727e-001 
-3.258587e-001 
-3.284340e-001 
-3.294438e-001 
-3.297820e-001 
-3.308902e-001 
-3.314775e-001 
-3.336960e-001 
-3.351484e-001 
-3.362365e-001 
-3.357203e-001 
-3.340635e-001 
-3.354433e-001 
-3.380498e-001 
-3.376727e-001 
-3.364703e-001 
-3.367680e-001 
-3.359294e-001 
-3.368869e-001 
-3.374777e-001 
-3.396856e-001 
-3.421896e-001 
-3.406529e-001 
-3.392686e-001 
-3.419963e-001 
-3.452100e-001 
-3.458481e-001 
-3.459158e-001 
-3.456212e-001 
-3.471907e-001 
-3.486736e-001 
-3.512070e-001 
-3.547102e-001 
-3.569617e-001 
-3.574571e-001 
-3.576572e-001 
-3.603350e-001 
-3.649633e-001 
-3.688870e-001 
-3.716341e-001 
-3.735645e-001 
-3.749078e-001 
-3.781907e-001 
-3.827487e-001 
-3.860291e-001 
-3.895425e-001 
-3.930194e-001 
-3.953591e-001 
-3.975791e-001 
-3.992430e-001 
-4.001701e-001 
-3.995620e-001 
-3.960247e-001 
-3.921571e-001 
-3.902989e-001 
-3.885849e-001 
-3.843902e-001 
-3.780319e-001 
-3.711267e-001 
-3.640720e-001 
-3.575600e-001 
-3.525397e-001 
-3.472241e-001 
-3.414187e-001 
-3.345438e-001 
-3.269346e-001 
-3.223019e-001 
-3.198404e-001 
-3.172297e-001 
-3.137756e-001 
-3.096220e-001 
-3.064659e-001 
-3.064051e-001 
-3.056873e-001 
-3.049163e-001 
-3.057543e-001 
-3.052869e-001 
-3.041903e-001 
-3.041260e-001 
-3.050360e-001 
-3.069036e-001 
-3.077472e-001 
-3.068928e-001 
-3.077986e-001 
-3.101349e-001 
-3.116055e-001 
-3.120249e-001 
-3.112685e-001 
-3.104570e-001 
-3.111425e-001 
-3.135147e-001 
-3.155027e-001 
-3.164969e-001 
-3.166740e-001 
-3.145617e-001 
-3.120239e-001 
-3.119336e-001 
-3.130841e-001 
-3.138780e-001 
-3.132657e-001 
-3.102679e-001 
-3.089333e-001 
-3.097042e-001 
-3.093028e-001 
-3.087206e-001 
-3.082447e-001 
-3.064587e-001 
-3.055867e-001 
-3.062969e-001 
-3.076338e-001 
-3.089934e-001 
-3.071109e-001 
-3.036292e-001 
-3.018661e-001 
-3.037408e-001 
-3.064781e-001 
-3.074855e-001 
-3.073149e-001 
-3.053640e-001 
-3.019180e-001 
-3.003189e-001 
-3.019417e-001 
-3.035872e-001 
-3.048953e-001 
-3.028537e-001 
-3.000296e-001 
-3.003809e-001 
-3.005383e-001 
-3.007139e-001 
-3.024507e-001 
-3.023782e-001 
-3.012271e-001 
-3.010445e-001 
-3.012676e-001 
-3.024255e-001 
-3.029982e-001 
-3.018612e-001 
-3.022382e-001 
-3.031631e-001 
-3.038009e-001 
-3.039737e-001 
-3.041379e-001 
-3.048020e-001 
-3.045801e-001 
-3.053157e-001 
-3.058155e-001 
-3.055774e-001 
-3.044816e-001 
-3.040921e-001 
-3.039687e-001 
-3.061199e-001 
-3.081531e-001 
-3.080664e-001 
-3.076475e-001 
-3.066439e-001 
-3.070868e-001 
-3.094691e-001 
-3.113615e-001 
-3.109346e-001 
-3.105670e-001 
-3.087956e-001 
-3.071973e-001 
-3.087955e-001 
-3.116292e-001 
-3.129324e-001 
-3.115217e-001 
-3.080477e-001 
-3.065068e-001 
-3.085631e-001 
-3.103950e-001 
-3.119001e-001 
-3.120646e-001 
-3.101343e-001 
-3.082289e-001 
-3.079716e-001 
-3.100293e-001 
-3.134390e-001 
-3.146653e-001 
-3.133687e-001 
-3.119893e-001 
-3.114817e-001 
-3.121484e-001 
-3.136006e-001 
-3.133059e-001 
-3.118956e-001 
-3.113203e-001 
-3.107510e-001 
-3.104347e-001 
-3.104486e-001 
-3.088392e-001 
-3.072842e-001 
-3.071109e-001 
-3.049123e-001 
-3.042207e-001 
-3.051091e-001 
-3.039844e-001 
-3.020965e-001 
-3.011443e-001 
-3.000005e-001 
-3.014791e-001 
-3.013374e-001 
-2.986645e-001 
-2.983886e-001 
-2.980280e-001 
-2.974553e-001 
-2.983548e-001 
-2.974626e-001 
-2.953337e-001 
-2.943596e-001 
-2.919460e-001 
-2.926879e-001 
-2.948632e-001 
-2.945976e-001 
-2.933678e-001 
-2.914009e-001 
-2.894872e-001 
-2.912372e-001 
-2.927539e-001 
-2.922392e-001 
-2.923524e-001 
-2.900581e-001 
-2.869563e-001 
-2.862322e-001 
-2.870194e-001 
-2.879013e-001 
-2.874263e-001 
-2.841466e-001 
-2.820488e-001 
-2.823504e-001 
-2.818326e-001 
-2.812681e-001 
-2.808857e-001 
-2.797126e-001 
-2.783212e-001 
-2.768952e-001 
-2.760559e-001 
-2.764536e-001 
-2.758438e-001 
-2.740455e-001 
-2.737716e-001 
-2.743639e-001 
-2.751500e-001 
-2.748664e-001 
-2.722566e-001 
-2.696201e-001 
-2.675037e-001 
-2.655692e-001 
-2.635066e-001 
-2.586634e-001 
-2.517633e-001 
-2.455115e-001 
-2.399807e-001 
-2.376780e-001 
-2.376237e-001 
-2.358758e-001 
-2.335853e-001 
-2.311255e-001 
-2.302159e-001 
-2.339429e-001 
-2.382976e-001 
-2.428188e-001 
-2.466917e-001 
-2.475910e-001 
-2.491460e-001 
-2.549153e-001 
-2.623833e-001 
-2.693359e-001 
-2.743414e-001 
-2.775407e-001 
-2.813114e-001 
-2.841536e-001 
-2.876503e-001 
-2.911268e-001 
-2.927617e-001 
-2.905348e-001 
-2.866295e-001 
-2.848262e-001 
-2.851138e-001 
-2.840383e-001 
-2.825246e-001 
-2.811286e-001 
-2.797754e-001 
-2.793011e-001 
-2.788757e-001 
-2.784267e-001 
-2.772708e-001 
-2.739785e-001 
-2.701758e-001 
-2.682577e-001 
-2.644020e-001 
-2.561932e-001 
-2.420442e-001 
-2.233403e-001 
-2.012945e-001 
-1.798431e-001 
-1.612164e-001 
-1.456058e-001 
-1.329409e-001 
-1.254787e-001 
-1.281011e-001 
-1.441584e-001 
-1.738084e-001 
-2.133833e-001 
-2.591446e-001 
-3.018297e-001 
-3.384236e-001 
-3.696321e-001 
-3.988537e-001 
-4.307939e-001 
-4.674345e-001 
-5.046496e-001 
-5.363889e-001 
-5.555752e-001 
-5.607750e-001 
-5.572096e-001 
-5.473207e-001 
-5.362085e-001 
-5.229429e-001 
-5.018059e-001 
-4.664148e-001 
-4.160839e-001 
-3.590275e-001 
-3.077069e-001 
-2.694669e-001 
-2.473026e-001 
-2.354585e-001 
-2.244307e-001 
-2.123220e-001 
-1.999164e-001 
-1.902244e-001 
-1.871636e-001 
-1.871666e-001 
-1.878933e-001 
-1.877125e-001 
-1.835193e-001 
-1.794663e-001 
-1.800462e-001 
-1.834732e-001 
-1.857669e-001 
-1.856577e-001 
-1.829383e-001 
-1.824713e-001 
-1.832758e-001 
-1.846167e-001 
-1.860252e-001 
-1.866179e-001 
-1.862459e-001 
-1.851105e-001 
-1.857629e-001 
-1.882318e-001 
-1.911364e-001 
-1.908585e-001 
-1.900681e-001 
-1.893426e-001 
-1.905630e-001 
-1.930286e-001 
-1.938830e-001 
-1.943213e-001 
-1.939011e-001 
-1.935156e-001 
-1.940390e-001 
-1.967590e-001 
-1.988318e-001 
-1.991354e-001 
-1.975538e-001 
-1.961912e-001 
-1.971891e-001 
-1.993474e-001 
-2.016854e-001 
-2.020270e-001 
-2.019423e-001 
-2.017581e-001 
-2.027806e-001 
-2.041521e-001 
-2.055199e-001 
-2.070590e-001 
-2.082467e-001 
-2.093683e-001 
-2.110534e-001 
-2.137285e-001 
-2.158938e-001 
-2.172122e-001 
-2.170977e-001 
-2.185398e-001 
-2.220737e-001 
-2.253333e-001 
-2.275863e-001 
-2.280971e-001 
-2.279148e-001 
-2.296773e-001 
-2.326465e-001 
-2.360760e-001 
-2.402855e-001 
-2.435055e-001 
-2.446476e-001 
-2.458503e-001 
-2.485679e-001 
-2.527179e-001 
-2.563616e-001 
-2.587932e-001 
-2.613952e-001 
-2.646957e-001 
-2.685344e-001 
-2.712805e-001 
-2.739298e-001 
-2.764707e-001 
-2.784326e-001 
-2.806554e-001 
-2.848401e-001 
-2.886177e-001 
-2.896801e-001 
-2.884770e-001 
-2.852331e-001 
-2.838057e-001 
-2.843955e-001 
-2.829345e-001 
-2.792959e-001 
-2.744654e-001 
-2.675454e-001 
-2.601511e-001 
-2.543920e-001 
-2.504316e-001 
-2.469251e-001 
-2.401826e-001 
-2.305860e-001 
-2.232856e-001 
-2.188924e-001 
-2.144935e-001 
-2.088011e-001 
-2.037231e-001 
-1.986873e-001 
-1.939581e-001 
-1.912566e-001 
-1.912977e-001 
-1.915177e-001 
-1.896023e-001 
-1.868311e-001 
-1.854183e-001 
-1.858615e-001 
-1.863387e-001 
-1.857838e-001 
-1.845517e-001 
-1.827962e-001 
-1.797264e-001 
-1.795180e-001 
-1.812765e-001 
-1.816463e-001 
-1.805766e-001 
-1.796523e-001 
-1.786157e-001 
-1.799029e-001 
-1.810924e-001 
-1.805965e-001 
-1.807683e-001 
-1.788867e-001 
-1.771865e-001 
-1.778139e-001 
-1.794174e-001 
-1.787078e-001 
-1.770167e-001 
-1.744020e-001 
-1.736942e-001 
-1.746774e-001 
-1.756309e-001 
-1.763447e-001 
-1.749928e-001 
-1.717478e-001 
-1.684631e-001 
-1.682428e-001 
-1.696148e-001 
-1.707763e-001 
-1.689138e-001 
-1.660980e-001 
-1.645287e-001 
-1.647505e-001 
-1.663648e-001 
-1.671372e-001 
-1.666612e-001 
-1.655261e-001 
-1.642121e-001 
-1.636033e-001 
-1.643790e-001 
-1.644900e-001 
-1.640679e-001 
-1.622248e-001 
-1.612316e-001 
-1.627460e-001 
-1.641780e-001 
-1.650090e-001 
-1.657066e-001 
-1.645810e-001 
-1.637365e-001 
-1.648812e-001 
-1.655804e-001 
-1.668838e-001 
-1.664315e-001 
-1.638826e-001 
-1.634229e-001 
-1.644920e-001 
-1.651837e-001 
-1.655564e-001 
-1.644790e-001 
-1.634957e-001 
-1.625856e-001 
-1.611230e-001 
-1.616374e-001 
-1.623992e-001 
-1.610653e-001 
-1.589300e-001 
-1.571024e-001 
-1.580799e-001 
-1.598859e-001 
-1.582687e-001 
-1.561875e-001 
-1.551065e-001 
-1.543496e-001 
-1.550482e-001 
-1.569241e-001 
-1.572893e-001 
-1.572385e-001 
-1.561804e-001 
-1.551788e-001 
-1.563104e-001 
-1.585846e-001 
-1.601612e-001 
-1.599348e-001 
-1.579073e-001 
-1.559496e-001 
-1.577693e-001 
-1.601148e-001 
-1.606819e-001 
-1.600827e-001 
-1.598151e-001 
-1.587480e-001 
-1.585022e-001 
-1.585013e-001 
-1.592693e-001 
-1.593469e-001 
-1.561026e-001 
-1.536111e-001 
-1.542526e-001 
-1.555739e-001 
-1.555042e-001 
-1.554812e-001 
-1.535521e-001 
-1.526881e-001 
-1.527083e-001 
-1.532802e-001 
-1.540067e-001 
-1.535214e-001 
-1.510831e-001 
-1.495790e-001 
-1.500170e-001 
-1.514322e-001 
-1.532480e-001 
-1.533062e-001 
-1.517661e-001 
-1.501122e-001 
-1.504978e-001 
-1.513965e-001 
-1.521156e-001 
-1.521153e-001 
-1.514999e-001 
-1.506119e-001 
-1.512523e-001 
-1.523260e-001 
-1.535915e-001 
-1.536849e-001 
-1.518220e-001 
-1.499398e-001 
-1.499185e-001 
-1.508732e-001 
-1.522155e-001 
-1.523026e-001 
-1.501076e-001 
-1.484343e-001 
-1.483533e-001 
-1.490453e-001 
-1.492512e-001 
-1.483871e-001 
-1.471409e-001 
-1.458691e-001 
-1.436352e-001 
-1.423850e-001 
-1.425092e-001 
-1.422743e-001 
-1.400087e-001 
-1.376541e-001 
-1.380177e-001 
-1.382509e-001 
-1.359128e-001 
-1.335428e-001 
-1.315527e-001 
-1.303058e-001 
-1.302026e-001 
-1.297363e-001 
-1.295979e-001 
-1.288527e-001 
-1.252657e-001 
-1.237135e-001 
-1.250477e-001 
-1.258326e-001 
-1.264027e-001 
-1.252965e-001 
-1.229340e-001 
-1.222492e-001 
-1.227196e-001 
-1.234343e-001 
-1.248851e-001 
-1.240329e-001 
-1.213468e-001 
-1.200828e-001 
-1.204339e-001 
-1.219060e-001 
-1.221117e-001 
-1.206251e-001 
-1.188771e-001 
-1.174063e-001 
-1.159502e-001 
-1.166106e-001 
-1.183077e-001 
-1.179190e-001 
-1.141930e-001 
-1.103068e-001 
-1.109481e-001 
-1.123581e-001 
-1.113122e-001 
-1.096129e-001 
-1.089695e-001 
-1.073926e-001 
-1.042296e-001 
-1.000627e-001 
-9.723729e-002 
-9.360033e-002 
-8.618794e-002 
-7.924488e-002 
-7.651908e-002 
-7.538471e-002 
-7.241721e-002 
-6.828196e-002 
-6.472409e-002 
-6.323384e-002 
-6.445772e-002 
-6.794386e-002 
-7.206938e-002 
-7.565437e-002 
-7.801754e-002 
-7.956366e-002 
-8.249612e-002 
-8.740518e-002 
-9.342292e-002 
-1.001303e-001 
-1.053707e-001 
-1.081431e-001 
-1.115279e-001 
-1.143140e-001 
-1.145069e-001 
-1.139327e-001 
-1.129509e-001 
-1.121450e-001 
-1.116085e-001 
-1.094326e-001 
-1.058856e-001 
-1.032094e-001 
-9.892845e-002 
-9.524627e-002 
-9.453274e-002 
-9.519972e-002 
-9.492308e-002 
-9.244846e-002 
-8.890622e-002 
-8.805874e-002 
-8.883157e-002 
-8.746951e-002 
-8.570233e-002 
-8.343497e-002 
-7.853889e-002 
-7.106964e-002 
-6.223244e-002 
-5.133764e-002 
-3.541377e-002 
-1.261241e-002 
1.310247e-002 
3.549676e-002 
5.371658e-002 
6.921902e-002 
8.096659e-002 
8.603936e-002 
8.352089e-002 
7.119909e-002 
4.368814e-002 
2.846205e-003 
-4.401491e-002 
-8.873887e-002 
-1.288484e-001 
-1.656069e-001 
-2.021863e-001 
-2.384766e-001 
-2.772688e-001 
-3.176121e-001 
-3.530806e-001 
-3.784689e-001 
-3.907381e-001 
-3.926032e-001 
-3.848986e-001 
-3.701246e-001 
-3.508551e-001 
-3.272154e-001 
-2.959051e-001 
-2.566131e-001 
-2.081158e-001 
-1.565142e-001 
-1.118939e-001 
-7.825397e-002 
-5.807631e-002 
-4.604124e-002 
-3.526755e-002 
-2.466083e-002 
-1.233299e-002 
3.310180e-004 
8.140286e-003 
1.183510e-002 
1.376884e-002 
1.702887e-002 
2.175445e-002 
2.462443e-002 
2.591872e-002 
2.746623e-002 
2.846541e-002 
3.033570e-002 
3.339115e-002 
3.575557e-002 
3.530173e-002 
3.297998e-002 
3.252890e-002 
3.421413e-002 
3.673099e-002 
3.843013e-002 
3.796042e-002 
3.657721e-002 
3.489631e-002 
3.381011e-002 
3.500216e-002 
3.638031e-002 
3.625283e-002 
3.452004e-002 
3.236774e-002 
3.203548e-002 
3.343989e-002 
3.384386e-002 
3.313793e-002 
3.167464e-002 
3.200714e-002 
3.323673e-002 
3.376072e-002 
3.561266e-002 
3.654368e-002 
3.518575e-002 
3.349800e-002 
3.276906e-002 
3.312866e-002 
3.397035e-002 
3.241695e-002 
3.036494e-002 
3.015940e-002 
3.023699e-002 
3.075832e-002 
3.029106e-002 
2.779337e-002 
2.547725e-002 
2.398597e-002 
2.394140e-002 
2.478833e-002 
2.501017e-002 
2.387884e-002 
2.125481e-002 
1.900758e-002 
1.987015e-002 
2.196477e-002 
2.369030e-002 
2.363714e-002 
2.051626e-002 
1.901677e-002 
1.860119e-002 
1.815646e-002 
1.899725e-002 
1.814945e-002 
1.580783e-002 
1.467866e-002 
1.312332e-002 
1.303422e-002 
1.461114e-002 
1.294422e-002 
1.067361e-002 
9.029272e-003 
6.699587e-003 
6.866139e-003 
7.438841e-003 
5.398355e-003 
2.967074e-003 
1.148647e-003 
5.123318e-005 
-2.574519e-004 
-2.026738e-003 
-5.143088e-003 
-6.853782e-003 
-9.142755e-003 
-1.200652e-002 
-1.204259e-002 
-1.207555e-002 
-1.485058e-002 
-1.894950e-002 
-2.221236e-002 
-2.371795e-002 
-2.439348e-002 
-2.633490e-002 
-2.841370e-002 
-3.024939e-002 
-3.307649e-002 
-3.390358e-002 
-3.276987e-002 
-3.182223e-002 
-3.217923e-002 
-3.245360e-002 
-3.025667e-002 
-2.604030e-002 
-2.171548e-002 
-1.837129e-002 
-1.435435e-002 
-1.087066e-002 
-7.774159e-003 
-3.147707e-003 
4.537259e-003 
1.207592e-002 
1.622891e-002 
1.847918e-002 
2.115906e-002 
2.728827e-002 
3.320590e-002 
3.756979e-002 
4.211406e-002 
4.556614e-002 
4.727841e-002 
4.966555e-002 
5.253518e-002 
5.544722e-002 
5.775776e-002 
5.801436e-002 
5.890140e-002 
6.107726e-002 
6.288684e-002 
6.488248e-002 
6.421293e-002 
6.317002e-002 
6.450819e-002 
6.557173e-002 
6.714896e-002 
6.827142e-002 
6.666512e-002 
6.464821e-002 
6.365085e-002 
6.303055e-002 
6.581031e-002 
6.655582e-002 
6.462993e-002 
6.435396e-002 
6.361069e-002 
6.312561e-002 
6.569941e-002 
6.836098e-002 
6.783080e-002 
6.589883e-002 
6.455642e-002 
6.600640e-002 
6.850834e-002 
6.981104e-002 
7.034926e-002 
7.030555e-002 
6.961522e-002 
6.847073e-002 
7.033122e-002 
7.365423e-002 
7.340965e-002 
7.297990e-002 
7.453645e-002 
7.579699e-002 
7.770643e-002 
7.975416e-002 
7.945399e-002 
8.008555e-002 
8.013525e-002 
8.034634e-002 
8.379877e-002 
8.484477e-002 
8.282378e-002 
8.092418e-002 
7.966514e-002 
7.906722e-002 
7.961457e-002 
7.878029e-002 
7.745841e-002 
7.536314e-002 
7.236692e-002 
7.151860e-002 
7.231009e-002 
7.301831e-002 
7.079676e-002 
6.813495e-002 
6.621372e-002 
6.635961e-002 
6.793191e-002 
6.859848e-002 
6.839923e-002 
6.798097e-002 
6.677039e-002 
6.541056e-002 
6.699168e-002 
6.822700e-002 
6.939853e-002 
6.893738e-002 
6.691778e-002 
6.760199e-002 
6.949286e-002 
6.947088e-002 
6.911719e-002 
6.934238e-002 
6.932724e-002 
7.073237e-002 
7.095741e-002 
7.143415e-002 
7.181698e-002 
7.095909e-002 
7.119083e-002 
7.317223e-002 
7.462517e-002 
7.452581e-002 
7.270007e-002 
7.091557e-002 
7.074932e-002 
7.135383e-002 
7.313970e-002 
7.451006e-002 
7.356834e-002 
7.145915e-002 
6.982220e-002 
7.005952e-002 
7.321995e-002 
7.507659e-002 
7.515762e-002 
7.339230e-002 
7.299846e-002 
7.381441e-002 
7.436235e-002 
7.402366e-002 
7.356396e-002 
7.234437e-002 
7.089766e-002 
7.049554e-002 
7.066676e-002 
7.311502e-002 
7.220042e-002 
6.959707e-002 
6.807926e-002 
6.814345e-002 
6.955934e-002 
7.122955e-002 
7.031096e-002 
6.893895e-002 
6.915491e-002 
6.915891e-002 
7.061511e-002 
7.186697e-002 
7.198594e-002 
7.044806e-002 
6.955382e-002 
7.042630e-002 
7.146933e-002 
7.215652e-002 
7.139115e-002 
6.877345e-002 
6.715841e-002 
6.667020e-002 
6.672433e-002 
6.903739e-002 
6.885784e-002 
6.600203e-002 
6.487002e-002 
6.397744e-002 
6.391601e-002 
6.632232e-002 
6.684721e-002 
6.564664e-002 
6.533218e-002 
6.535604e-002 
6.727534e-002 
6.908849e-002 
6.856869e-002 
6.859402e-002 
6.907290e-002 
6.892025e-002 
6.913231e-002 
6.906006e-002 
6.922588e-002 
6.841332e-002 
6.572707e-002 
6.525210e-002 
6.668479e-002 
6.682303e-002 
6.556992e-002 
6.200282e-002 
5.975894e-002 
6.025451e-002 
5.930411e-002 
5.816210e-002 
5.878096e-002 
5.822102e-002 
5.724648e-002 
5.786593e-002 
5.873755e-002 
6.066431e-002 
6.181366e-002 
6.153207e-002 
6.323035e-002 
6.725659e-002 
7.003447e-002 
7.219522e-002 
7.205649e-002 
6.996164e-002 
6.978744e-002 
7.066250e-002 
7.180889e-002 
7.347827e-002 
7.297327e-002 
7.044806e-002 
6.843856e-002 
6.664270e-002 
6.721622e-002 
6.801680e-002 
6.720684e-002 
6.557046e-002 
6.411742e-002 
6.442695e-002 
6.647534e-002 
6.904531e-002 
7.146796e-002 
7.408783e-002 
7.898472e-002 
8.477474e-002 
8.956603e-002 
9.506732e-002 
9.970889e-002 
1.020067e-001 
1.048499e-001 
1.064431e-001 
1.088971e-001 
1.113544e-001 
1.082337e-001 
1.044459e-001 
1.019850e-001 
9.795765e-002 
9.455549e-002 
9.050486e-002 
8.308216e-002 
7.744042e-002 
7.100608e-002 
6.448946e-002 
6.178880e-002 
5.901073e-002 
5.486201e-002 
5.253164e-002 
5.053058e-002 
4.971065e-002 
5.135147e-002 
5.176005e-002 
5.165920e-002 
5.317008e-002 
5.467157e-002 
5.713551e-002 
6.092141e-002 
6.262972e-002 
6.340809e-002 
6.440237e-002 
6.544161e-002 
6.759879e-002 
7.059067e-002 
7.039413e-002 
6.915263e-002 
6.784637e-002 
6.798519e-002 
7.018651e-002 
7.332131e-002 
7.645835e-002 
7.793117e-002 
7.843588e-002 
8.068315e-002 
8.838163e-002 
1.005680e-001 
1.151285e-001 
1.309312e-001 
1.507158e-001 
1.718915e-001 
1.923966e-001 
2.134843e-001 
2.320036e-001 
2.442852e-001 
2.461267e-001 
2.383403e-001 
2.226281e-001 
1.966987e-001 
1.599118e-001 
1.200656e-001 
8.325182e-002 
5.126534e-002 
2.292617e-002 
-4.794299e-003 
-3.357826e-002 
-6.769775e-002 
-1.045762e-001 
-1.335032e-001 
-1.490268e-001 
-1.530481e-001 
-1.486266e-001 
-1.412856e-001 
-1.318618e-001 
-1.182146e-001 
-9.690682e-002 
-6.409396e-002 
-2.215379e-002 
2.047254e-002 
5.786185e-002 
8.593239e-002 
1.038400e-001 
1.143895e-001 
1.203186e-001 
1.251013e-001 
1.301592e-001 
1.354280e-001 
1.406326e-001 
1.428925e-001 
1.426841e-001 
1.411196e-001 
1.380310e-001 
1.358347e-001 
1.361784e-001 
1.372371e-001 
1.369479e-001 
1.333700e-001 
1.284968e-001 
1.264224e-001 
1.247916e-001 
1.245401e-001 
1.246913e-001 
1.231527e-001 
1.205904e-001 
1.173030e-001 
1.155645e-001 
1.177824e-001 
1.198152e-001 
1.194388e-001 
1.190538e-001 
1.186568e-001 
1.195382e-001 
1.222107e-001 
1.229922e-001 
1.235050e-001 
1.244645e-001 
1.238821e-001 
1.227841e-001 
1.235642e-001 
1.242963e-001 
1.230420e-001 
1.205591e-001 
1.175502e-001 
1.174156e-001 
1.186856e-001 
1.180542e-001 
1.162605e-001 
1.148909e-001 
1.131047e-001 
1.123340e-001 
1.121664e-001 
1.112894e-001 
1.104315e-001 
1.085950e-001 
1.066888e-001 
1.061682e-001 
1.062248e-001 
1.070589e-001 
1.053090e-001 
1.021223e-001 
1.011953e-001 
1.015636e-001 
1.014728e-001 
1.011541e-001 
9.799502e-002 
9.456968e-002 
9.203773e-002 
8.987310e-002 
9.058673e-002 
9.141823e-002 
8.948563e-002 
8.676504e-002 
8.413720e-002 
8.149726e-002 
8.156972e-002 
8.182327e-002 
8.069510e-002 
7.795591e-002 
7.599950e-002 
7.357357e-002 
7.188600e-002 
6.970862e-002 
6.659020e-002 
6.344991e-002 
5.977710e-002 
5.599677e-002 
5.339903e-002 
5.107812e-002 
4.653605e-002 
4.221324e-002 
3.764691e-002 
3.419828e-002 
3.117482e-002 
2.788124e-002 
2.273116e-002 
1.660229e-002 
1.232068e-002 
9.200721e-003 
6.865790e-003 
3.394254e-003 
-1.286208e-003 
-5.132296e-003 
-8.065088e-003 
-1.098905e-002 
-1.093695e-002 
-9.678026e-003 
-1.008879e-002 
-1.051884e-002 
-1.133592e-002 
-8.536801e-003 
-2.422446e-003 
2.200390e-003 
6.489288e-003 
1.193624e-002 
1.755227e-002 
2.474416e-002 
3.223441e-002 
4.009139e-002 
4.868021e-002 
5.570204e-002 
6.176114e-002 
6.874311e-002 
7.613490e-002 
8.298306e-002 
8.797812e-002 
9.166202e-002 
9.622665e-002 
1.007382e-001 
1.054625e-001 
1.087995e-001 
1.107320e-001 
1.125072e-001 
1.145594e-001 
1.169413e-001 
1.197365e-001 
1.216775e-001 
1.221738e-001 
1.212582e-001 
1.209969e-001 
1.229058e-001 
1.249652e-001 
1.254755e-001 
1.241907e-001 
1.214091e-001 
1.204926e-001 
1.198586e-001 
1.198926e-001 
1.215741e-001 
1.208698e-001 
1.189584e-001 
1.180338e-001 
1.176028e-001 
1.182870e-001 
1.194483e-001 
1.172326e-001 
1.166226e-001 
1.169378e-001 
1.179276e-001 
1.199342e-001 
1.199532e-001 
1.182508e-001 
1.172094e-001 
1.166948e-001 
1.176658e-001 
1.204022e-001 
1.213087e-001 
1.207205e-001 
1.172968e-001 
1.146100e-001 
1.156801e-001 
1.180897e-001 
1.195006e-001 
1.181795e-001 
1.142940e-001 
1.130331e-001 
1.137230e-001 
1.138407e-001 
1.154118e-001 
1.150007e-001 
1.122958e-001 
1.101658e-001 
1.080400e-001 
1.080272e-001 
1.099057e-001 
1.086533e-001 
1.058521e-001 
1.040629e-001 
1.027231e-001 
1.033140e-001 
1.036158e-001 
1.016097e-001 
9.976653e-002 
9.898386e-002 
9.900301e-002 
9.971258e-002 
1.007554e-001 
1.002911e-001 
9.820684e-002 
9.585072e-002 
9.504423e-002 
9.615794e-002 
9.735810e-002 
9.602392e-002 
9.372630e-002 
9.357452e-002 
9.284047e-002 
9.290794e-002 
9.283477e-002 
9.125304e-002 
8.956071e-002 
8.809520e-002 
8.753193e-002 
8.894515e-002 
8.904361e-002 
8.630962e-002 
8.421144e-002 
8.259921e-002 
8.289025e-002 
8.410228e-002 
8.422117e-002 
8.310545e-002 
8.093671e-002 
7.826764e-002 
7.789655e-002 
7.885699e-002 
7.785986e-002 
7.536847e-002 
7.224120e-002 
7.060224e-002 
7.076968e-002 
7.104072e-002 
7.130701e-002 
7.096130e-002 
6.764749e-002 
6.466636e-002 
6.489061e-002 
6.582237e-002 
6.687515e-002 
6.660307e-002 
6.542841e-002 
6.517503e-002 
6.481270e-002 
6.466295e-002 
6.621090e-002 
6.543337e-002 
6.235947e-002 
6.191360e-002 
6.247022e-002 
6.284864e-002 
6.192293e-002 
5.869511e-002 
5.631570e-002 
5.635432e-002 
5.702701e-002 
5.833409e-002 
6.042691e-002 
6.005480e-002 
5.699463e-002 
5.371160e-002 
5.311960e-002 
5.536503e-002 
5.723294e-002 
5.608662e-002 
5.443622e-002 
5.514164e-002 
5.527082e-002 
5.524928e-002 
5.676854e-002 
5.770151e-002 
5.615325e-002 
5.468959e-002 
5.451849e-002 
5.649502e-002 
5.765799e-002 
5.590172e-002 
5.537288e-002 
5.571467e-002 
5.699176e-002 
6.052136e-002 
6.572215e-002 
7.025094e-002 
7.452108e-002 
7.759785e-002 
8.255555e-002 
8.869794e-002 
9.318268e-002 
9.674230e-002 
9.886033e-002 
1.018778e-001 
1.047217e-001 
1.058623e-001 
1.045251e-001 
1.026883e-001 
9.870900e-002 
9.413301e-002 
8.962270e-002 
8.537603e-002 
8.143364e-002 
7.384173e-002 
6.348704e-002 
5.539683e-002 
5.032364e-002 
4.506379e-002 
4.001508e-002 
3.490413e-002 
3.109275e-002 
2.855634e-002 
2.636179e-002 
2.588205e-002 
2.778995e-002 
2.867599e-002 
2.755854e-002 
2.767576e-002 
2.980077e-002 
3.270100e-002 
3.496013e-002 
3.500174e-002 
3.444584e-002 
3.588104e-002 
3.680218e-002 
3.712954e-002 
3.844549e-002 
3.800952e-002 
3.709284e-002 
3.793920e-002 
3.987594e-002 
4.462449e-002 
5.016241e-002 
5.620581e-002 
6.706563e-002 
8.345953e-002 
1.044409e-001 
1.300015e-001 
1.547183e-001 
1.745077e-001 
1.883820e-001 
1.969520e-001 
2.005363e-001 
1.943392e-001 
1.771172e-001 
1.468950e-001 
1.063964e-001 
6.418896e-002 
2.706322e-002 
-3.387653e-003 
-2.935640e-002 
-5.802358e-002 
-9.161082e-002 
-1.281193e-001 
-1.644155e-001 
-1.888806e-001 
-1.983673e-001 
-1.984488e-001 
-1.937561e-001 
-1.868962e-001 
-1.773898e-001 
-1.611249e-001 
-1.347478e-001 
-9.494146e-002 
-4.612676e-002 
3.187892e-004 
3.834572e-002 
6.431694e-002 
7.875326e-002 
8.589884e-002 
9.126671e-002 
9.761646e-002 
1.040230e-001 
1.066695e-001 
1.062589e-001 
1.042085e-001 
1.014069e-001 
9.939155e-002 
9.802606e-002 
9.875888e-002 
9.840389e-002 
9.481556e-002 
9.131255e-002 
8.983649e-002 
8.851429e-002 
8.763092e-002 
8.447027e-002 
8.055904e-002 
7.922273e-002 
7.688457e-002 
7.618937e-002 
7.875895e-002 
7.854346e-002 
7.460182e-002 
7.074571e-002 
6.795413e-002 
6.850189e-002 
7.045260e-002 
7.002652e-002 
7.013848e-002 
6.836480e-002 
6.422941e-002 
6.313454e-002 
6.497229e-002 
6.586683e-002 
6.556188e-002 
6.354604e-002 
6.177305e-002 
6.083581e-002 
5.833811e-002 
5.708263e-002 
5.675492e-002 
5.402925e-002 
5.113781e-002 
5.010157e-002 
4.979236e-002 
4.881183e-002 
4.639500e-002 
4.400772e-002 
4.329177e-002 
4.286673e-002 
4.193394e-002 
4.109275e-002 
3.908699e-002 
3.682736e-002 
3.588437e-002 
3.700665e-002 
3.739069e-002 
3.661456e-002 
3.414276e-002 
2.988706e-002 
2.702745e-002 
2.692229e-002 
2.845052e-002 
2.860722e-002 
2.569885e-002 
2.151743e-002 
1.812960e-002 
1.508149e-002 
1.258833e-002 
1.063297e-002 
7.556064e-003 
2.502373e-003 
-2.644752e-003 
-4.820755e-003 
-7.133061e-003 
-1.062178e-002 
-1.508474e-002 
-2.105639e-002 
-2.493171e-002 
-2.652740e-002 
-2.749471e-002 
-2.847360e-002 
-3.277422e-002 
-3.945434e-002 
-4.340425e-002 
-4.601052e-002 
-4.657264e-002 
-4.419679e-002 
-4.297974e-002 
-4.366564e-002 
-4.426312e-002 
-4.323463e-002 
-3.900449e-002 
-3.459186e-002 
-3.171386e-002 
-2.821100e-002 
-2.366421e-002 
-1.886574e-002 
-1.355316e-002 
-7.487288e-003 
-2.028406e-003 
2.762086e-003 
8.385133e-003 
1.504805e-002 
2.187670e-002 
2.686756e-002 
2.875681e-002 
3.021921e-002 
3.233341e-002 
3.483538e-002 
3.830574e-002 
4.049082e-002 
4.057470e-002 
3.914390e-002 
3.681461e-002 
3.617278e-002 
3.760349e-002 
3.832934e-002 
3.743899e-002 
3.388611e-002 
3.098112e-002 
3.084407e-002 
3.043344e-002 
2.958895e-002 
2.867677e-002 
2.671817e-002 
2.529844e-002 
2.534916e-002 
2.577553e-002 
2.862835e-002 
2.975149e-002 
2.838253e-002 
2.809439e-002 
2.848499e-002 
2.946815e-002 
3.184759e-002 
3.334646e-002 
3.408636e-002 
3.594899e-002 
3.685124e-002 
3.818504e-002 
3.875302e-002 
3.824429e-002 
3.824040e-002 
3.947269e-002 
4.193927e-002 
4.444379e-002 
4.497738e-002 
4.343833e-002 
4.186817e-002 
4.073130e-002 
4.193522e-002 
4.313971e-002 
4.447384e-002 
4.487416e-002 
4.251218e-002 
3.999708e-002 
4.024667e-002 
4.218229e-002 
4.326350e-002 
4.212280e-002 
4.005782e-002 
4.017394e-002 
4.003656e-002 
3.980087e-002 
3.987762e-002 
3.889903e-002 
3.718494e-002 
3.469577e-002 
3.342364e-002 
3.527073e-002 
3.602450e-002 
3.531909e-002 
3.540355e-002 
3.442369e-002 
3.461222e-002 
3.685033e-002 
3.689814e-002 
3.622089e-002 
3.553335e-002 
3.483174e-002 
3.737668e-002 
3.934741e-002 
3.919491e-002 
3.947021e-002 
3.846273e-002 
3.712289e-002 
3.809094e-002 
4.017290e-002 
4.269064e-002 
4.309040e-002 
4.022119e-002 
3.816442e-002 
3.762407e-002 
3.805206e-002 
3.843472e-002 
3.688030e-002 
3.557206e-002 
3.493081e-002 
3.403880e-002 
3.411967e-002 
3.468588e-002 
3.448029e-002 
3.409367e-002 
3.331008e-002 
3.384453e-002 
3.662015e-002 
3.769276e-002 
3.736379e-002 
3.686211e-002 
3.717212e-002 
3.914321e-002 
4.225952e-002 
4.385051e-002 
4.456702e-002 
4.424498e-002 
4.379802e-002 
4.492876e-002 
4.698571e-002 
4.874540e-002 
4.829982e-002 
4.722730e-002 
4.629585e-002 
4.726906e-002 
4.830593e-002 
4.877393e-002 
4.841380e-002 
4.778784e-002 
4.720526e-002 
4.810634e-002 
5.053040e-002 
5.199451e-002 
5.186381e-002 
5.058175e-002 
5.167667e-002 
5.441450e-002 
5.717883e-002 
5.895354e-002 
5.852396e-002 
5.729927e-002 
5.692399e-002 
5.834945e-002 
6.116503e-002 
6.352993e-002 
6.316839e-002 
6.160302e-002 
6.093211e-002 
6.197339e-002 
6.482262e-002 
6.733921e-002 
6.807039e-002 
6.651732e-002 
6.519112e-002 
6.525220e-002 
6.784100e-002 
7.031277e-002 
7.022255e-002 
6.955657e-002 
6.940121e-002 
6.920019e-002 
7.009000e-002 
7.144992e-002 
7.194749e-002 
7.184850e-002 
7.086367e-002 
7.183673e-002 
7.391391e-002 
7.424778e-002 
7.324282e-002 
7.242918e-002 
7.299297e-002 
7.491678e-002 
7.652803e-002 
7.826345e-002 
7.899617e-002 
7.781236e-002 
7.721352e-002 
7.893813e-002 
8.241641e-002 
8.522298e-002 
8.521951e-002 
8.370712e-002 
8.352161e-002 
8.533567e-002 
8.685118e-002 
8.823010e-002 
8.996964e-002 
8.998428e-002 
8.909471e-002 
8.897856e-002 
9.072230e-002 
9.380470e-002 
9.521657e-002 
9.447660e-002 
9.593649e-002 
9.890264e-002 
1.014088e-001 
1.048514e-001 
1.093618e-001 
1.151862e-001 
1.216790e-001 
1.288883e-001 
1.354043e-001 
1.396459e-001 
1.420972e-001 
1.437944e-001 
1.460662e-001 
1.479446e-001 
1.486831e-001 
1.480413e-001 
1.453294e-001 
1.392961e-001 
1.356802e-001 
1.354524e-001 
1.346627e-001 
1.310831e-001 
1.252020e-001 
1.204195e-001 
1.172679e-001 
1.146034e-001 
1.123679e-001 
1.113721e-001 
1.091256e-001 
1.071597e-001 
1.068613e-001 
1.107599e-001 
1.170166e-001 
1.212227e-001 
1.220584e-001 
1.219621e-001 
1.225736e-001 
1.257601e-001 
1.292213e-001 
1.311040e-001 
1.319271e-001 
1.312890e-001 
1.311921e-001 
1.329778e-001 
1.380773e-001 
1.440240e-001 
1.482409e-001 
1.530038e-001 
1.640224e-001 
1.808713e-001 
2.027711e-001 
2.261385e-001 
2.483264e-001 
2.672347e-001 
2.789866e-001 
2.823977e-001 
2.792122e-001 
2.659578e-001 
2.385595e-001 
2.024568e-001 
1.633274e-001 
1.271014e-001 
9.527198e-002 
6.609697e-002 
3.687920e-002 
6.835305e-003 
-2.658870e-002 
-6.035351e-002 
-8.606466e-002 
-1.010267e-001 
-1.067070e-001 
-1.065739e-001 
-1.014411e-001 
-9.190043e-002 
-7.658636e-002 
-5.298199e-002 
-1.655842e-002 
3.186402e-002 
8.423961e-002 
1.309032e-001 
1.658173e-001 
1.895435e-001 
2.029382e-001 
2.117940e-001 
2.220764e-001 
2.353532e-001 
2.470703e-001 
2.536056e-001 
2.541784e-001 
2.524517e-001 
2.538685e-001 
2.571689e-001 
2.614472e-001 
2.652604e-001 
2.673325e-001 
2.654689e-001 
2.639452e-001 
2.647493e-001 
2.683988e-001 
2.722760e-001 
2.732654e-001 
2.723187e-001 
2.714612e-001 
2.718341e-001 
2.714774e-001 
2.724368e-001 
2.733854e-001 
2.733882e-001 
2.732660e-001 
2.735171e-001 
2.732537e-001 
2.733998e-001 
2.720836e-001 
2.691403e-001 
2.687395e-001 
2.696244e-001 
2.705477e-001 
2.704217e-001 
2.679606e-001 
2.653888e-001 
2.646772e-001 
2.645513e-001 
2.656379e-001 
2.666008e-001 
2.650207e-001 
2.617828e-001 
2.591841e-001 
2.582796e-001 
2.588100e-001 
2.586835e-001 
2.567229e-001 
2.543175e-001 
2.528212e-001 
2.522693e-001 
2.532148e-001 
2.544237e-001 
2.532672e-001 
2.502432e-001 
2.483398e-001 
2.486668e-001 
2.499403e-001 
2.503104e-001 
2.490802e-001 
2.477166e-001 
2.464741e-001 
2.458175e-001 
2.462507e-001 
2.480542e-001 
2.473987e-001 
2.441218e-001 
2.413397e-001 
2.405051e-001 
2.401100e-001 
2.394117e-001 
2.367239e-001 
2.329720e-001 
2.297381e-001 
2.273745e-001 
2.260664e-001 
2.248575e-001 
2.219849e-001 
2.178541e-001 
2.146387e-001 
2.121555e-001 
2.101258e-001 
2.080420e-001 
2.058901e-001 
2.016068e-001 
1.981604e-001 
1.962000e-001 
1.950505e-001 
1.937270e-001 
1.911653e-001 
1.867960e-001 
1.832241e-001 
1.811827e-001 
1.782571e-001 
1.763365e-001 
1.738093e-001 
1.702012e-001 
1.677341e-001 
1.675299e-001 
1.677757e-001 
1.684514e-001 
1.688195e-001 
1.687526e-001 
1.707605e-001 
1.732127e-001 
1.764287e-001 
1.806891e-001 
1.836211e-001 
1.849519e-001 
1.880810e-001 
1.945442e-001 
2.007447e-001 
2.056620e-001 
2.087186e-001 
2.113904e-001 
2.145911e-001 
2.183866e-001 
2.232463e-001 
2.276266e-001 
2.299833e-001 
2.297888e-001 
2.305644e-001 
2.314458e-001 
2.330405e-001 
2.348037e-001 
2.352005e-001 
2.344350e-001 
2.335532e-001 
2.341878e-001 
2.345675e-001 
2.335259e-001 
2.313692e-001 
2.301742e-001 
2.294293e-001 
2.292364e-001 
2.298472e-001 
2.293330e-001 
2.267952e-001 
2.229183e-001 
2.207410e-001 
2.216739e-001 
2.231374e-001 
2.232024e-001 
2.220716e-001 
2.206926e-001 
2.188273e-001 
2.181915e-001 
2.186892e-001 
2.195599e-001 
2.201196e-001 
2.183102e-001 
2.173486e-001 
2.185949e-001 
2.216961e-001 
2.227121e-001 
2.209027e-001 
2.194094e-001 
2.206755e-001 
2.229152e-001 
2.237804e-001 
2.253560e-001 
2.260707e-001 
2.250048e-001 
2.221235e-001 
2.219986e-001 
2.245729e-001 
2.265831e-001 
2.255518e-001 
2.225125e-001 
2.215163e-001 
2.215871e-001 
2.209682e-001 
2.210421e-001 
2.205676e-001 
2.190194e-001 
2.187082e-001 
2.180528e-001 
2.176939e-001 
2.182658e-001 
2.163355e-001 
2.129908e-001 
2.116647e-001 
2.108307e-001 
2.115954e-001 
2.116654e-001 
2.091714e-001 
2.060782e-001 
2.044807e-001 
2.037537e-001 
2.030305e-001 
2.018572e-001 
1.995698e-001 
1.974690e-001 
1.953108e-001 
1.931565e-001 
1.925574e-001 
1.932833e-001 
1.907660e-001 
1.862732e-001 
1.852601e-001 
1.862191e-001 
1.866704e-001 
1.858690e-001 
1.831129e-001 
1.801635e-001 
1.770285e-001 
1.748102e-001 
1.762379e-001 
1.779401e-001 
1.759292e-001 
1.731378e-001 
1.709146e-001 
1.687849e-001 
1.672629e-001 
1.660087e-001 
1.651782e-001 
1.628711e-001 
1.599790e-001 
1.583600e-001 
1.582478e-001 
1.572175e-001 
1.548485e-001 
1.524917e-001 
1.519064e-001 
1.523015e-001 
1.526638e-001 
1.525715e-001 
1.505171e-001 
1.487056e-001 
1.470887e-001 
1.468637e-001 
1.483548e-001 
1.496127e-001 
1.483857e-001 
1.469784e-001 
1.452311e-001 
1.443865e-001 
1.442467e-001 
1.431880e-001 
1.410216e-001 
1.385325e-001 
1.362376e-001 
1.351767e-001 
1.356942e-001 
1.346645e-001 
1.313589e-001 
1.287741e-001 
1.273041e-001 
1.258748e-001 
1.267490e-001 
1.272691e-001 
1.259036e-001 
1.237268e-001 
1.210937e-001 
1.201257e-001 
1.214684e-001 
1.206869e-001 
1.198188e-001 
1.199479e-001 
1.193759e-001 
1.191968e-001 
1.196591e-001 
1.192541e-001 
1.180143e-001 
1.160516e-001 
1.159477e-001 
1.183479e-001 
1.195145e-001 
1.195068e-001 
1.187664e-001 
1.167607e-001 
1.157339e-001 
1.168643e-001 
1.192507e-001 
1.209557e-001 
1.188759e-001 
1.151393e-001 
1.131324e-001 
1.121784e-001 
1.120568e-001 
1.125635e-001 
1.105636e-001 
1.076116e-001 
1.050998e-001 
1.032525e-001 
1.028240e-001 
1.017335e-001 
1.002205e-001 
9.873006e-002 
9.504279e-002 
9.251511e-002 
9.357527e-002 
9.239159e-002 
8.962170e-002 
8.771519e-002 
8.714394e-002 
8.849900e-002 
8.852164e-002 
8.722571e-002 
8.680170e-002 
8.497588e-002 
8.245598e-002 
8.391872e-002 
8.687349e-002 
8.763737e-002 
8.579146e-002 
8.370804e-002 
8.377633e-002 
8.416563e-002 
8.541432e-002 
8.809598e-002 
8.880777e-002 
8.654059e-002 
8.477796e-002 
8.619587e-002 
9.087162e-002 
9.577302e-002 
9.713770e-002 
9.949336e-002 
1.020228e-001 
1.026776e-001 
1.048757e-001 
1.082140e-001 
1.098398e-001 
1.093547e-001 
1.065512e-001 
1.026354e-001 
1.004330e-001 
9.630875e-002 
9.113080e-002 
8.692961e-002 
8.275910e-002 
7.792930e-002 
7.223461e-002 
6.623997e-002 
5.984773e-002 
5.329762e-002 
4.822843e-002 
4.601951e-002 
4.450378e-002 
4.202026e-002 
3.852203e-002 
3.623955e-002 
3.759311e-002 
3.994709e-002 
4.247718e-002 
4.486016e-002 
4.505201e-002 
4.279563e-002 
4.136829e-002 
4.244618e-002 
4.489839e-002 
4.633729e-002 
4.477314e-002 
4.298194e-002 
4.242329e-002 
4.349302e-002 
4.634303e-002 
5.251391e-002 
6.075653e-002 
7.164302e-002 
8.739144e-002 
1.079844e-001 
1.299506e-001 
1.502189e-001 
1.674625e-001 
1.787200e-001 
1.845140e-001 
1.818058e-001 
1.693185e-001 
1.451210e-001 
1.060354e-001 
5.834184e-002 
1.343712e-002 
-2.527550e-002 
-5.880224e-002 
-8.973681e-002 
-1.226369e-001 
-1.586292e-001 
-1.989785e-001 
-2.370817e-001 
-2.619697e-001 
-2.725528e-001 
-2.737741e-001 
-2.696218e-001 
-2.607435e-001 
-2.450920e-001 
-2.232541e-001 
-1.934157e-001 
-1.513787e-001 
-1.017135e-001 
-5.220763e-002 
-1.087747e-002 
1.731572e-002 
3.485468e-002 
4.554619e-002 
5.205667e-002 
5.945219e-002 
6.913763e-002 
7.737698e-002 
8.268181e-002 
8.378087e-002 
8.212047e-002 
8.255934e-002 
8.478410e-002 
8.534707e-002 
8.521036e-002 
8.379503e-002 
8.181510e-002 
8.173705e-002 
8.138103e-002 
8.137323e-002 
8.172153e-002 
7.909177e-002 
7.520055e-002 
7.314664e-002 
7.346490e-002 
7.516032e-002 
7.382916e-002 
6.925093e-002 
6.605755e-002 
6.324910e-002 
6.104219e-002 
5.977618e-002 
5.872438e-002 
5.709111e-002 
5.358271e-002 
4.955629e-002 
4.895414e-002 
4.883426e-002 
4.708785e-002 
4.428044e-002 
4.100023e-002 
3.941304e-002 
3.897792e-002 
3.769066e-002 
3.511123e-002 
3.191822e-002 
2.714182e-002 
2.477753e-002 
2.426576e-002 
2.424359e-002 
2.335963e-002 
2.007829e-002 
1.468309e-002 
1.177536e-002 
1.152541e-002 
1.142728e-002 
1.156281e-002 
9.162455e-003 
5.183775e-003 
1.406833e-003 
8.014834e-005 
1.136855e-003 
2.298552e-003 
9.052638e-004 
-2.823302e-003 
-5.745894e-003 
-7.023698e-003 
-7.829727e-003 
-8.557012e-003 
-8.959414e-003 
-1.152285e-002 
-1.496379e-002 
-1.638129e-002 
-1.672282e-002 
-1.708759e-002 
-1.936389e-002 
-2.289136e-002 
-2.448160e-002 
-2.568502e-002 
-2.819769e-002 
-3.035576e-002 
-3.179241e-002 
-3.492487e-002 
-3.919324e-002 
-4.240734e-002 
-4.376503e-002 
-4.603189e-002 
-5.147081e-002 
-5.710523e-002 
-6.101816e-002 
-6.371052e-002 
-6.715845e-002 
-7.157284e-002 
-7.578689e-002 
-8.005519e-002 
-8.448673e-002 
-8.775068e-002 
-8.926964e-002 
-9.074379e-002 
-9.470478e-002 
-9.987415e-002 
-1.034331e-001 
-1.041306e-001 
-1.049748e-001 
-1.066262e-001 
-1.095075e-001 
-1.114167e-001 
-1.119291e-001 
-1.120805e-001 
-1.086858e-001 
-1.046629e-001 
-1.035196e-001 
-1.034406e-001 
-1.017661e-001 
-9.866601e-002 
-9.349766e-002 
-8.952569e-002 
-8.641736e-002 
-8.220208e-002 
-7.893860e-002 
-7.382595e-002 
-6.799029e-002 
-6.375892e-002 
-6.143244e-002 
-5.958842e-002 
-5.769831e-002 
-5.463565e-002 
-5.137100e-002 
-4.928587e-002 
-4.881356e-002 
-5.079697e-002 
-5.188383e-002 
-5.032342e-002 
-4.733324e-002 
-4.644261e-002 
-4.801639e-002 
-5.099895e-002 
-5.331662e-002 
-5.451542e-002 
-5.435452e-002 
-5.410693e-002 
-5.470957e-002 
-5.748769e-002 
-6.101352e-002 
-6.186491e-002 
-6.103085e-002 
-6.057846e-002 
-6.073831e-002 
-6.189248e-002 
-6.309194e-002 
-6.248062e-002 
-6.141246e-002 
-6.064170e-002 
-6.073655e-002 
-6.108913e-002 
-6.025396e-002 
-5.747493e-002 
-5.613743e-002 
-5.487545e-002 
-5.466262e-002 
-5.638591e-002 
-5.761216e-002 
-5.739552e-002 
-5.597533e-002 
-5.533221e-002 
-5.667256e-002 
-5.866480e-002 
-5.863607e-002 
-5.927870e-002 
-5.854360e-002 
-5.810156e-002 
-6.059000e-002 
-6.396725e-002 
-6.553759e-002 
-6.397524e-002 
-6.174609e-002 
-6.195217e-002 
-6.448590e-002 
-6.650357e-002 
-6.853953e-002 
-6.971434e-002 
-6.822981e-002 
-6.501863e-002 
-6.402461e-002 
-6.704509e-002 
-6.964817e-002 
-7.052805e-002 
-7.071706e-002 
-7.074537e-002 
-7.188032e-002 
-7.290077e-002 
-7.353542e-002 
-7.426435e-002 
-7.421133e-002 
-7.411993e-002 
-7.649277e-002 
-7.936143e-002 
-8.081365e-002 
-8.135651e-002 
-8.234255e-002 
-8.363757e-002 
-8.519414e-002 
-8.795476e-002 
-9.017922e-002 
-9.045481e-002 
-8.958832e-002 
-8.904108e-002 
-9.115672e-002 
-9.436308e-002 
-9.484718e-002 
-9.388017e-002 
-9.312464e-002 
-9.308026e-002 
-9.470553e-002 
-9.660522e-002 
-9.786938e-002 
-9.852262e-002 
-9.617974e-002 
-9.329799e-002 
-9.293968e-002 
-9.501747e-002 
-9.689087e-002 
-9.695275e-002 
-9.664284e-002 
-9.760841e-002 
-9.822471e-002 
-9.797797e-002 
-9.831626e-002 
-9.840239e-002 
-9.777636e-002 
-9.733192e-002 
-9.893792e-002 
-1.022159e-001 
-1.033242e-001 
-1.024065e-001 
-1.017641e-001 
-1.027913e-001 
-1.050404e-001 
-1.079123e-001 
-1.099271e-001 
-1.097731e-001 
-1.085768e-001 
-1.073258e-001 
-1.084807e-001 
-1.115237e-001 
-1.150623e-001 
-1.159506e-001 
-1.156331e-001 
-1.158068e-001 
-1.179931e-001 
-1.208199e-001 
-1.222670e-001 
-1.228632e-001 
-1.233059e-001 
-1.230570e-001 
-1.227700e-001 
-1.251977e-001 
-1.279339e-001 
-1.291579e-001 
-1.291025e-001 
-1.293910e-001 
-1.306866e-001 
-1.315827e-001 
-1.313585e-001 
-1.320570e-001 
-1.317537e-001 
-1.310514e-001 
-1.318858e-001 
-1.332487e-001 
-1.333633e-001 
-1.315710e-001 
-1.299015e-001 
-1.307497e-001 
-1.325206e-001 
-1.328602e-001 
-1.330987e-001 
-1.318809e-001 
-1.301515e-001 
-1.285523e-001 
-1.287133e-001 
-1.314939e-001 
-1.333628e-001 
-1.324483e-001 
-1.303759e-001 
-1.293263e-001 
-1.298725e-001 
-1.314064e-001 
-1.309586e-001 
-1.283807e-001 
-1.242194e-001 
-1.189819e-001 
-1.144682e-001 
-1.108950e-001 
-1.076750e-001 
-1.039914e-001 
-1.004061e-001 
-9.746814e-002 
-9.528365e-002 
-9.456638e-002 
-9.457340e-002 
-9.499190e-002 
-9.662502e-002 
-1.010482e-001 
-1.077759e-001 
-1.142853e-001 
-1.185876e-001 
-1.206966e-001 
-1.229046e-001 
-1.280181e-001 
-1.351910e-001 
-1.433396e-001 
-1.502231e-001 
-1.514941e-001 
-1.492153e-001 
-1.481969e-001 
-1.487781e-001 
-1.512742e-001 
-1.538226e-001 
-1.523485e-001 
-1.491767e-001 
-1.442874e-001 
-1.398744e-001 
-1.401985e-001 
-1.410946e-001 
-1.399633e-001 
-1.379494e-001 
-1.352371e-001 
-1.347062e-001 
-1.364644e-001 
-1.373933e-001 
-1.376358e-001 
-1.361210e-001 
-1.325391e-001 
-1.300696e-001 
-1.277516e-001 
-1.242395e-001 
-1.162120e-001 
-1.033677e-001 
-8.712207e-002 
-6.768532e-002 
-4.819193e-002 
-2.940788e-002 
-1.103769e-002 
5.191111e-003 
1.778750e-002 
2.288041e-002 
1.592990e-002 
4.280515e-004 
-2.378541e-002 
-5.782653e-002 
-9.563386e-002 
-1.336925e-001 
-1.691545e-001 
-2.010183e-001 
-2.310836e-001 
-2.600958e-001 
-2.914430e-001 
-3.244714e-001 
-3.538115e-001 
-3.742083e-001 
-3.835955e-001 
-3.818668e-001 
-3.742260e-001 
-3.623061e-001 
-3.485969e-001 
-3.296564e-001 
-2.981176e-001 
-2.587259e-001 
-2.164276e-001 
-1.744904e-001 
-1.402408e-001 
-1.180073e-001 
-1.037408e-001 
-9.611929e-002 
-8.869859e-002 
-8.085879e-002 
-7.533634e-002 
-6.899716e-002 
-6.299931e-002 
-6.079339e-002 
-6.169651e-002 
-6.355900e-002 
-6.482175e-002 
-6.437230e-002 
-6.282954e-002 
-6.115704e-002 
-6.067699e-002 
-6.239840e-002 
-6.664566e-002 
-7.066350e-002 
-7.113946e-002 
-7.008556e-002 
-6.982281e-002 
-7.049350e-002 
-7.257175e-002 
-7.420221e-002 
-7.549090e-002 
-7.613265e-002 
-7.560266e-002 
-7.560155e-002 
-7.566898e-002 
-7.493163e-002 
-7.468351e-002 
-7.349917e-002 
-7.252055e-002 
-7.416353e-002 
-7.545157e-002 
-7.636179e-002 
-7.606258e-002 
-7.424640e-002 
-7.465637e-002 
-7.694274e-002 
-7.712376e-002 
-7.761535e-002 
-7.784328e-002 
-7.611382e-002 
-7.572971e-002 
-7.725959e-002 
-7.962531e-002 
-8.139556e-002 
-8.063955e-002 
-7.864972e-002 
-7.940854e-002 
-8.088651e-002 
-8.249764e-002 
-8.440870e-002 
-8.568905e-002 
-8.464684e-002 
-8.300689e-002 
-8.361006e-002 
-8.623007e-002 
-8.751333e-002 
-8.714050e-002 
-8.657512e-002 
-8.719856e-002 
-8.844426e-002 
-8.884334e-002 
-8.948645e-002 
-8.910291e-002 
-8.754852e-002 
-8.664908e-002 
-8.820436e-002 
-9.095047e-002 
-9.186774e-002 
-9.061109e-002 
-8.962582e-002 
-8.892527e-002 
-9.014883e-002 
-9.335075e-002 
-9.559996e-002 
-9.643597e-002 
-9.596990e-002 
-9.541339e-002 
-9.750196e-002 
-1.004454e-001 
-1.037246e-001 
-1.061902e-001 
-1.061167e-001 
-1.061660e-001 
-1.085257e-001 
-1.118720e-001 
-1.152555e-001 
-1.170563e-001 
-1.185801e-001 
-1.211692e-001 
-1.236497e-001 
-1.266328e-001 
-1.305198e-001 
-1.338543e-001 
-1.361247e-001 
-1.391139e-001 
-1.433904e-001 
-1.484943e-001 
-1.520644e-001 
-1.545771e-001 
-1.552890e-001 
-1.572092e-001 
-1.601301e-001 
-1.625129e-001 
-1.631180e-001 
-1.614457e-001 
-1.571562e-001 
-1.523029e-001 
-1.488199e-001 
-1.450799e-001 
-1.412856e-001 
-1.347058e-001 
-1.254959e-001 
-1.162191e-001 
-1.088153e-001 
-1.007200e-001 
-9.357115e-002 
-8.556234e-002 
-7.549044e-002 
-6.578945e-002 
-5.773781e-002 
-5.125141e-002 
-4.550638e-002 
-3.925820e-002 
-3.315577e-002 
-2.949508e-002 
-2.588636e-002 
-2.311004e-002 
-2.138970e-002 
-1.892595e-002 
-1.503940e-002 
-1.178211e-002 
-1.047751e-002 
-1.134712e-002 
-1.048988e-002 
-6.679628e-003 
-3.755557e-003 
-1.069397e-003 
5.003886e-004 
5.145270e-005 
1.139885e-004 
2.365837e-003 
6.076552e-003 
1.090941e-002 
1.335776e-002 
1.507491e-002 
1.809499e-002 
1.964502e-002 
2.225243e-002 
2.679374e-002 
3.012490e-002 
3.046690e-002 
3.104703e-002 
3.267444e-002 
3.588823e-002 
3.751562e-002 
3.781113e-002 
3.823664e-002 
3.906336e-002 
3.988625e-002 
4.121964e-002 
4.366197e-002 
4.432560e-002 
4.440732e-002 
4.523999e-002 
4.619484e-002 
4.683798e-002 
4.827506e-002 
4.825982e-002 
4.864471e-002 
4.903400e-002 
5.058374e-002 
5.396993e-002 
5.582018e-002 
5.478666e-002 
5.464136e-002 
5.637104e-002 
5.949438e-002 
6.341925e-002 
6.482265e-002 
6.609520e-002 
6.718632e-002 
6.719328e-002 
6.835856e-002 
7.294963e-002 
7.811426e-002 
8.135042e-002 
8.262971e-002 
8.407107e-002 
8.835944e-002 
9.252363e-002 
9.483732e-002 
9.684269e-002 
9.903783e-002 
1.012112e-001 
1.039489e-001 
1.066617e-001 
1.089983e-001 
1.109065e-001 
1.115916e-001 
1.137742e-001 
1.163709e-001 
1.193342e-001 
1.229477e-001 
1.234478e-001 
1.216365e-001 
1.223266e-001 
1.248981e-001 
1.280002e-001 
1.305686e-001 
1.301487e-001 
1.303452e-001 
1.307469e-001 
1.313933e-001 
1.349494e-001 
1.384336e-001 
1.391869e-001 
1.384452e-001 
1.387202e-001 
1.404959e-001 
1.427396e-001 
1.445327e-001 
1.461094e-001 
1.464772e-001 
1.466357e-001 
1.490112e-001 
1.523006e-001 
1.560927e-001 
1.567476e-001 
1.565306e-001 
1.584203e-001 
1.615202e-001 
1.653172e-001 
1.697425e-001 
1.725558e-001 
1.733995e-001 
1.741472e-001 
1.759429e-001 
1.804040e-001 
1.839055e-001 
1.858617e-001 
1.872633e-001 
1.901056e-001 
1.946393e-001 
2.001315e-001 
2.059124e-001 
2.121529e-001 
2.176400e-001 
2.241128e-001 
2.315418e-001 
2.383447e-001 
2.447873e-001 
2.479939e-001 
2.483076e-001 
2.484493e-001 
2.493046e-001 
2.508924e-001 
2.523857e-001 
2.500423e-001 
2.463501e-001 
2.435677e-001 
2.396273e-001 
2.359143e-001 
2.313923e-001 
2.268195e-001 
2.220788e-001 
2.176461e-001 
2.145732e-001 
2.139434e-001 
2.125675e-001 
2.090238e-001 
2.063139e-001 
2.063543e-001 
2.102828e-001 
2.134873e-001 
2.167454e-001 
2.181353e-001 
2.175833e-001 
2.167578e-001 
2.177708e-001 
2.204565e-001 
2.236657e-001 
2.244229e-001 
2.232079e-001 
2.239215e-001 
2.248943e-001 
2.271258e-001 
2.292532e-001 
2.300500e-001 
2.315890e-001 
2.344531e-001 
2.377357e-001 
2.429543e-001 
2.483230e-001 
2.529446e-001 
2.586435e-001 
2.659780e-001 
2.786027e-001 
2.976734e-001 
3.173829e-001 
3.371758e-001 
3.577173e-001 
3.765650e-001 
3.935307e-001 
4.051777e-001 
4.083477e-001 
4.032811e-001 
3.860981e-001 
3.568853e-001 
3.225269e-001 
2.851588e-001 
2.458578e-001 
2.074558e-001 
1.705440e-001 
1.380733e-001 
1.089248e-001 
7.779826e-002 
4.640005e-002 
1.834820e-002 
-1.866138e-003 
-1.115900e-002 
-8.246699e-003 
4.182266e-003 
2.287876e-002 
4.369150e-002 
6.740367e-002 
9.874091e-002 
1.403680e-001 
1.880359e-001 
2.339742e-001 
2.726512e-001 
2.995290e-001 
3.174901e-001 
3.296932e-001 
3.391620e-001 
3.480800e-001 
3.561466e-001 
3.619051e-001 
3.660765e-001 
3.678658e-001 
3.691728e-001 
3.713079e-001 
3.706379e-001 
3.683887e-001 
3.680008e-001 
3.692228e-001 
3.699233e-001 
3.692507e-001 
3.672689e-001 
3.665309e-001 
3.648822e-001 
3.628861e-001 
3.636109e-001 
3.650834e-001 
3.634816e-001 
3.600716e-001 
3.589136e-001 
3.602352e-001 
3.617186e-001 
3.611560e-001 
3.600879e-001 
3.586272e-001 
3.570557e-001 
3.565502e-001 
3.574948e-001 
3.585204e-001 
3.582104e-001 
3.561508e-001 
3.549319e-001 
3.548247e-001 
3.549587e-001 
3.550559e-001 
3.538189e-001 
3.511393e-001 
3.493732e-001 
3.498536e-001 
3.512387e-001 
3.518517e-001 
3.511276e-001 
3.496174e-001 
3.478224e-001 
3.472672e-001 
3.472195e-001 
3.469754e-001 
3.461138e-001 
3.440010e-001 
3.424099e-001 
3.423816e-001 
3.414839e-001 
3.406364e-001 
3.394518e-001 
3.366888e-001 
3.348327e-001 
3.355139e-001 
3.362604e-001 
3.357348e-001 
3.334647e-001 
3.302233e-001 
3.281358e-001 
3.271567e-001 
3.274233e-001 
3.277524e-001 
3.275358e-001 
3.253320e-001 
3.234397e-001 
3.229404e-001 
3.223113e-001 
3.212842e-001 
3.196748e-001 
3.158377e-001 
3.132702e-001 
3.126739e-001 
3.113652e-001 
3.099480e-001 
3.068065e-001 
3.030371e-001 
2.995718e-001 
2.959816e-001 
2.941821e-001 
2.938644e-001 
2.898264e-001 
2.855403e-001 
2.834285e-001 
2.808811e-001 
2.777571e-001 
2.732429e-001 
2.689682e-001 
2.662040e-001 
2.634892e-001 
2.615855e-001 
2.616902e-001 
2.595214e-001 
2.530483e-001 
2.465256e-001 
2.426807e-001 
2.422983e-001 
2.434485e-001 
2.445476e-001 
2.435513e-001 
2.414866e-001 
2.404690e-001 
2.415483e-001 
2.456831e-001 
2.501755e-001 
2.543130e-001 
2.573812e-001 
2.620257e-001 
2.671892e-001 
2.740601e-001 
2.818157e-001 
2.879236e-001 
2.926956e-001 
2.978855e-001 
3.050762e-001 
3.128647e-001 
3.197158e-001 
3.227220e-001 
3.255467e-001 
3.279612e-001 
3.306155e-001 
3.333433e-001 
3.342198e-001 
3.331542e-001 
3.316502e-001 
3.302049e-001 
3.294871e-001 
3.284780e-001 
3.254418e-001 
3.221938e-001 
3.165299e-001 
3.105225e-001 
3.086493e-001 
3.088531e-001 
3.067076e-001 
3.013098e-001 
2.952644e-001 
2.925610e-001 
2.920720e-001 
2.907683e-001 
2.902663e-001 
2.887014e-001 
2.846245e-001 
2.804358e-001 
2.784633e-001 
2.799218e-001 
2.816718e-001 
2.812502e-001 
2.784060e-001 
2.753592e-001 
2.738688e-001 
2.746854e-001 
2.754269e-001 
2.748560e-001 
2.730411e-001 
2.711317e-001 
2.706523e-001 
2.694602e-001 
2.698720e-001 
2.704808e-001 
2.691950e-001 
2.689921e-001 
2.693876e-001 
2.687812e-001 
2.685741e-001 
2.679034e-001 
2.657982e-001 
2.652157e-001 
2.640495e-001 
2.644369e-001 
2.656471e-001 
2.622208e-001 
2.580133e-001 
2.573327e-001 
2.573669e-001 
2.558021e-001 
2.541091e-001 
2.509002e-001 
2.475137e-001 
2.436752e-001 
2.409035e-001 
2.420214e-001 
2.422720e-001 
2.388190e-001 
2.356052e-001 
2.349090e-001 
2.337674e-001 
2.320794e-001 
2.310154e-001 
2.298092e-001 
2.277902e-001 
2.244644e-001 
2.235969e-001 
2.241188e-001 
2.234964e-001 
2.192174e-001 
2.146934e-001 
2.132587e-001 
2.125633e-001 
2.126882e-001 
2.105239e-001 
2.070961e-001 
2.026733e-001 
1.996549e-001 
1.971637e-001 
1.974640e-001 
1.976343e-001 
1.945388e-001 
1.904008e-001 
1.854131e-001 
1.830172e-001 
1.820607e-001 
1.814117e-001 
1.782106e-001 
1.744741e-001 
1.698263e-001 
1.661207e-001 
1.645615e-001 
1.626561e-001 
1.590024e-001 
1.547274e-001 
1.511725e-001 
1.479942e-001 
1.472785e-001 
1.455266e-001 
1.425182e-001 
1.393422e-001 
1.369226e-001 
1.359239e-001 
1.354811e-001 
1.336067e-001 
1.319591e-001 
1.296078e-001 
1.255734e-001 
1.237902e-001 
1.231771e-001 
1.226135e-001 
1.193520e-001 
1.139114e-001 
1.107421e-001 
1.101338e-001 
1.085101e-001 
1.066903e-001 
1.044904e-001 
1.005744e-001 
9.765176e-002 
9.544186e-002 
9.470315e-002 
9.372181e-002 
9.097225e-002 
8.821145e-002 
8.638346e-002 
8.560980e-002 
8.593068e-002 
8.696222e-002 
8.740257e-002 
8.701269e-002 
8.755329e-002 
9.240261e-002 
9.889102e-002 
1.037891e-001 
1.059280e-001 
1.058746e-001 
1.064982e-001 
1.082872e-001 
1.093774e-001 
1.102202e-001 
1.098314e-001 
1.068867e-001 
1.024217e-001 
9.728825e-002 
9.362166e-002 
9.026063e-002 
8.338449e-002 
7.415335e-002 
6.642488e-002 
5.953226e-002 
5.283240e-002 
4.492290e-002 
3.603076e-002 
2.785454e-002 
2.072290e-002 
1.535909e-002 
1.308354e-002 
1.113413e-002 
7.195816e-003 
3.191458e-003 
-4.421054e-004 
-3.180394e-003 
-3.852172e-003 
-3.486228e-003 
-4.701366e-003 
-7.009779e-003 
-9.712336e-003 
-1.076921e-002 
-9.495465e-003 
-9.478810e-003 
-1.012668e-002 
-1.011754e-002 
-9.607153e-003 
-9.535526e-003 
-9.521315e-003 
-9.483184e-003 
-8.534921e-003 
-7.806311e-003 
-5.833015e-003 
2.361587e-003 
1.485726e-002 
2.957784e-002 
4.417633e-002 
6.063450e-002 
7.996983e-002 
9.939053e-002 
1.145558e-001 
1.243815e-001 
1.247580e-001 
1.122179e-001 
8.819401e-002 
5.300556e-002 
1.229041e-002 
-2.896984e-002 
-6.789497e-002 
-1.019921e-001 
-1.313627e-001 
-1.608722e-001 
-1.932875e-001 
-2.308863e-001 
-2.683973e-001 
-2.952883e-001 
-3.077929e-001 
-3.086104e-001 
-3.019999e-001 
-2.939862e-001 
-2.857162e-001 
-2.728333e-001 
-2.485332e-001 
-2.080529e-001 
-1.582162e-001 
-1.090364e-001 
-7.043806e-002 
-4.545190e-002 
-3.135153e-002 
-2.206370e-002 
-1.403074e-002 
-5.608312e-003 
-1.900462e-004 
1.618086e-003 
2.070893e-003 
1.633556e-003 
2.309778e-003 
2.176733e-003 
9.743277e-004 
-1.446404e-003 
-4.759920e-003 
-7.403203e-003 
-8.071125e-003 
-8.965283e-003 
-1.121098e-002 
-1.499383e-002 
-1.766704e-002 
-1.840973e-002 
-1.996606e-002 
-2.232917e-002 
-2.440490e-002 
-2.792178e-002 
-3.224676e-002 
-3.528124e-002 
-3.595960e-002 
-3.629616e-002 
-3.967478e-002 
-4.450688e-002 
-4.799666e-002 
-4.951688e-002 
-5.188076e-002 
-5.410360e-002 
-5.678421e-002 
-5.972572e-002 
-6.337393e-002 
-6.532155e-002 
-6.676846e-002 
-6.858254e-002 
-7.147789e-002 
-7.528498e-002 
-7.773579e-002 
-7.913809e-002 
-7.907072e-002 
-8.010614e-002 
-8.251998e-002 
-8.667850e-002 
-8.944316e-002 
-9.132208e-002 
-9.233704e-002 
-9.431640e-002 
-9.714472e-002 
-1.003238e-001 
-1.044096e-001 
-1.073518e-001 
-1.079520e-001 
-1.089924e-001 
-1.126448e-001 
-1.162466e-001 
-1.197907e-001 
-1.216754e-001 
-1.232468e-001 
-1.266873e-001 
-1.298473e-001 
-1.332070e-001 
-1.385062e-001 
-1.420747e-001 
-1.439389e-001 
-1.461704e-001 
-1.492391e-001 
-1.536651e-001 
-1.568954e-001 
-1.581487e-001 
-1.609669e-001 
-1.646921e-001 
-1.683407e-001 
-1.730326e-001 
-1.766104e-001 
-1.790983e-001 
-1.805446e-001 
-1.820711e-001 
-1.866550e-001 
-1.920148e-001 
-1.947998e-001 
-1.973280e-001 
-1.992503e-001 
-2.007265e-001 
-2.044866e-001 
-2.090849e-001 
-2.145566e-001 
-2.176221e-001 
-2.176794e-001 
-2.200989e-001 
-2.244799e-001 
-2.274594e-001 
-2.311963e-001 
-2.346825e-001 
-2.370256e-001 
-2.395263e-001 
-2.408180e-001 
-2.441668e-001 
-2.483062e-001 
-2.487130e-001 
-2.477786e-001 
-2.487986e-001 
-2.491386e-001 
-2.494200e-001 
-2.487202e-001 
-2.459463e-001 
-2.431681e-001 
-2.397608e-001 
-2.351995e-001 
-2.319853e-001 
-2.277380e-001 
-2.213263e-001 
-2.158470e-001 
-2.112146e-001 
-2.075761e-001 
-2.046694e-001 
-1.997918e-001 
-1.939570e-001 
-1.893579e-001 
-1.849301e-001 
-1.840767e-001 
-1.850021e-001 
-1.844447e-001 
-1.825897e-001 
-1.798444e-001 
-1.778365e-001 
-1.786497e-001 
-1.807936e-001 
-1.828266e-001 
-1.840959e-001 
-1.831212e-001 
-1.830748e-001 
-1.852176e-001 
-1.884194e-001 
-1.904973e-001 
-1.899184e-001 
-1.901393e-001 
-1.921924e-001 
-1.949690e-001 
-1.979714e-001 
-2.008445e-001 
-2.010464e-001 
-1.998917e-001 
-1.983847e-001 
-1.994446e-001 
-2.045885e-001 
-2.077469e-001 
-2.071889e-001 
-2.056461e-001 
-2.052127e-001 
-2.055572e-001 
-2.077850e-001 
-2.097581e-001 
-2.107165e-001 
-2.103578e-001 
-2.085568e-001 
-2.079274e-001 
-2.099715e-001 
-2.123628e-001 
-2.124242e-001 
-2.113302e-001 
-2.100303e-001 
-2.094053e-001 
-2.104780e-001 
-2.111546e-001 
-2.113698e-001 
-2.111290e-001 
-2.103399e-001 
-2.097019e-001 
-2.094788e-001 
-2.092677e-001 
-2.089207e-001 
-2.082613e-001 
-2.068860e-001 
-2.070199e-001 
-2.076853e-001 
-2.076964e-001 
-2.060086e-001 
-2.041357e-001 
-2.038488e-001 
-2.048398e-001 
-2.057514e-001 
-2.062799e-001 
-2.062809e-001 
-2.055610e-001 
-2.054108e-001 
-2.068398e-001 
-2.092961e-001 
-2.113943e-001 
-2.128967e-001 
-2.140670e-001 
-2.156477e-001 
-2.175782e-001 
-2.197605e-001 
-2.211118e-001 
-2.215610e-001 
-2.218416e-001 
-2.233095e-001 
-2.254840e-001 
-2.268559e-001 
-2.269649e-001 
-2.256740e-001 
-2.244139e-001 
-2.252088e-001 
-2.280815e-001 
-2.300157e-001 
-2.295640e-001 
-2.279181e-001 
-2.262598e-001 
-2.263840e-001 
-2.292365e-001 
-2.325291e-001 
-2.357558e-001 
-2.358911e-001 
-2.338097e-001 
-2.339118e-001 
-2.370703e-001 
-2.411246e-001 
-2.444824e-001 
-2.454604e-001 
-2.446882e-001 
-2.454833e-001 
-2.460420e-001 
-2.481644e-001 
-2.511293e-001 
-2.526594e-001 
-2.519252e-001 
-2.509798e-001 
-2.517518e-001 
-2.543386e-001 
-2.565834e-001 
-2.554016e-001 
-2.548549e-001 
-2.561592e-001 
-2.572686e-001 
-2.581087e-001 
-2.589698e-001 
-2.582391e-001 
-2.570931e-001 
-2.572580e-001 
-2.579798e-001 
-2.612296e-001 
-2.638479e-001 
-2.626565e-001 
-2.606951e-001 
-2.599982e-001 
-2.611465e-001 
-2.650777e-001 
-2.679280e-001 
-2.680115e-001 
-2.681522e-001 
-2.681539e-001 
-2.671194e-001 
-2.683249e-001 
-2.705453e-001 
-2.721030e-001 
-2.726972e-001 
-2.723908e-001 
-2.734914e-001 
-2.749791e-001 
-2.747864e-001 
-2.728088e-001 
-2.729181e-001 
-2.737767e-001 
-2.760839e-001 
-2.779261e-001 
-2.790274e-001 
-2.779214e-001 
-2.756058e-001 
-2.742282e-001 
-2.753635e-001 
-2.784916e-001 
-2.807521e-001 
-2.809024e-001 
-2.786272e-001 
-2.778509e-001 
-2.783400e-001 
-2.798958e-001 
-2.808422e-001 
-2.810829e-001 
-2.800920e-001 
-2.791960e-001 
-2.784873e-001 
-2.792017e-001 
-2.803520e-001 
-2.793150e-001 
-2.768707e-001 
-2.761578e-001 
-2.768392e-001 
-2.773492e-001 
-2.778136e-001 
-2.767558e-001 
-2.754387e-001 
-2.742249e-001 
-2.738976e-001 
-2.751166e-001 
-2.760511e-001 
-2.741669e-001 
-2.718200e-001 
-2.705928e-001 
-2.692174e-001 
-2.684274e-001 
-2.665234e-001 
-2.628212e-001 
-2.574427e-001 
-2.525390e-001 
-2.498987e-001 
-2.499764e-001 
-2.495065e-001 
-2.472021e-001 
-2.455170e-001 
-2.449208e-001 
-2.463548e-001 
-2.501163e-001 
-2.554151e-001 
-2.593252e-001 
-2.628932e-001 
-2.666343e-001 
-2.712142e-001 
-2.772051e-001 
-2.833493e-001 
-2.889323e-001 
-2.939307e-001 
-2.975357e-001 
-3.011598e-001 
-3.050208e-001 
-3.075706e-001 
-3.075863e-001 
-3.068631e-001 
-3.063533e-001 
-3.072772e-001 
-3.077408e-001 
-3.059127e-001 
-3.035345e-001 
-3.000002e-001 
-2.979693e-001 
-2.975074e-001 
-2.978246e-001 
-2.985856e-001 
-2.985375e-001 
-2.950563e-001 
-2.930464e-001 
-2.936881e-001 
-2.943365e-001 
-2.950816e-001 
-2.928869e-001 
-2.893555e-001 
-2.844676e-001 
-2.760846e-001 
-2.635728e-001 
-2.480461e-001 
-2.272485e-001 
-2.043526e-001 
-1.849921e-001 
-1.736034e-001 
-1.713731e-001 
-1.779172e-001 
-1.962932e-001 
-2.261711e-001 
-2.650029e-001 
-3.056198e-001 
-3.442138e-001 
-3.779365e-001 
-4.044253e-001 
-4.274802e-001 
-4.578156e-001 
-4.958726e-001 
-5.317645e-001 
-5.571053e-001 
-5.680254e-001 
-5.700486e-001 
-5.667833e-001 
-5.619804e-001 
-5.593285e-001 
-5.530884e-001 
-5.303054e-001 
-4.863417e-001 
-4.318853e-001 
-3.788396e-001 
-3.361893e-001 
-3.039443e-001 
-2.827686e-001 
-2.702022e-001 
-2.606201e-001 
-2.505290e-001 
-2.410841e-001 
-2.357029e-001 
-2.328710e-001 
-2.310608e-001 
-2.284966e-001 
-2.285798e-001 
-2.291618e-001 
-2.293316e-001 
-2.283142e-001 
-2.261364e-001 
-2.259679e-001 
-2.282163e-001 
-2.303712e-001 
-2.317062e-001 
-2.328873e-001 
-2.327177e-001 
-2.336223e-001 
-2.343553e-001 
-2.353502e-001 
-2.371623e-001 
-2.364444e-001 
-2.343318e-001 
-2.342454e-001 
-2.360220e-001 
-2.383968e-001 
-2.398263e-001 
-2.384413e-001 
-2.369805e-001 
-2.360489e-001 
-2.368528e-001 
-2.395301e-001 
-2.415223e-001 
-2.415888e-001 
-2.401684e-001 
-2.388099e-001 
-2.387313e-001 
-2.405126e-001 
-2.417012e-001 
-2.424399e-001 
-2.419616e-001 
-2.418972e-001 
-2.429734e-001 
-2.441626e-001 
-2.439581e-001 
-2.430745e-001 
-2.424630e-001 
-2.423834e-001 
-2.440535e-001 
-2.461948e-001 
-2.473253e-001 
-2.463839e-001 
-2.440245e-001 
-2.424996e-001 
-2.445825e-001 
-2.468479e-001 
-2.480184e-001 
-2.480629e-001 
-2.473744e-001 
-2.456556e-001 
-2.456585e-001 
-2.478381e-001 
-2.505395e-001 
-2.517941e-001 
-2.512340e-001 
-2.521734e-001 
-2.544966e-001 
-2.572437e-001 
-2.581256e-001 
-2.594082e-001 
-2.603193e-001 
-2.623955e-001 
-2.654411e-001 
-2.688107e-001 
-2.718199e-001 
-2.734396e-001 
-2.746041e-001 
-2.752113e-001 
-2.782936e-001 
-2.828473e-001 
-2.858125e-001 
-2.862067e-001 
-2.864021e-001 
-2.873766e-001 
-2.905346e-001 
-2.937917e-001 
-2.950444e-001 
-2.971556e-001 
-2.981366e-001 
-2.984838e-001 
-3.015860e-001 
-3.054810e-001 
-3.094499e-001 
-3.126593e-001 
-3.126792e-001 
-3.131180e-001 
-3.168735e-001 
-3.205748e-001 
-3.232099e-001 
-3.246154e-001 
-3.249756e-001 
-3.261372e-001 
-3.257965e-001 
-3.248223e-001 
-3.243062e-001 
-3.225623e-001 
-3.183951e-001 
-3.134475e-001 
-3.094937e-001 
-3.062173e-001 
-3.007382e-001 
-2.919874e-001 
-2.841262e-001 
-2.770359e-001 
-2.712403e-001 
-2.661753e-001 
-2.608876e-001 
-2.550747e-001 
-2.486397e-001 
-2.428166e-001 
-2.388708e-001 
-2.377159e-001 
-2.362690e-001 
-2.341064e-001 
-2.320744e-001 
-2.305798e-001 
-2.295337e-001 
-2.295617e-001 
-2.299645e-001 
-2.294731e-001 
-2.289580e-001 
-2.286266e-001 
-2.304847e-001 
-2.326699e-001 
-2.333004e-001 
-2.322625e-001 
-2.310482e-001 
-2.311211e-001 
-2.319099e-001 
-2.327494e-001 
-2.340029e-001 
-2.340018e-001 
-2.325129e-001 
-2.316739e-001 
-2.326120e-001 
-2.348315e-001 
-2.349222e-001 
-2.322009e-001 
-2.290834e-001 
-2.275859e-001 
-2.279146e-001 
-2.286600e-001 
-2.277998e-001 
-2.270584e-001 
-2.234715e-001 
-2.195570e-001 
-2.198784e-001 
-2.213258e-001 
-2.223739e-001 
-2.212362e-001 
-2.170805e-001 
-2.146397e-001 
-2.144887e-001 
-2.138123e-001 
-2.155582e-001 
-2.159961e-001 
-2.143933e-001 
-2.126839e-001 
-2.108589e-001 
-2.112351e-001 
-2.123709e-001 
-2.108307e-001 
-2.082755e-001 
-2.062449e-001 
-2.051291e-001 
-2.060068e-001 
-2.053996e-001 
-2.048844e-001 
-2.038597e-001 
-2.023548e-001 
-2.018693e-001 
-2.026744e-001 
-2.038764e-001 
-2.043041e-001 
-2.029971e-001 
-2.021120e-001 
-2.031314e-001 
-2.041603e-001 
-2.069871e-001 
-2.089525e-001 
-2.105377e-001 
-2.122161e-001 
-2.132941e-001 
-2.150360e-001 
-2.166756e-001 
-2.172805e-001 
-2.183738e-001 
-2.206015e-001 
-2.223054e-001 
-2.235743e-001 
-2.236842e-001 
-2.230086e-001 
-2.231329e-001 
-2.225868e-001 
-2.240175e-001 
-2.256478e-001 
-2.251723e-001 
-2.231653e-001 
-2.218411e-001 
-2.214647e-001 
-2.221343e-001 
-2.227801e-001 
-2.211834e-001 
-2.203846e-001 
-2.184441e-001 
-2.183836e-001 
-2.206110e-001 
-2.225170e-001 
-2.218823e-001 
-2.199780e-001 
-2.172686e-001 
-2.166106e-001 
-2.197718e-001 
-2.229752e-001 
-2.251307e-001 
-2.230749e-001 
-2.202474e-001 
-2.191567e-001 
-2.196483e-001 
-2.208547e-001 
-2.229863e-001 
-2.228672e-001 
-2.201835e-001 
-2.174910e-001 
-2.157940e-001 
-2.168434e-001 
-2.160589e-001 
-2.124891e-001 
-2.097903e-001 
-2.086930e-001 
-2.068517e-001 
-2.065617e-001 
-2.062278e-001 
-2.039621e-001 
-2.011977e-001 
-1.978331e-001 
-1.976398e-001 
-2.007586e-001 
-2.022038e-001 
-2.014828e-001 
-2.009414e-001 
-1.996495e-001 
-1.992333e-001 
-2.005712e-001 
-2.018338e-001 
-2.025026e-001 
-2.015440e-001 
-2.005790e-001 
-2.013666e-001 
-2.030511e-001 
-2.037543e-001 
-2.024229e-001 
-2.010479e-001 
-2.007664e-001 
-2.010521e-001 
-2.026276e-001 
-2.046716e-001 
-2.051332e-001 
-2.042669e-001 
-2.019328e-001 
-2.005794e-001 
-2.010908e-001 
-2.007185e-001 
-1.995267e-001 
-1.984956e-001 
-1.973033e-001 
-1.966592e-001 
-1.965148e-001 
-1.959813e-001 
-1.941638e-001 
-1.905862e-001 
-1.886544e-001 
-1.879561e-001 
-1.861329e-001 
-1.816763e-001 
-1.769080e-001 
-1.721497e-001 
-1.665397e-001 
-1.609468e-001 
-1.586099e-001 
-1.579298e-001 
-1.545520e-001 
-1.494579e-001 
-1.456392e-001 
-1.455446e-001 
-1.458494e-001 
-1.465642e-001 
-1.478795e-001 
-1.509482e-001 
-1.531183e-001 
-1.555237e-001 
-1.601767e-001 
-1.656836e-001 
-1.704901e-001 
-1.761528e-001 
-1.822024e-001 
-1.868016e-001 
-1.916701e-001 
-1.934586e-001 
-1.943928e-001 
-1.961391e-001 
-1.973802e-001 
-1.996391e-001 
-2.024832e-001 
-2.006912e-001 
-1.972070e-001 
-1.934517e-001 
-1.890511e-001 
-1.886913e-001 
-1.898742e-001 
-1.887952e-001 
-1.866771e-001 
-1.830960e-001 
-1.788601e-001 
-1.772830e-001 
-1.764813e-001 
-1.753357e-001 
-1.735152e-001 
-1.688537e-001 
-1.631100e-001 
-1.568392e-001 
-1.470431e-001 
-1.339180e-001 
-1.168373e-001 
-9.547100e-002 
-7.364896e-002 
-5.548879e-002 
-4.166396e-002 
-3.177265e-002 
-2.678671e-002 
-3.181716e-002 
-4.815862e-002 
-7.540940e-002 
-1.112754e-001 
-1.507272e-001 
-1.876512e-001 
-2.170673e-001 
-2.414556e-001 
-2.672627e-001 
-2.966616e-001 
-3.273351e-001 
-3.576986e-001 
-3.812264e-001 
-3.954175e-001 
-4.002524e-001 
-3.977362e-001 
-3.903322e-001 
-3.793776e-001 
-3.636337e-001 
-3.407264e-001 
-3.079821e-001 
-2.671304e-001 
-2.231463e-001 
-1.819683e-001 
-1.506508e-001 
-1.300817e-001 
-1.204999e-001 
-1.169421e-001 
-1.127710e-001 
-1.056680e-001 
-9.881198e-002 
-9.368426e-002 
-9.152691e-002 
-9.233855e-002 
-9.235940e-002 
-9.177292e-002 
-9.000872e-002 
-8.688501e-002 
-8.542460e-002 
-8.682037e-002 
-8.699629e-002 
-8.602216e-002 
-8.635823e-002 
-8.641407e-002 
-8.791686e-002 
-8.876645e-002 
-8.900272e-002 
-8.850908e-002 
-8.725382e-002 
-8.674942e-002 
-8.822066e-002 
-9.120075e-002 
-9.195787e-002 
-9.096212e-002 
-9.021234e-002 
-9.121046e-002 
-9.212463e-002 
-9.509697e-002 
-9.731112e-002 
-9.669743e-002 
-9.596307e-002 
-9.564864e-002 
-9.818381e-002 
-1.018087e-001 
-1.020200e-001 
-1.006031e-001 
-1.001003e-001 
-9.959552e-002 
-1.015158e-001 
-1.054417e-001 
-1.078771e-001 
-1.084260e-001 
-1.067158e-001 
-1.048142e-001 
-1.059688e-001 
-1.074538e-001 
-1.091357e-001 
-1.104441e-001 
-1.094769e-001 
-1.083939e-001 
-1.094160e-001 
-1.105802e-001 
-1.116631e-001 
-1.127116e-001 
-1.129140e-001 
-1.145247e-001 
-1.170397e-001 
-1.191928e-001 
-1.198657e-001 
-1.192872e-001 
-1.188542e-001 
-1.203787e-001 
-1.229256e-001 
-1.247514e-001 
-1.261457e-001 
-1.272749e-001 
-1.267644e-001 
-1.267614e-001 
-1.309208e-001 
-1.358151e-001 
-1.384054e-001 
-1.393109e-001 
-1.395951e-001 
-1.426003e-001 
-1.473084e-001 
-1.507285e-001 
-1.545962e-001 
-1.577253e-001 
-1.586429e-001 
-1.610963e-001 
-1.668013e-001 
-1.727452e-001 
-1.772934e-001 
-1.788721e-001 
-1.798996e-001 
-1.830958e-001 
-1.873316e-001 
-1.917648e-001 
-1.958608e-001 
-1.976482e-001 
-1.955889e-001 
-1.932885e-001 
-1.923974e-001 
-1.927902e-001 
-1.911335e-001 
-1.867476e-001 
-1.810047e-001 
-1.749131e-001 
-1.685691e-001 
-1.617770e-001 
-1.541362e-001 
-1.452046e-001 
-1.360417e-001 
-1.260458e-001 
-1.180899e-001 
-1.108697e-001 
-1.019688e-001 
-9.261777e-002 
-8.387030e-002 
-7.644920e-002 
-7.296506e-002 
-7.088487e-002 
-6.713743e-002 
-6.271032e-002 
-5.717029e-002 
-5.307216e-002 
-5.232775e-002 
-5.303649e-002 
-5.343470e-002 
-5.329535e-002 
-5.075845e-002 
-4.794182e-002 
-4.703453e-002 
-4.710379e-002 
-4.785830e-002 
-4.785327e-002 
-4.693261e-002 
-4.624872e-002 
-4.584775e-002 
-4.532400e-002 
-4.517813e-002 
-4.358829e-002 
-4.190611e-002 
-4.248865e-002 
-4.420993e-002 
-4.559506e-002 
-4.536544e-002 
-4.292425e-002 
-4.078469e-002 
-4.066136e-002 
-4.075641e-002 
-4.301373e-002 
-4.569482e-002 
-4.515906e-002 
-4.240529e-002 
-3.987625e-002 
-3.902201e-002 
-4.058076e-002 
-4.127666e-002 
-3.947237e-002 
-3.921801e-002 
-3.854660e-002 
-3.670729e-002 
-3.516315e-002 
-3.525706e-002 
-3.533928e-002 
-3.413066e-002 
-3.364445e-002 
-3.548899e-002 
-3.763739e-002 
-3.669040e-002 
-3.458714e-002 
-3.334503e-002 
-3.429726e-002 
-3.528388e-002 
-3.686576e-002 
-3.846378e-002 
-3.707086e-002 
-3.366022e-002 
-3.232104e-002 
-3.341879e-002 
-3.500726e-002 
-3.537875e-002 
-3.396061e-002 
-3.130532e-002 
-2.864615e-002 
-2.847519e-002 
-3.041890e-002 
-3.254741e-002 
-3.279644e-002 
-3.159111e-002 
-3.097251e-002 
-3.209650e-002 
-3.305143e-002 
-3.428762e-002 
-3.538087e-002 
-3.567020e-002 
-3.576776e-002 
-3.641814e-002 
-3.826922e-002 
-3.992371e-002 
-3.978838e-002 
-3.846226e-002 
-3.871583e-002 
-4.157896e-002 
-4.466538e-002 
-4.498519e-002 
-4.416411e-002 
-4.309027e-002 
-4.128584e-002 
-4.137088e-002 
-4.284867e-002 
-4.462495e-002 
-4.646521e-002 
-4.591423e-002 
-4.460062e-002 
-4.595014e-002 
-4.806957e-002 
-4.901690e-002 
-4.831560e-002 
-4.596994e-002 
-4.567086e-002 
-4.675368e-002 
-4.763502e-002 
-4.836119e-002 
-4.796018e-002 
-4.670576e-002 
-4.534939e-002 
-4.484339e-002 
-4.632676e-002 
-4.826350e-002 
-4.850283e-002 
-4.914236e-002 
-4.877226e-002 
-4.862810e-002 
-5.032391e-002 
-5.019594e-002 
-4.845977e-002 
-4.704914e-002 
-4.678522e-002 
-4.895927e-002 
-5.077098e-002 
-4.882860e-002 
-4.579204e-002 
-4.033994e-002 
-3.300587e-002 
-2.707670e-002 
-2.268087e-002 
-1.901684e-002 
-1.472734e-002 
-9.650062e-003 
-5.060465e-003 
-2.103243e-003 
-8.539733e-004 
-8.985314e-004 
-8.872557e-004 
-1.593543e-003 
-4.358243e-003 
-9.155804e-003 
-1.395790e-002 
-1.628333e-002 
-1.931253e-002 
-2.383916e-002 
-2.825992e-002 
-3.425029e-002 
-4.128677e-002 
-4.732702e-002 
-5.136111e-002 
-5.278714e-002 
-5.393608e-002 
-5.736774e-002 
-5.915322e-002 
-5.904738e-002 
-5.785683e-002 
-5.597658e-002 
-5.500786e-002 
-5.623642e-002 
-5.793429e-002 
-5.868975e-002 
-5.800264e-002 
-5.594080e-002 
-5.524639e-002 
-5.690666e-002 
-5.883335e-002 
-5.965929e-002 
-5.972682e-002 
-5.793178e-002 
-5.618292e-002 
-5.532330e-002 
-5.413591e-002 
-5.178055e-002 
-4.529351e-002 
-3.337069e-002 
-1.911381e-002 
-2.760234e-003 
1.618015e-002 
3.647805e-002 
5.710758e-002 
7.511855e-002 
8.705947e-002 
9.176387e-002 
8.616934e-002 
7.084573e-002 
4.575419e-002 
1.232821e-002 
-2.473427e-002 
-6.080691e-002 
-9.290682e-002 
-1.204135e-001 
-1.447903e-001 
-1.720410e-001 
-2.052039e-001 
-2.410211e-001 
-2.683502e-001 
-2.821190e-001 
-2.838540e-001 
-2.782462e-001 
-2.689399e-001 
-2.589210e-001 
-2.485138e-001 
-2.285107e-001 
-1.915895e-001 
-1.425364e-001 
-9.476778e-002 
-5.567065e-002 
-2.741968e-002 
-9.700683e-003 
8.044788e-004 
8.766491e-003 
1.825019e-002 
2.668497e-002 
3.044681e-002 
3.054410e-002 
3.031088e-002 
3.041449e-002 
2.949733e-002 
2.875598e-002 
2.778841e-002 
2.647246e-002 
2.540304e-002 
2.581647e-002 
2.558146e-002 
2.369614e-002 
2.208210e-002 
2.245369e-002 
2.468790e-002 
2.600780e-002 
2.598529e-002 
2.538046e-002 
2.520064e-002 
2.461438e-002 
2.520722e-002 
2.834577e-002 
3.161098e-002 
3.179537e-002 
2.979769e-002 
2.843867e-002 
2.947074e-002 
3.196294e-002 
3.348782e-002 
3.265918e-002 
3.218840e-002 
3.205963e-002 
3.074153e-002 
2.912582e-002 
2.848937e-002 
2.931331e-002 
2.881617e-002 
2.700979e-002 
2.623105e-002 
2.699042e-002 
2.564694e-002 
2.214704e-002 
1.848872e-002 
1.856660e-002 
2.086828e-002 
2.091416e-002 
2.003144e-002 
1.886385e-002 
1.595482e-002 
1.364721e-002 
1.391873e-002 
1.516145e-002 
1.750959e-002 
1.704997e-002 
1.300307e-002 
1.056319e-002 
9.396563e-003 
9.010378e-003 
1.012942e-002 
9.193083e-003 
6.412105e-003 
5.157152e-003 
3.183186e-003 
4.185920e-004 
-1.610284e-003 
-5.206721e-003 
-7.527271e-003 
-9.622602e-003 
-1.265773e-002 
-1.383350e-002 
-1.598328e-002 
-2.192705e-002 
-2.713483e-002 
-3.081925e-002 
-3.311343e-002 
-3.442044e-002 
-3.884639e-002 
-4.388019e-002 
-4.961919e-002 
-5.658092e-002 
-6.104510e-002 
-6.290960e-002 
-6.603071e-002 
-7.117093e-002 
-7.753637e-002 
-8.341552e-002 
-8.699745e-002 
-9.043917e-002 
-9.302263e-002 
-9.430894e-002 
-9.640543e-002 
-9.950380e-002 
-1.003523e-001 
-9.874771e-002 
-9.679751e-002 
-9.514310e-002 
-9.305721e-002 
-8.781686e-002 
-8.087509e-002 
-7.424916e-002 
-6.888311e-002 
-6.336622e-002 
-5.728600e-002 
-5.052406e-002 
-4.231578e-002 
-3.276978e-002 
-2.414903e-002 
-1.846280e-002 
-1.352918e-002 
-9.320242e-003 
-3.868853e-003 
2.299269e-003 
5.841439e-003 
7.328391e-003 
8.643719e-003 
9.718406e-003 
1.174044e-002 
1.446672e-002 
1.466840e-002 
1.339880e-002 
1.179904e-002 
1.043965e-002 
1.041403e-002 
1.132525e-002 
1.158125e-002 
1.023745e-002 
7.885120e-003 
6.199260e-003 
6.681581e-003 
9.318148e-003 
1.076557e-002 
1.020476e-002 
9.787104e-003 
1.067832e-002 
1.247525e-002 
1.523367e-002 
1.791890e-002 
1.878901e-002 
1.847895e-002 
1.865987e-002 
2.063765e-002 
2.425980e-002 
2.742244e-002 
2.847660e-002 
2.852663e-002 
2.859742e-002 
2.896415e-002 
3.060133e-002 
3.228343e-002 
3.217947e-002 
3.165060e-002 
3.186456e-002 
3.365901e-002 
3.535246e-002 
3.516487e-002 
3.483538e-002 
3.462509e-002 
3.454164e-002 
3.490505e-002 
3.583142e-002 
3.774932e-002 
3.816905e-002 
3.596574e-002 
3.493075e-002 
3.648607e-002 
3.727491e-002 
3.678335e-002 
3.424816e-002 
3.266535e-002 
3.249529e-002 
3.221206e-002 
3.270666e-002 
3.295540e-002 
3.124050e-002 
2.808948e-002 
2.691781e-002 
2.750407e-002 
2.907483e-002 
2.945439e-002 
2.829475e-002 
2.652984e-002 
2.489913e-002 
2.438182e-002 
2.467078e-002 
2.560479e-002 
2.474155e-002 
2.292069e-002 
2.244952e-002 
2.359024e-002 
2.518391e-002 
2.554742e-002 
2.401529e-002 
2.291671e-002 
2.373415e-002 
2.453079e-002 
2.596066e-002 
2.737260e-002 
2.692850e-002 
2.511675e-002 
2.425710e-002 
2.602530e-002 
2.877397e-002 
3.038212e-002 
2.972557e-002 
2.927281e-002 
2.949866e-002 
2.998224e-002 
3.205547e-002 
3.313903e-002 
3.234441e-002 
3.126005e-002 
3.108624e-002 
3.179944e-002 
3.410333e-002 
3.471052e-002 
3.369732e-002 
3.216240e-002 
3.068059e-002 
3.245960e-002 
3.529476e-002 
3.515978e-002 
3.379556e-002 
3.210962e-002 
3.025087e-002 
3.061138e-002 
3.207943e-002 
3.359718e-002 
3.409553e-002 
3.170640e-002 
2.941126e-002 
3.002006e-002 
3.111475e-002 
3.220342e-002 
3.134370e-002 
2.990867e-002 
2.982103e-002 
3.085022e-002 
3.111363e-002 
3.104355e-002 
2.995137e-002 
2.781678e-002 
2.617226e-002 
2.530444e-002 
2.687198e-002 
2.813388e-002 
2.618548e-002 
2.291949e-002 
2.160360e-002 
2.109857e-002 
2.152201e-002 
2.164622e-002 
2.131584e-002 
2.041190e-002 
1.845588e-002 
1.803432e-002 
1.921767e-002 
1.903739e-002 
1.774944e-002 
1.702937e-002 
1.763953e-002 
1.959877e-002 
2.040456e-002 
2.067331e-002 
1.975269e-002 
1.696235e-002 
1.691315e-002 
1.910166e-002 
2.128665e-002 
2.284161e-002 
2.065633e-002 
1.654043e-002 
1.431074e-002 
1.394064e-002 
1.634944e-002 
1.769103e-002 
1.492103e-002 
1.185296e-002 
9.164916e-003 
7.634403e-003 
8.546306e-003 
1.005799e-002 
1.075433e-002 
9.542954e-003 
7.377932e-003 
7.074310e-003 
7.506669e-003 
8.717165e-003 
9.485200e-003 
8.776677e-003 
8.979726e-003 
1.050834e-002 
1.249431e-002 
1.410844e-002 
1.444503e-002 
1.383500e-002 
1.459750e-002 
1.621434e-002 
1.874608e-002 
2.199879e-002 
2.457114e-002 
2.657157e-002 
3.000196e-002 
3.434846e-002 
3.682040e-002 
3.905271e-002 
4.054408e-002 
3.886565e-002 
3.630539e-002 
3.521059e-002 
3.417469e-002 
3.192686e-002 
2.695037e-002 
2.118354e-002 
1.870810e-002 
1.630044e-002 
1.190363e-002 
8.722517e-003 
4.883343e-003 
-5.989290e-004 
-4.826608e-003 
-6.915891e-003 
-7.061262e-003 
-8.074085e-003 
-1.143571e-002 
-1.227813e-002 
-9.470856e-003 
-5.935422e-003 
-1.168289e-003 
2.153513e-003 
3.640950e-003 
3.803792e-003 
2.728863e-003 
5.259508e-003 
1.097416e-002 
1.389076e-002 
1.387617e-002 
1.317666e-002 
1.363646e-002 
1.759930e-002 
2.333894e-002 
3.236319e-002 
4.527230e-002 
6.049915e-002 
7.839372e-002 
1.001905e-001 
1.234942e-001 
1.436339e-001 
1.558803e-001 
1.601467e-001 
1.558064e-001 
1.398019e-001 
1.133288e-001 
7.794896e-002 
3.706735e-002 
-2.828214e-003 
-3.742998e-002 
-6.675844e-002 
-9.269942e-002 
-1.233298e-001 
-1.608125e-001 
-1.984521e-001 
-2.288129e-001 
-2.457975e-001 
-2.496401e-001 
-2.486679e-001 
-2.456186e-001 
-2.397957e-001 
-2.301291e-001 
-2.083285e-001 
-1.695478e-001 
-1.194159e-001 
-6.793497e-002 
-2.472857e-002 
5.963457e-003 
2.879703e-002 
4.487639e-002 
5.662617e-002 
6.766439e-002 
7.820028e-002 
8.480923e-002 
8.896458e-002 
9.227432e-002 
9.388457e-002 
9.615734e-002 
9.736913e-002 
9.823206e-002 
9.954793e-002 
1.010267e-001 
1.006749e-001 
1.006435e-001 
9.983657e-002 
9.937325e-002 
1.005141e-001 
1.011804e-001 
1.009131e-001 
9.950135e-002 
9.844588e-002 
9.694358e-002 
9.664240e-002 
9.575475e-002 
9.478850e-002 
9.293166e-002 
9.061568e-002 
8.819692e-002 
8.855498e-002 
8.913760e-002 
8.787041e-002 
8.531650e-002 
8.094178e-002 
8.050511e-002 
8.228712e-002 
8.321858e-002 
8.316513e-002 
8.344885e-002 
8.147834e-002 
8.029399e-002 
7.899038e-002 
7.913303e-002 
8.201961e-002 
8.179405e-002 
7.900987e-002 
7.730400e-002 
7.775947e-002 
7.766150e-002 
7.700282e-002 
7.472015e-002 
7.416131e-002 
7.542591e-002 
7.563113e-002 
7.555477e-002 
7.535071e-002 
7.414014e-002 
7.225622e-002 
7.129369e-002 
7.184441e-002 
7.396823e-002 
7.476118e-002 
7.254922e-002 
6.950707e-002 
6.703639e-002 
6.713348e-002 
6.805103e-002 
6.716509e-002 
6.431266e-002 
6.059803e-002 
5.780312e-002 
5.623420e-002 
5.518525e-002 
5.426997e-002 
5.323468e-002 
5.044616e-002 
4.713653e-002 
4.579685e-002 
4.650233e-002 
4.705870e-002 
4.505961e-002 
4.132604e-002 
3.954494e-002 
3.890532e-002 
3.708142e-002 
3.491038e-002 
3.340974e-002 
3.024798e-002 
2.701165e-002 
2.363649e-002 
2.081008e-002 
1.854728e-002 
1.338068e-002 
6.999060e-003 
3.483665e-003 
1.231035e-003 
-1.774721e-003 
-4.574925e-003 
-9.441028e-003 
-1.346300e-002 
-1.512835e-002 
-1.599969e-002 
-1.513700e-002 
-1.366461e-002 
-1.321190e-002 
-1.344489e-002 
-1.306884e-002 
-1.046080e-002 
-5.081912e-003 
1.430982e-004 
3.255151e-003 
5.902117e-003 
9.755349e-003 
1.593894e-002 
2.208064e-002 
2.722969e-002 
3.128257e-002 
3.480651e-002 
3.873392e-002 
4.284474e-002 
4.670548e-002 
5.095963e-002 
5.413626e-002 
5.415979e-002 
5.452166e-002 
5.701104e-002 
6.008005e-002 
6.140898e-002 
5.973336e-002 
5.856536e-002 
5.990117e-002 
6.089827e-002 
6.194106e-002 
6.333290e-002 
6.159718e-002 
5.754605e-002 
5.486665e-002 
5.364768e-002 
5.490079e-002 
5.603516e-002 
5.473878e-002 
5.257217e-002 
5.023394e-002 
4.917754e-002 
4.964971e-002 
5.068225e-002 
4.961483e-002 
4.846870e-002 
4.825214e-002 
4.789931e-002 
4.761413e-002 
4.825257e-002 
4.862322e-002 
4.817936e-002 
4.901796e-002 
4.964454e-002 
5.169822e-002 
5.308287e-002 
5.203262e-002 
5.049719e-002 
5.028465e-002 
5.254779e-002 
5.440595e-002 
5.448958e-002 
5.350297e-002 
5.355162e-002 
5.430506e-002 
5.625034e-002 
5.750430e-002 
5.917054e-002 
5.915878e-002 
5.588613e-002 
5.495313e-002 
5.673348e-002 
5.896861e-002 
6.030035e-002 
5.917516e-002 
5.652053e-002 
5.629214e-002 
5.580031e-002 
5.664510e-002 
5.795728e-002 
5.646077e-002 
5.397462e-002 
5.266036e-002 
5.186863e-002 
5.235722e-002 
5.279688e-002 
5.067673e-002 
4.867387e-002 
4.793504e-002 
4.794704e-002 
4.797284e-002 
4.742200e-002 
4.525711e-002 
4.319536e-002 
4.139445e-002 
4.049341e-002 
4.168511e-002 
4.215638e-002 
3.846022e-002 
3.479016e-002 
3.310454e-002 
3.307612e-002 
3.387708e-002 
3.390166e-002 
3.330756e-002 
3.208002e-002 
3.040980e-002 
3.048987e-002 
3.287353e-002 
3.350108e-002 
3.300719e-002 
3.117881e-002 
2.929903e-002 
2.928376e-002 
3.028991e-002 
3.099287e-002 
3.070005e-002 
2.886665e-002 
2.771733e-002 
2.739206e-002 
2.663949e-002 
2.632265e-002 
2.580735e-002 
2.412240e-002 
2.246483e-002 
2.182512e-002 
2.192577e-002 
2.029230e-002 
1.708616e-002 
1.528227e-002 
1.521359e-002 
1.493019e-002 
1.507354e-002 
1.472187e-002 
1.302402e-002 
1.007226e-002 
8.047540e-003 
8.943811e-003 
1.127730e-002 
1.127667e-002 
8.631010e-003 
7.472892e-003 
6.496126e-003 
6.108384e-003 
6.623029e-003 
7.570812e-003 
7.550863e-003 
7.087024e-003 
6.235978e-003 
7.849187e-003 
1.073852e-002 
1.136523e-002 
1.058072e-002 
8.659985e-003 
8.261872e-003 
1.024700e-002 
1.190808e-002 
1.270949e-002 
1.311287e-002 
1.165095e-002 
1.068925e-002 
1.065780e-002 
1.165189e-002 
1.406994e-002 
1.380458e-002 
1.104494e-002 
9.550110e-003 
1.007258e-002 
1.029549e-002 
9.791741e-003 
8.725027e-003 
8.807836e-003 
9.105542e-003 
9.356823e-003 
9.879864e-003 
1.108752e-002 
1.148176e-002 
9.053528e-003 
7.957139e-003 
1.091665e-002 
1.462686e-002 
1.579796e-002 
1.586217e-002 
1.562909e-002 
1.669892e-002 
1.715229e-002 
1.763575e-002 
1.993191e-002 
2.179759e-002 
2.057155e-002 
1.938001e-002 
2.033568e-002 
2.205111e-002 
2.162275e-002 
1.908226e-002 
1.820137e-002 
1.904732e-002 
2.037951e-002 
2.079028e-002 
2.093541e-002 
1.980345e-002 
1.746957e-002 
1.533015e-002 
1.677390e-002 
2.037402e-002 
2.205110e-002 
2.155396e-002 
1.953981e-002 
1.805124e-002 
1.826422e-002 
2.014557e-002 
2.221652e-002 
2.312124e-002 
2.193661e-002 
2.057151e-002 
2.134113e-002 
2.200295e-002 
2.321259e-002 
2.427622e-002 
2.448821e-002 
2.353090e-002 
2.291200e-002 
2.328348e-002 
2.374162e-002 
2.384312e-002 
2.256245e-002 
2.190276e-002 
2.243918e-002 
2.334065e-002 
2.323941e-002 
2.329194e-002 
2.256875e-002 
2.231830e-002 
2.384042e-002 
2.405134e-002 
2.336151e-002 
2.258231e-002 
2.215783e-002 
2.311926e-002 
2.534216e-002 
2.803017e-002 
3.059416e-002 
3.255301e-002 
3.294406e-002 
3.662492e-002 
4.377187e-002 
5.133067e-002 
5.588389e-002 
5.844387e-002 
6.022033e-002 
6.247429e-002 
6.643249e-002 
7.049260e-002 
7.463934e-002 
7.488649e-002 
7.110767e-002 
6.567702e-002 
6.164579e-002 
5.790898e-002 
5.461236e-002 
5.006129e-002 
4.339188e-002 
3.647402e-002 
3.005475e-002 
2.400856e-002 
1.854174e-002 
1.318314e-002 
7.968699e-003 
5.593144e-003 
4.336750e-003 
2.980802e-003 
3.078566e-003 
2.640779e-003 
1.443236e-003 
3.268389e-003 
6.867209e-003 
1.160903e-002 
1.547857e-002 
1.622846e-002 
1.610886e-002 
1.796368e-002 
1.942369e-002 
2.058697e-002 
2.328129e-002 
2.411271e-002 
2.263000e-002 
2.290244e-002 
2.520778e-002 
2.856353e-002 
3.148062e-002 
3.004656e-002 
3.048296e-002 
3.595952e-002 
4.264636e-002 
5.428574e-002 
7.161012e-002 
9.075911e-002 
1.112226e-001 
1.321218e-001 
1.533000e-001 
1.761083e-001 
1.926807e-001 
1.994498e-001 
1.978134e-001 
1.867157e-001 
1.651662e-001 
1.321543e-001 
9.074786e-002 
4.648519e-002 
4.070169e-003 
-3.549143e-002 
-7.024559e-002 
-1.029316e-001 
-1.372139e-001 
-1.772179e-001 
-2.182991e-001 
-2.501460e-001 
-2.677577e-001 
-2.731806e-001 
-2.696724e-001 
-2.593173e-001 
-2.444739e-001 
-2.244282e-001 
-1.973465e-001 
-1.585177e-001 
-1.110083e-001 
-6.169302e-002 
-1.860765e-002 
1.573387e-002 
4.058657e-002 
5.684873e-002 
6.765326e-002 
7.643669e-002 
8.669565e-002 
9.756387e-002 
1.088304e-001 
1.161278e-001 
1.195028e-001 
1.202008e-001 
1.194049e-001 
1.197119e-001 
1.219594e-001 
1.243555e-001 
1.251966e-001 
1.241526e-001 
1.198599e-001 
1.174590e-001 
1.177556e-001 
1.185518e-001 
1.196918e-001 
1.191998e-001 
1.167207e-001 
1.158070e-001 
1.165764e-001 
1.175578e-001 
1.194569e-001 
1.187508e-001 
1.167071e-001 
1.172649e-001 
1.183737e-001 
1.197159e-001 
1.214937e-001 
1.213453e-001 
1.206501e-001 
1.193969e-001 
1.184795e-001 
1.191748e-001 
1.200165e-001 
1.185971e-001 
1.168627e-001 
1.151332e-001 
1.151930e-001 
1.162499e-001 
1.151027e-001 
1.131637e-001 
1.108581e-001 
1.097123e-001 
1.101236e-001 
1.103122e-001 
1.088942e-001 
1.079442e-001 
1.051752e-001 
1.025668e-001 
1.020915e-001 
1.023833e-001 
1.027268e-001 
1.010802e-001 
9.814786e-002 
9.661024e-002 
9.643980e-002 
9.542304e-002 
9.426817e-002 
9.242481e-002 
8.993590e-002 
8.867166e-002 
8.918381e-002 
9.096363e-002 
9.181285e-002 
9.020291e-002 
8.735065e-002 
8.684133e-002 
8.783356e-002 
8.818491e-002 
8.851272e-002 
8.781499e-002 
8.619392e-002 
8.448664e-002 
8.346994e-002 
8.420137e-002 
8.588585e-002 
8.421822e-002 
8.068870e-002 
7.840316e-002 
7.820676e-002 
7.738590e-002 
7.405947e-002 
7.108847e-002 
6.869263e-002 
6.586533e-002 
6.328034e-002 
6.130134e-002 
5.937005e-002 
5.661075e-002 
5.027463e-002 
4.697323e-002 
4.692341e-002 
4.497642e-002 
4.210271e-002 
3.827125e-002 
3.289381e-002 
2.948839e-002 
2.752065e-002 
2.599916e-002 
2.652726e-002 
2.296261e-002 
1.899134e-002 
1.700985e-002 
1.570141e-002 
1.694210e-002 
1.983330e-002 
1.963738e-002 
1.886871e-002 
1.950135e-002 
2.099851e-002 
2.546948e-002 
2.883300e-002 
3.120924e-002 
3.461115e-002 
3.794742e-002 
4.155414e-002 
4.785684e-002 
5.374574e-002 
5.785626e-002 
6.206035e-002 
6.573184e-002 
6.975670e-002 
7.570956e-002 
8.052682e-002 
8.331696e-002 
8.522965e-002 
8.725337e-002 
9.016284e-002 
9.390395e-002 
9.543657e-002 
9.597620e-002 
9.624654e-002 
9.536990e-002 
9.581958e-002 
9.725256e-002 
9.770524e-002 
9.612355e-002 
9.392014e-002 
9.104780e-002 
8.950917e-002 
8.852810e-002 
8.777300e-002 
8.605533e-002 
8.267617e-002 
7.868444e-002 
7.794483e-002 
7.874309e-002 
7.787226e-002 
7.623802e-002 
7.496720e-002 
7.440912e-002 
7.411348e-002 
7.397179e-002 
7.414977e-002 
7.611897e-002 
7.540042e-002 
7.352441e-002 
7.417734e-002 
7.650316e-002 
7.720698e-002 
7.723012e-002 
7.671220e-002 
7.651039e-002 
7.745367e-002 
7.612116e-002 
7.379377e-002 
7.184426e-002 
6.932409e-002 
6.792749e-002 
6.909030e-002 
6.952959e-002 
6.884817e-002 
6.673411e-002 
6.309799e-002 
6.097916e-002 
6.128913e-002 
6.282817e-002 
6.358076e-002 
6.219173e-002 
5.994437e-002 
5.842679e-002 
5.804977e-002 
5.938675e-002 
6.063007e-002 
6.119465e-002 
6.024009e-002 
5.876568e-002 
5.998113e-002 
6.211758e-002 
6.169911e-002 
5.963062e-002 
5.776892e-002 
5.640885e-002 
5.627050e-002 
5.538770e-002 
5.611630e-002 
5.681053e-002 
5.498379e-002 
5.312697e-002 
5.249580e-002 
5.241941e-002 
5.179661e-002 
4.965828e-002 
4.620410e-002 
4.443383e-002 
4.398074e-002 
4.405540e-002 
4.335676e-002 
4.030432e-002 
3.719482e-002 
3.617692e-002 
3.590098e-002 
3.521155e-002 
3.489040e-002 
3.303356e-002 
2.965617e-002 
2.635013e-002 
2.544591e-002 
2.617335e-002 
2.604647e-002 
2.451519e-002 
2.264877e-002 
2.186151e-002 
2.241305e-002 
2.338493e-002 
2.341933e-002 
2.310363e-002 
2.107664e-002 
1.972537e-002 
2.034300e-002 
2.170114e-002 
2.271173e-002 
2.213952e-002 
2.020768e-002 
1.962190e-002 
2.073456e-002 
2.104785e-002 
2.100954e-002 
2.024165e-002 
1.927042e-002 
1.759317e-002 
1.685787e-002 
1.832874e-002 
1.974897e-002 
1.901347e-002 
1.651177e-002 
1.598577e-002 
1.711417e-002 
1.783338e-002 
1.649619e-002 
1.464283e-002 
1.195331e-002 
1.018796e-002 
9.609935e-003 
9.327072e-003 
9.580885e-003 
8.145001e-003 
5.168865e-003 
2.951599e-003 
3.378985e-003 
5.185831e-003 
7.619353e-003 
6.142304e-003 
2.765607e-003 
1.823749e-003 
1.684107e-003 
2.017083e-003 
2.946698e-003 
3.247676e-003 
3.304804e-003 
3.027781e-003 
1.736183e-003 
2.781318e-003 
4.250254e-003 
2.955237e-003 
7.843014e-004 
-4.702435e-004 
-8.199123e-004 
-1.867853e-004 
-1.004604e-003 
-2.386464e-003 
-3.390592e-003 
-3.781519e-003 
-4.274482e-003 
-3.234705e-003 
-9.061130e-004 
-9.885649e-004 
-2.256440e-003 
-3.332190e-003 
-4.290492e-003 
-4.894476e-003 
-4.641724e-003 
-6.265149e-003 
-5.789933e-003 
-4.466270e-003 
-4.371121e-003 
-3.760836e-003 
-4.726321e-003 
-7.520794e-003 
-8.313614e-003 
-6.874241e-003 
-4.529296e-003 
-1.232934e-003 
2.463978e-004 
-7.867544e-004 
-6.656136e-004 
1.862552e-003 
7.043913e-003 
1.387094e-002 
1.911445e-002 
2.113374e-002 
2.177136e-002 
2.187707e-002 
2.381148e-002 
2.862933e-002 
3.007920e-002 
2.779838e-002 
2.342303e-002 
1.873778e-002 
1.501955e-002 
1.145309e-002 
6.897665e-003 
3.487017e-003 
-2.767924e-003 
-1.186481e-002 
-1.818523e-002 
-2.270743e-002 
-2.612551e-002 
-2.991433e-002 
-3.431394e-002 
-3.667289e-002 
-3.826379e-002 
-4.117282e-002 
-4.217838e-002 
-4.216380e-002 
-4.201846e-002 
-3.937984e-002 
-3.637676e-002 
-3.335014e-002 
-3.127990e-002 
-3.191951e-002 
-3.168714e-002 
-2.993958e-002 
-2.823502e-002 
-2.600222e-002 
-2.527081e-002 
-2.703902e-002 
-2.703984e-002 
-2.729880e-002 
-2.611243e-002 
-2.150437e-002 
-1.812423e-002 
-1.508862e-002 
-1.065711e-002 
-2.330162e-003 
1.320298e-002 
3.301892e-002 
5.189646e-002 
7.304247e-002 
9.362149e-002 
1.095370e-001 
1.223225e-001 
1.287399e-001 
1.261956e-001 
1.120077e-001 
8.468321e-002 
5.008309e-002 
1.532849e-002 
-1.950152e-002 
-5.200377e-002 
-8.191138e-002 
-1.114236e-001 
-1.414132e-001 
-1.742156e-001 
-2.068795e-001 
-2.343371e-001 
-2.538659e-001 
-2.640406e-001 
-2.642140e-001 
-2.576207e-001 
-2.465172e-001 
-2.326157e-001 
-2.137423e-001 
-1.844884e-001 
-1.451397e-001 
-1.014046e-001 
-6.059665e-002 
-2.852279e-002 
-8.537982e-003 
2.434633e-003 
8.171587e-003 
1.425686e-002 
2.248373e-002 
2.890224e-002 
3.102396e-002 
3.163129e-002 
3.222460e-002 
3.220363e-002 
3.252600e-002 
3.129749e-002 
3.005222e-002 
2.887956e-002 
2.692235e-002 
2.671931e-002 
2.904845e-002 
2.819453e-002 
2.470279e-002 
2.053798e-002 
1.762761e-002 
1.836042e-002 
1.972976e-002 
1.814632e-002 
1.635235e-002 
1.493248e-002 
1.197603e-002 
1.155655e-002 
1.278415e-002 
1.464681e-002 
1.494510e-002 
1.139636e-002 
7.422370e-003 
8.061966e-003 
9.666744e-003 
9.781901e-003 
8.940722e-003 
7.365794e-003 
7.256995e-003 
7.138167e-003 
6.745418e-003 
6.515532e-003 
6.086795e-003 
5.299602e-003 
3.963279e-003 
3.657827e-003 
5.675049e-003 
7.354304e-003 
5.997234e-003 
2.823457e-003 
2.116838e-004 
6.432439e-004 
1.739529e-003 
9.120283e-004 
-1.316341e-004 
-1.454367e-003 
-2.448991e-003 
-3.606422e-003 
-4.356170e-003 
-3.510399e-003 
-3.765017e-003 
-6.615618e-003 
-8.753213e-003 
-9.555582e-003 
-9.810148e-003 
-1.046075e-002 
-1.359468e-002 
-1.579279e-002 
-1.698141e-002 
-1.801545e-002 
-1.822034e-002 
-1.908330e-002 
-2.159108e-002 
-2.447634e-002 
-2.685605e-002 
-2.836441e-002 
-2.860095e-002 
-3.025809e-002 
-3.182660e-002 
-3.485605e-002 
-3.746466e-002 
-3.696367e-002 
-3.670808e-002 
-3.756229e-002 
-3.994107e-002 
-4.399637e-002 
-4.718342e-002 
-4.765294e-002 
-4.978156e-002 
-5.139734e-002 
-5.544584e-002 
-6.197116e-002 
-6.610873e-002 
-6.921784e-002 
-7.232128e-002 
-7.560281e-002 
-8.069038e-002 
-8.705027e-002 
-9.139268e-002 
-9.540090e-002 
-9.743941e-002 
-9.825475e-002 
-1.010458e-001 
-1.042608e-001 
-1.051014e-001 
-1.033564e-001 
-1.003330e-001 
-9.751040e-002 
-9.609621e-002 
-9.432092e-002 
-9.082742e-002 
-8.628984e-002 
-7.854004e-002 
-7.006604e-002 
-6.345586e-002 
-5.702771e-002 
-4.978975e-002 
-4.221123e-002 
-3.306152e-002 
-2.444060e-002 
-1.792004e-002 
-1.219513e-002 
-6.715302e-003 
3.797205e-004 
7.225602e-003 
1.078419e-002 
1.341306e-002 
1.720505e-002 
1.976376e-002 
2.241891e-002 
2.642866e-002 
3.019247e-002 
3.062635e-002 
2.779801e-002 
2.615991e-002 
2.897764e-002 
3.131275e-002 
2.997105e-002 
2.896748e-002 
2.897915e-002 
2.880488e-002 
2.828430e-002 
2.811674e-002 
2.800234e-002 
2.712587e-002 
2.456944e-002 
2.289802e-002 
2.470752e-002 
2.670154e-002 
2.680289e-002 
2.502379e-002 
2.256476e-002 
2.106640e-002 
2.303722e-002 
2.538139e-002 
2.647334e-002 
2.692321e-002 
2.556166e-002 
2.496882e-002 
2.536891e-002 
2.630307e-002 
2.789574e-002 
2.926160e-002 
2.889699e-002 
2.984372e-002 
3.115874e-002 
3.331602e-002 
3.510934e-002 
3.339075e-002 
3.210315e-002 
3.313121e-002 
3.550979e-002 
3.814726e-002 
3.879762e-002 
3.710483e-002 
3.717097e-002 
3.613095e-002 
3.622167e-002 
3.860236e-002 
3.910047e-002 
3.764317e-002 
3.491989e-002 
3.237876e-002 
3.294993e-002 
3.507795e-002 
3.474655e-002 
3.407805e-002 
3.255195e-002 
3.161074e-002 
3.272062e-002 
3.381542e-002 
3.475876e-002 
3.571135e-002 
3.449653e-002 
3.281552e-002 
3.379538e-002 
3.513384e-002 
3.598505e-002 
3.491386e-002 
3.324966e-002 
3.379528e-002 
3.470656e-002 
3.466644e-002 
3.478747e-002 
3.403249e-002 
3.213778e-002 
3.073630e-002 
3.029015e-002 
3.222423e-002 
3.431334e-002 
3.374327e-002 
3.278338e-002 
3.343791e-002 
3.484449e-002 
3.673087e-002 
3.598676e-002 
3.391905e-002 
3.285684e-002 
3.328622e-002 
3.403365e-002 
3.534159e-002 
3.572288e-002 
3.410627e-002 
3.195439e-002 
2.995980e-002 
3.154167e-002 
3.521155e-002 
3.735364e-002 
3.495655e-002 
3.169010e-002 
2.994576e-002 
3.159972e-002 
3.477225e-002 
3.729879e-002 
3.882885e-002 
3.894887e-002 
3.842505e-002 
3.810076e-002 
4.092102e-002 
4.507482e-002 
4.717743e-002 
4.648134e-002 
4.575392e-002 
4.647159e-002 
4.878422e-002 
4.996204e-002 
4.980286e-002 
5.082631e-002 
5.190814e-002 
5.208361e-002 
5.295486e-002 
5.417872e-002 
5.399735e-002 
5.304776e-002 
5.218871e-002 
5.271794e-002 
5.482891e-002 
5.581761e-002 
5.429189e-002 
5.260931e-002 
5.273040e-002 
5.343777e-002 
5.536500e-002 
5.714677e-002 
5.748977e-002 
5.794950e-002 
5.860469e-002 
6.041317e-002 
6.483090e-002 
7.103787e-002 
7.549994e-002 
7.970059e-002 
8.450254e-002 
9.007843e-002 
9.494260e-002 
9.762365e-002 
9.878441e-002 
9.976684e-002 
1.012075e-001 
1.014286e-001 
1.013368e-001 
9.938386e-002 
9.519058e-002 
8.964141e-002 
8.536278e-002 
8.261571e-002 
8.039750e-002 
7.647027e-002 
6.977510e-002 
6.210423e-002 
5.542897e-002 
5.233971e-002 
5.095088e-002 
4.965837e-002 
4.794145e-002 
4.702822e-002 
4.687089e-002 
4.807354e-002 
5.012056e-002 
