91
2.3698
415.1648
26.8005
4.496473e-002
1.193557e-001
1.882061e-001
2.572639e-001
3.245608e-001
3.900833e-001
4.558772e-001
5.151823e-001
6.024134e-001
7.339161e-001
8.188244e-001
8.716051e-001
9.273246e-001
9.801910e-001
1.032272e+000
1.082513e+000
1.128802e+000
1.180133e+000
1.201384e+000
1.175982e+000
1.150193e+000
1.124475e+000
1.098944e+000
1.073176e+000
1.047387e+000
1.023036e+000
1.000217e+000
9.766897e-001
9.534252e-001
9.307719e-001
9.081622e-001
8.849950e-001
8.632248e-001
8.423651e-001
8.209168e-001
8.006846e-001
7.805750e-001
7.612320e-001
7.426293e-001
7.222043e-001
7.019389e-001
6.845279e-001
6.654670e-001
6.464946e-001
6.296198e-001
6.122294e-001
5.952485e-001
5.769661e-001
5.579395e-001
5.417249e-001
5.256848e-001
5.083451e-001
4.929154e-001
4.781354e-001
4.621928e-001
4.454870e-001
4.292514e-001
4.145916e-001
3.995550e-001
3.828845e-001
3.619265e-001
2.828770e-001
1.692062e-001
6.342581e-002
-4.084513e-002
-1.415254e-001
-2.414178e-001
-3.421671e-001
-4.381444e-001
-5.725674e-001
-7.549599e-001
-8.734501e-001
-9.528612e-001
-1.035991e+000
-1.116695e+000
-1.197287e+000
-1.274617e+000
-1.346713e+000
-1.419816e+000
-1.449985e+000
-1.422897e+000
-1.397389e+000
-1.372851e+000
-1.349730e+000
-1.326360e+000
-1.301092e+000
-1.276573e+000
-1.253994e+000
-1.230743e+000
-1.206966e+000
-1.183960e+000
-1.161427e+000
-1.140352e+000
-1.118717e+000
-1.096411e+000
-1.075412e+000
-1.054702e+000
-1.032838e+000
-1.011326e+000
-9.909434e-001
-9.714706e-001
-9.522744e-001
-9.325671e-001
-9.129238e-001
-8.934585e-001
-8.736343e-001
-8.542608e-001
-8.364436e-001
-8.192815e-001
-8.015980e-001
-7.835818e-001
-7.663426e-001
-7.496047e-001
-7.322000e-001
-7.155402e-001
-7.000433e-001
-6.845955e-001
-6.688606e-001
-6.518819e-001
-6.355892e-001
-6.205719e-001
-6.044357e-001
-5.877792e-001
-5.718990e-001
-5.566768e-001
-4.797245e-001
-3.634181e-001
-2.569028e-001
-1.517084e-001
-4.792768e-002
5.415824e-002
1.552828e-001
2.480413e-001
3.791912e-001
5.689699e-001
6.916566e-001
7.707342e-001
8.560271e-001
9.383320e-001
1.017621e+000
1.094996e+000
1.169244e+000
1.246973e+000
1.281600e+000
1.255229e+000
1.230814e+000
1.206042e+000
1.181330e+000
1.155841e+000
1.131080e+000
1.107216e+000
1.082606e+000
1.059642e+000
1.038137e+000
1.014911e+000
9.912796e-001
9.692335e-001
9.472556e-001
9.261326e-001
9.055812e-001
8.854271e-001
8.660831e-001
8.458360e-001
8.244901e-001
8.048599e-001
7.871303e-001
7.683737e-001
7.494750e-001
7.314213e-001
7.138796e-001
6.959755e-001
6.775247e-001
6.594670e-001
6.432944e-001
6.274395e-001
6.090190e-001
5.915567e-001
5.763918e-001
5.602810e-001
5.434363e-001
5.267617e-001
5.111073e-001
4.967536e-001
4.808559e-001
4.634787e-001
4.488906e-001
4.344105e-001
4.169491e-001
4.013194e-001
3.249769e-001
2.103932e-001
1.048270e-001
-2.232115e-003
-1.058374e-001
-2.059255e-001
-3.085296e-001
-4.021389e-001
-5.312183e-001
-7.206751e-001
-8.444434e-001
-9.251631e-001
-1.009652e+000
-1.089363e+000
-1.168980e+000
-1.247404e+000
-1.319677e+000
-1.396369e+000
-1.432946e+000
-1.406661e+000
-1.379642e+000
-1.352973e+000
-1.328410e+000
-1.304451e+000
-1.279367e+000
-1.253925e+000
-1.229111e+000
-1.205345e+000
-1.180341e+000
-1.155755e+000
-1.133445e+000
-1.111218e+000
-1.088294e+000
-1.065571e+000
-1.043262e+000
-1.021509e+000
-1.000043e+000
-9.778121e-001
-9.572233e-001
-9.366090e-001
-9.148403e-001
-8.943392e-001
-8.749567e-001
-8.549497e-001
-8.353937e-001
-8.158436e-001
-7.965635e-001
-7.789037e-001
-7.604250e-001
-7.419466e-001
-7.249913e-001
-7.073994e-001
-6.892024e-001
-6.724696e-001
-6.561213e-001
-6.402697e-001
-6.247625e-001
-6.086114e-001
-5.936431e-001
-5.794014e-001
-5.638449e-001
-5.483886e-001
-5.336964e-001
-5.196787e-001
-4.400848e-001
-3.215923e-001
-2.155729e-001
-1.098541e-001
-5.891973e-003
9.588372e-002
1.975733e-001
2.895512e-001
4.224047e-001
6.172171e-001
7.382035e-001
8.156450e-001
9.016803e-001
9.835635e-001
1.063752e+000
1.142215e+000
1.215763e+000
1.294611e+000
1.328295e+000
1.296888e+000
1.270460e+000
1.244578e+000
1.218348e+000
1.192964e+000
1.168093e+000
1.143283e+000
1.118648e+000
1.094045e+000
1.070666e+000
1.048056e+000
1.024802e+000
1.002102e+000
9.807689e-001
9.593215e-001
9.375251e-001
9.158600e-001
8.953193e-001
8.759258e-001
8.559647e-001
8.356248e-001
8.165521e-001
7.975464e-001
7.775561e-001
7.583235e-001
7.405960e-001
7.233721e-001
7.053914e-001
6.868652e-001
6.695051e-001
6.528835e-001
6.349876e-001
6.183764e-001
6.032145e-001
5.871428e-001
5.702436e-001
5.540299e-001
5.386766e-001
5.247158e-001
5.100743e-001
4.952633e-001
4.815135e-001
4.661524e-001
4.491307e-001
4.316566e-001
3.527558e-001
2.372463e-001
1.320799e-001
2.575174e-002
-7.774261e-002
-1.790868e-001
-2.815683e-001
-3.755618e-001
-5.076535e-001
-6.958287e-001
-8.156880e-001
-8.943299e-001
-9.792726e-001
-1.060226e+000
-1.140062e+000
-1.217096e+000
-1.288150e+000
-1.362760e+000
-1.394242e+000
-1.364378e+000
-1.336995e+000
-1.310979e+000
-1.285566e+000
-1.259823e+000
-1.232909e+000
-1.206753e+000
-1.182459e+000
-1.158638e+000
-1.134838e+000
-1.111594e+000
-1.089061e+000
-1.066721e+000
-1.043407e+000
-1.020145e+000
-9.997822e-001
-9.802652e-001
-9.590732e-001
-9.378947e-001
-9.173013e-001
-8.974118e-001
-8.770141e-001
-8.552527e-001
-8.360021e-001
-8.180767e-001
-7.975240e-001
-7.765874e-001
-7.573785e-001
-7.384157e-001
-7.194262e-001
-6.987941e-001
-6.793164e-001
-6.623888e-001
-6.441025e-001
-6.258090e-001
-6.098393e-001
-5.938229e-001
-5.775386e-001
-5.613168e-001
-5.458223e-001
-5.332320e-001
-5.205998e-001
-5.066388e-001
-4.935427e-001
-4.819508e-001
-4.093489e-001
-2.975365e-001
-1.951936e-001
-9.468665e-002
3.793868e-003
1.016222e-001
2.002133e-001
2.892370e-001
4.158867e-001
6.036206e-001
7.268073e-001
8.048551e-001
8.884477e-001
9.699713e-001
1.049550e+000
1.126966e+000
1.200102e+000
1.279522e+000
1.317353e+000
1.291252e+000
1.265610e+000
1.241367e+000
1.216837e+000
1.191834e+000
1.166848e+000
1.142529e+000
1.118761e+000
1.093638e+000
1.068791e+000
1.044570e+000
1.021007e+000
9.980000e-001
9.750663e-001
9.521777e-001
9.298984e-001
9.085047e-001
8.868116e-001
8.653142e-001
8.444252e-001
8.248711e-001
8.052004e-001
7.851779e-001
7.658849e-001
7.481831e-001
7.311356e-001
7.122724e-001
6.932331e-001
6.759271e-001
6.592450e-001
6.413172e-001
6.240734e-001
6.083821e-001
5.934561e-001
5.771324e-001
5.595679e-001
5.444297e-001
5.302609e-001
5.145188e-001
4.983404e-001
4.835083e-001
4.685712e-001
4.528719e-001
4.353054e-001
3.920330e-001
2.977460e-001
1.847490e-001
7.780461e-002
-2.686621e-002
-1.288955e-001
-2.305322e-001
-3.295245e-001
-4.406332e-001
-5.978280e-001
-7.603839e-001
-8.646937e-001
-9.462454e-001
-1.029757e+000
-1.110676e+000
-1.189837e+000
-1.266314e+000
-1.341109e+000
-1.399460e+000
-1.406912e+000
-1.378413e+000
-1.351507e+000
-1.325520e+000
-1.300185e+000
-1.275183e+000
-1.250486e+000
-1.224647e+000
-1.199203e+000
-1.173966e+000
-1.148099e+000
-1.122741e+000
-1.099183e+000
-1.076760e+000
-1.054471e+000
-1.031837e+000
-1.009725e+000
-9.887624e-001
-9.672338e-001
-9.453566e-001
-9.246908e-001
-9.051444e-001
-8.850311e-001
-8.639388e-001
-8.436165e-001
-8.245390e-001
-8.044549e-001
-7.840271e-001
-7.658317e-001
-7.491360e-001
-7.314665e-001
-7.124070e-001
-6.938808e-001
-6.771725e-001
-6.592125e-001
-6.407652e-001
-6.250351e-001
-6.103712e-001
-5.943084e-001
-5.773322e-001
-5.620355e-001
-5.488171e-001
-5.346785e-001
-5.180578e-001
-5.030859e-001
-4.881307e-001
-4.152357e-001
-3.001627e-001
-1.919099e-001
-8.733005e-002
1.671229e-002
1.204471e-001
2.231086e-001
3.170396e-001
4.467728e-001
6.332326e-001
7.633959e-001
8.455861e-001
9.304678e-001
1.014678e+000
1.094990e+000
1.172653e+000
1.247619e+000
1.325576e+000
1.363679e+000
1.340480e+000
1.314156e+000
1.289574e+000
1.263291e+000
1.237012e+000
1.212959e+000
1.188964e+000
1.164059e+000
1.139817e+000
1.117033e+000
1.094751e+000
1.070679e+000
1.047895e+000
1.027220e+000
1.006106e+000
9.846699e-001
9.642287e-001
9.443987e-001
9.248045e-001
9.047661e-001
8.850001e-001
8.673072e-001
8.490098e-001
8.301109e-001
8.126512e-001
7.950360e-001
7.770303e-001
7.592289e-001
7.414023e-001
7.247728e-001
7.082548e-001
6.906256e-001
6.742784e-001
6.586139e-001
6.417054e-001
6.251465e-001
6.090571e-001
5.940642e-001
5.791970e-001
5.626032e-001
5.474086e-001
5.332412e-001
5.174720e-001
5.006656e-001
4.601886e-001
3.662380e-001
2.539419e-001
1.471722e-001
4.197469e-002
-5.926431e-002
-1.606163e-001
-2.598196e-001
-3.688951e-001
-5.244319e-001
-6.887645e-001
-7.927893e-001
-8.737433e-001
-9.567446e-001
-1.037620e+000
-1.117188e+000
-1.193440e+000
-1.268024e+000
-1.328375e+000
-1.337674e+000
-1.309527e+000
-1.283345e+000
-1.257352e+000
-1.232390e+000
-1.207339e+000
-1.181662e+000
-1.156772e+000
-1.133086e+000
-1.109489e+000
-1.085017e+000
-1.060189e+000
-1.036980e+000
-1.015560e+000
-9.935195e-001
-9.709186e-001
-9.503704e-001
-9.301769e-001
-9.090860e-001
-8.879593e-001
-8.684918e-001
-8.500092e-001
-8.314056e-001
-8.122019e-001
-7.933302e-001
-7.756109e-001
-7.572284e-001
-7.389804e-001
-7.218093e-001
-7.042231e-001
-6.856803e-001
-6.680091e-001
-6.503120e-001
-6.318880e-001
-6.145791e-001
-5.980076e-001
-5.820565e-001
-5.645843e-001
-5.462998e-001
-5.296587e-001
-5.147748e-001
-4.985504e-001
-4.817425e-001
-4.669995e-001
-4.515791e-001
-4.124468e-001
-3.192353e-001
-2.082713e-001
-1.057322e-001
-2.966946e-003
9.955343e-002
1.996193e-001
2.954399e-001
4.014290e-001
5.533159e-001
7.166501e-001
8.194118e-001
8.987406e-001
9.821076e-001
1.062556e+000
1.140100e+000
1.215119e+000
1.289981e+000
1.351579e+000
1.362913e+000
1.335654e+000
1.311649e+000
1.287550e+000
1.263751e+000
1.240486e+000
1.217723e+000
1.194682e+000
1.171364e+000
1.148548e+000
1.126891e+000
1.105308e+000
1.083139e+000
1.062397e+000
1.041603e+000
1.020584e+000
9.993561e-001
9.789003e-001
9.595263e-001
9.403999e-001
9.200469e-001
9.005109e-001
8.816736e-001
8.627161e-001
8.440326e-001
8.245988e-001
8.060775e-001
7.882133e-001
7.692445e-001
7.503990e-001
7.333851e-001
7.167571e-001
6.990041e-001
6.806830e-001
6.633761e-001
6.471719e-001
6.299339e-001
6.127470e-001
5.971123e-001
5.822427e-001
5.659750e-001
5.490958e-001
5.344250e-001
5.202427e-001
5.039436e-001
4.880263e-001
4.120345e-001
2.975490e-001
1.926031e-001
8.737597e-002
-1.412724e-002
-1.126957e-001
-2.136445e-001
-3.059630e-001
-4.342867e-001
-6.215171e-001
-7.418898e-001
-8.191720e-001
-9.024995e-001
-9.824343e-001
-1.062053e+000
-1.139516e+000
-1.210183e+000
-1.285902e+000
-1.320497e+000
-1.292622e+000
-1.267183e+000
-1.243302e+000
-1.220135e+000
-1.196171e+000
-1.171992e+000
-1.149023e+000
-1.127300e+000
-1.105044e+000
-1.083522e+000
-1.063182e+000
-1.042965e+000
-1.021706e+000
-1.000969e+000
-9.820446e-001
-9.625852e-001
-9.429874e-001
-9.237517e-001
-9.057568e-001
-8.877518e-001
-8.682502e-001
-8.482741e-001
-8.297778e-001
-8.106587e-001
-7.909766e-001
-7.720285e-001
-7.542324e-001
-7.372183e-001
-7.192096e-001
-6.999686e-001
-6.821400e-001
-6.655026e-001
-6.481918e-001
-6.309549e-001
-6.148425e-001
-5.998206e-001
-5.842892e-001
-5.679005e-001
-5.518519e-001
-5.383729e-001
-5.251903e-001
-5.108447e-001
-4.966566e-001
-4.826321e-001
-4.671897e-001
-3.885872e-001
-2.729610e-001
-1.688078e-001
-6.496104e-002
3.840277e-002
1.394027e-001
2.399835e-001
3.328011e-001
4.645595e-001
6.531834e-001
7.720951e-001
8.493522e-001
9.344325e-001
1.015859e+000
1.094244e+000
1.171120e+000
1.243426e+000
1.319068e+000
1.350948e+000
1.320693e+000
1.294123e+000
1.268816e+000
1.243094e+000
1.217308e+000
1.192274e+000
1.167989e+000
1.143634e+000
1.119487e+000
1.097007e+000
1.074962e+000
1.053201e+000
1.032071e+000
1.010864e+000
9.902854e-001
9.699831e-001
9.494761e-001
9.308313e-001
9.122163e-001
8.923719e-001
8.741859e-001
8.569560e-001
8.396628e-001
8.219059e-001
8.037307e-001
7.867835e-001
7.700069e-001
7.516701e-001
7.343470e-001
7.187338e-001
7.031985e-001
6.867473e-001
6.692418e-001
6.529894e-001
6.374476e-001
6.206037e-001
6.038725e-001
5.891483e-001
5.747335e-001
5.594620e-001
5.430588e-001
5.266808e-001
5.111351e-001
4.940216e-001
4.741319e-001
3.960018e-001
2.837124e-001
1.800002e-001
7.569403e-002
-2.667895e-002
-1.263530e-001
-2.262762e-001
-3.198017e-001
-4.503968e-001
-6.331569e-001
-7.502602e-001
-8.280062e-001
-9.116239e-001
-9.922202e-001
-1.070776e+000
-1.147055e+000
-1.218642e+000
-1.293020e+000
-1.325325e+000
-1.298819e+000
-1.274685e+000
-1.251774e+000
-1.229816e+000
-1.206516e+000
-1.183005e+000
-1.161221e+000
-1.140475e+000
-1.119169e+000
-1.097605e+000
-1.076092e+000
-1.055852e+000
-1.035263e+000
-1.013398e+000
-9.933787e-001
-9.739100e-001
-9.530155e-001
-9.312953e-001
-9.102623e-001
-8.908353e-001
-8.714764e-001
-8.510488e-001
-8.325182e-001
-8.138950e-001
-7.940150e-001
-7.741566e-001
-7.546063e-001
-7.369136e-001
-7.193601e-001
-6.999790e-001
-6.826041e-001
-6.665465e-001
-6.489466e-001
-6.323576e-001
-6.156088e-001
-5.995163e-001
-5.849633e-001
-5.683818e-001
-5.518197e-001
-5.378790e-001
-5.231724e-001
-5.073312e-001
-4.914193e-001
-4.752934e-001
-4.604196e-001
-3.855950e-001
-2.701606e-001
-1.645281e-001
-5.993222e-002
4.383916e-002
1.454372e-001
2.466205e-001
3.399593e-001
4.705302e-001
6.588387e-001
7.834606e-001
8.637556e-001
9.490386e-001
1.030246e+000
1.109079e+000
1.187239e+000
1.261900e+000
1.339547e+000
1.374985e+000
1.348748e+000
1.323092e+000
1.297593e+000
1.271057e+000
1.245760e+000
1.222300e+000
1.198264e+000
1.173290e+000
1.148436e+000
1.124779e+000
1.101892e+000
1.078392e+000
1.055360e+000
1.034176e+000
1.013720e+000
9.914372e-001
9.696534e-001
9.487152e-001
9.279183e-001
9.073681e-001
8.874641e-001
8.678097e-001
8.492116e-001
8.295984e-001
8.098406e-001
7.921556e-001
7.730224e-001
7.542865e-001
7.371247e-001
7.199933e-001
7.022404e-001
6.849638e-001
6.679175e-001
6.520867e-001
6.354063e-001
6.185950e-001
6.042061e-001
5.896749e-001
5.749169e-001
5.592605e-001
5.439907e-001
5.300770e-001
5.148246e-001
4.984830e-001
4.835090e-001
4.082342e-001
2.934309e-001
1.869602e-001
7.979936e-002
-2.232781e-002
-1.218972e-001
-2.239932e-001
-3.171105e-001
-4.465016e-001
-6.335275e-001
-7.572219e-001
-8.384871e-001
-9.231257e-001
-1.002705e+000
-1.082821e+000
-1.161178e+000
-1.233512e+000
-1.309582e+000
-1.345183e+000
-1.320532e+000
-1.295363e+000
-1.269205e+000
-1.244551e+000
-1.221123e+000
-1.196998e+000
-1.173402e+000
-1.151570e+000
-1.130290e+000
-1.108332e+000
-1.085398e+000
-1.062751e+000
-1.042105e+000
-1.020747e+000
-9.991460e-001
-9.780665e-001
-9.574068e-001
-9.360985e-001
-9.144243e-001
-8.934656e-001
-8.735688e-001
-8.534214e-001
-8.326453e-001
-8.127249e-001
-7.925327e-001
-7.728291e-001
-7.530320e-001
-7.336570e-001
-7.150306e-001
-6.965197e-001
-6.786388e-001
-6.617633e-001
-6.444300e-001
-6.272058e-001
-6.117990e-001
-5.967924e-001
-5.812186e-001
-5.652664e-001
-5.504675e-001
-5.362152e-001
-5.204758e-001
-5.042142e-001
-4.897206e-001
-4.757556e-001
-4.584837e-001
-3.817367e-001
-2.708025e-001
-1.693128e-001
-6.651095e-002
3.490739e-002
1.326155e-001
2.289736e-001
3.206244e-001
4.511281e-001
6.320745e-001
7.479401e-001
8.245557e-001
9.071367e-001
9.858158e-001
1.061293e+000
1.136546e+000
1.209142e+000
1.282380e+000
1.312469e+000
1.285303e+000
1.260939e+000
1.237799e+000
1.213545e+000
1.188626e+000
1.165005e+000
1.140301e+000
1.115184e+000
1.091058e+000
1.067988e+000
1.046356e+000
1.024288e+000
1.000716e+000
9.778489e-001
9.556332e-001
9.332508e-001
9.116604e-001
8.907155e-001
8.701335e-001
8.500418e-001
8.292292e-001
8.090581e-001
7.901183e-001
7.705802e-001
7.519200e-001
7.347477e-001
7.170049e-001
6.988579e-001
6.816395e-001
6.646509e-001
6.484275e-001
6.317715e-001
6.153710e-001
6.009983e-001
5.867198e-001
5.711268e-001
5.562635e-001
5.425764e-001
5.294952e-001
5.156865e-001
5.009895e-001
4.869021e-001
4.729203e-001
4.574914e-001
4.416082e-001
3.653125e-001
2.528102e-001
1.501796e-001
4.576144e-002
-5.584463e-002
-1.546643e-001
-2.548894e-001
-3.467650e-001
-4.762484e-001
-6.635305e-001
-7.836830e-001
-8.617905e-001
-9.459333e-001
-1.026280e+000
-1.105067e+000
-1.181846e+000
-1.253378e+000
-1.330224e+000
-1.365905e+000
-1.339196e+000
-1.314446e+000
-1.292029e+000
-1.270891e+000
-1.249003e+000
-1.226704e+000
-1.204983e+000
-1.184680e+000
-1.163180e+000
-1.140643e+000
-1.119957e+000
-1.100217e+000
-1.080318e+000
-1.060009e+000
-1.039665e+000
-1.019964e+000
-1.000191e+000
-9.785413e-001
-9.576933e-001
-9.376425e-001
-9.169766e-001
-8.964425e-001
-8.766405e-001
-8.566947e-001
-8.358265e-001
-8.142548e-001
-7.932412e-001
-7.733548e-001
-7.535388e-001
-7.343939e-001
-7.162099e-001
-6.983251e-001
-6.789005e-001
-6.584589e-001
-6.398509e-001
-6.234249e-001
-6.060527e-001
-5.889690e-001
-5.737595e-001
-5.589782e-001
-5.432359e-001
-5.264515e-001
-5.105242e-001
-4.964716e-001
-4.828828e-001
-4.084508e-001
-2.967625e-001
-1.951662e-001
-9.262991e-002
8.961614e-003
1.077099e-001
2.061781e-001
2.962576e-001
4.235779e-001
6.092540e-001
7.305501e-001
8.084534e-001
8.926600e-001
9.731998e-001
1.051292e+000
1.128782e+000
1.203273e+000
1.281990e+000
1.319081e+000
1.294661e+000
1.271073e+000
1.248382e+000
1.225169e+000
1.202401e+000
1.181456e+000
1.160701e+000
1.137834e+000
1.114538e+000
1.092652e+000
1.070640e+000
1.048922e+000
1.027734e+000
1.007017e+000
9.873325e-001
9.665102e-001
9.445919e-001
9.239996e-001
9.040476e-001
8.839175e-001
8.645682e-001
8.452237e-001
8.264485e-001
8.080038e-001
7.883290e-001
7.693820e-001
7.516377e-001
7.332668e-001
7.152306e-001
6.977632e-001
6.808982e-001
6.633881e-001
6.452227e-001
6.280992e-001
6.120774e-001
5.956220e-001
5.790853e-001
5.631403e-001
5.478334e-001
5.317318e-001
5.143882e-001
4.988688e-001
4.838198e-001
4.677440e-001
4.507961e-001
3.781412e-001
2.656521e-001
1.583122e-001
5.109542e-002
-5.260884e-002
-1.530889e-001
-2.544900e-001
-3.489028e-001
-4.775903e-001
-6.610709e-001
-7.896279e-001
-8.733870e-001
-9.579437e-001
-1.039323e+000
-1.119144e+000
-1.197171e+000
-1.270986e+000
-1.347307e+000
-1.385449e+000
-1.364148e+000
-1.337489e+000
-1.312437e+000
-1.287988e+000
-1.262947e+000
-1.238273e+000
-1.214202e+000
-1.190137e+000
-1.166935e+000
-1.143786e+000
-1.120447e+000
-1.098591e+000
-1.076146e+000
-1.053113e+000
-1.031563e+000
-1.009815e+000
-9.887406e-001
-9.689308e-001
-9.484127e-001
-9.280831e-001
-9.087848e-001
-8.886250e-001
-8.698532e-001
-8.516187e-001
-8.326681e-001
-8.146135e-001
-7.962280e-001
-7.772131e-001
-7.594520e-001
-7.416303e-001
-7.236834e-001
-7.067558e-001
-6.892551e-001
-6.718418e-001
-6.551735e-001
-6.389176e-001
-6.231582e-001
-6.077142e-001
-5.917119e-001
-5.764130e-001
-5.609986e-001
-5.451191e-001
-5.291905e-001
-5.135275e-001
-4.992652e-001
-4.223383e-001
-3.061856e-001
-2.011093e-001
-9.610184e-002
7.400813e-003
1.084887e-001
2.094498e-001
3.008234e-001
4.310739e-001
6.225673e-001
7.444714e-001
8.227489e-001
9.079596e-001
9.888812e-001
1.067629e+000
1.143808e+000
1.216579e+000
1.295104e+000
1.329881e+000
1.300798e+000
1.274980e+000
1.249047e+000
1.223510e+000
1.198036e+000
1.172862e+000
1.148681e+000
1.123383e+000
1.098335e+000
1.074391e+000
1.050632e+000
1.026806e+000
1.003728e+000
9.813666e-001
9.596181e-001
9.368068e-001
9.141318e-001
8.933016e-001
8.728986e-001
8.525849e-001
8.329610e-001
8.142308e-001
7.962399e-001
7.772757e-001
7.583366e-001
7.416387e-001
7.260052e-001
7.097219e-001
6.935422e-001
6.781019e-001
6.621669e-001
6.454463e-001
6.292304e-001
6.145105e-001
6.004997e-001
5.855429e-001
5.702174e-001
5.561340e-001
5.414280e-001
5.256524e-001
5.104567e-001
4.965389e-001
4.819328e-001
4.660559e-001
4.513665e-001
3.763246e-001
2.625484e-001
1.575855e-001
5.271327e-002
-4.910271e-002
-1.483900e-001
-2.493685e-001
-3.404802e-001
-4.686476e-001
-6.579399e-001
-7.810084e-001
-8.605815e-001
-9.461400e-001
-1.027839e+000
-1.108185e+000
-1.186421e+000
-1.258731e+000
-1.337400e+000
-1.375301e+000
-1.349520e+000
-1.325156e+000
-1.301577e+000
-1.278152e+000
-1.255087e+000
-1.230606e+000
-1.207005e+000
-1.185196e+000
-1.162902e+000
-1.140141e+000
-1.117516e+000
-1.095513e+000
-1.073993e+000
-1.052404e+000
-1.030994e+000
-1.012118e+000
-9.929293e-001
-9.729018e-001
-9.530543e-001
-9.337500e-001
-9.146932e-001
-8.949446e-001
-8.765963e-001
-8.595611e-001
-8.424754e-001
-8.237011e-001
-8.052067e-001
-7.878843e-001
-7.704626e-001
-7.521133e-001
-7.348353e-001
-7.188457e-001
-7.016996e-001
-6.837963e-001
-6.657397e-001
-6.494824e-001
-6.339643e-001
-6.171439e-001
-6.010370e-001
-5.861762e-001
-5.702532e-001
-5.534161e-001
-5.366631e-001
-5.203583e-001
-5.061152e-001
-4.280994e-001
-3.102913e-001
-2.044690e-001
-9.850503e-002
6.070391e-003
1.071528e-001
2.077217e-001
2.991263e-001
4.297145e-001
6.222653e-001
7.448064e-001
8.224304e-001
9.079206e-001
9.895353e-001
1.067980e+000
1.145381e+000
1.218996e+000
1.297348e+000
1.332238e+000
1.303304e+000
1.278228e+000
1.254349e+000
1.229661e+000
1.204940e+000
1.181630e+000
1.158459e+000
1.134676e+000
1.111363e+000
1.089898e+000
1.067905e+000
1.045151e+000
1.023011e+000
1.001283e+000
9.809505e-001
9.605340e-001
9.396266e-001
9.201035e-001
9.001710e-001
8.790158e-001
8.593395e-001
8.400624e-001
8.212967e-001
8.022605e-001
7.821831e-001
7.633715e-001
7.452834e-001
7.259059e-001
7.079126e-001
6.908745e-001
6.734145e-001
6.557635e-001
6.374793e-001
6.209320e-001
6.054118e-001
5.888627e-001
5.727688e-001
5.581940e-001
5.428422e-001
5.271394e-001
5.114515e-001
4.967073e-001
4.828806e-001
4.672632e-001
4.514374e-001
3.756570e-001
2.607300e-001
1.542496e-001
4.858080e-002
-5.409951e-002
-1.535039e-001
-2.547490e-001
-3.489997e-001
-4.790392e-001
-6.670754e-001
-7.905020e-001
-8.693563e-001
-9.529394e-001
-1.033335e+000
-1.112975e+000
-1.191573e+000
-1.263704e+000
-1.339006e+000
-1.373814e+000
-1.346580e+000
-1.319590e+000
-1.294409e+000
-1.270012e+000
-1.244772e+000
-1.218158e+000
-1.192722e+000
-1.169265e+000
-1.145804e+000
-1.122096e+000
-1.098536e+000
-1.075752e+000
-1.053133e+000
-1.029812e+000
-1.008069e+000
-9.875352e-001
-9.655754e-001
-9.434185e-001
-9.217591e-001
-9.011666e-001
-8.817783e-001
-8.617082e-001
-8.424253e-001
-8.233821e-001
-8.028191e-001
-7.828883e-001
-7.646452e-001
-7.466081e-001
-7.289264e-001
-7.102824e-001
-6.917607e-001
-6.746764e-001
-6.560833e-001
-6.383059e-001
-6.220756e-001
-6.061488e-001
-5.896581e-001
-5.722927e-001
-5.554007e-001
-5.402021e-001
-5.240365e-001
-5.065928e-001
-4.902660e-001
-4.730613e-001
-4.477164e-001
-3.628554e-001
-2.476104e-001
-1.431934e-001
-3.799679e-002
6.602790e-002
1.672451e-001
2.667794e-001
3.646832e-001
5.035148e-001
6.834469e-001
7.970406e-001
8.755147e-001
9.603556e-001
1.040543e+000
1.117417e+000
1.191657e+000
1.263867e+000
1.334442e+000
1.358765e+000
1.330046e+000
1.304912e+000
1.280082e+000
1.253776e+000
1.227060e+000
1.202387e+000
1.180140e+000
1.157277e+000
1.133228e+000
1.110823e+000
1.088847e+000
1.066588e+000
1.044722e+000
1.024460e+000
1.005817e+000
9.868965e-001
9.664780e-001
9.471351e-001
9.290558e-001
9.101880e-001
8.922232e-001
8.745840e-001
8.572190e-001
8.402694e-001
8.224750e-001
8.059424e-001
7.905006e-001
7.734349e-001
7.566264e-001
7.405888e-001
7.231947e-001
7.066597e-001
6.913804e-001
6.754836e-001
6.603601e-001
6.441393e-001
6.272275e-001
6.118369e-001
5.964658e-001
5.807854e-001
5.664057e-001
5.511759e-001
5.341914e-001
5.171770e-001
5.014842e-001
4.252006e-001
3.118054e-001
2.080232e-001
1.032976e-001
1.050333e-003
-9.904340e-002
-2.003505e-001
-2.919242e-001
-4.192276e-001
-6.065306e-001
-7.278841e-001
-8.071596e-001
-8.913422e-001
-9.708928e-001
-1.049523e+000
-1.127132e+000
-1.198396e+000
-1.274014e+000
-1.310174e+000
-1.283890e+000
-1.257416e+000
-1.231795e+000
-1.207775e+000
-1.183159e+000
-1.158546e+000
-1.133812e+000
-1.109560e+000
-1.085781e+000
-1.060949e+000
-1.037043e+000
-1.015016e+000
-9.912979e-001
-9.679354e-001
-9.468997e-001
-9.255770e-001
-9.039615e-001
-8.824764e-001
-8.614285e-001
-8.419164e-001
-8.213588e-001
-7.999108e-001
-7.816522e-001
-7.638715e-001
-7.443787e-001
-7.247050e-001
-7.057022e-001
-6.876597e-001
-6.705445e-001
-6.525501e-001
-6.350323e-001
-6.192186e-001
-6.022191e-001
-5.847624e-001
-5.683374e-001
-5.530756e-001
-5.388061e-001
-5.247811e-001
-5.101271e-001
-4.960413e-001
-4.828001e-001
-4.692188e-001
-4.557926e-001
-4.423050e-001
-4.290709e-001
-3.555415e-001
-2.431692e-001
-1.396824e-001
-3.686366e-002
6.378859e-002
1.628774e-001
2.617931e-001
3.529123e-001
4.819249e-001
6.677608e-001
7.886637e-001
8.666092e-001
9.504905e-001
1.031769e+000
1.110009e+000
1.185418e+000
1.258388e+000
1.334797e+000
1.367559e+000
1.339940e+000
1.314104e+000
1.289628e+000
1.263916e+000
1.236503e+000
1.211408e+000
1.188199e+000
1.163184e+000
1.138131e+000
1.115749e+000
1.093709e+000
1.070244e+000
1.046468e+000
1.024062e+000
1.002999e+000
9.817061e-001
9.597403e-001
9.393790e-001
9.204643e-001
8.998431e-001
8.793474e-001
8.613149e-001
8.434814e-001
8.252456e-001
8.071457e-001
7.894884e-001
7.726287e-001
7.547959e-001
7.369030e-001
7.211011e-001
7.061362e-001
6.900157e-001
6.735608e-001
6.578526e-001
6.427016e-001
6.264609e-001
6.103297e-001
5.959883e-001
5.814758e-001
5.661930e-001
5.503795e-001
5.356327e-001
5.208311e-001
5.041303e-001
4.888354e-001
4.124108e-001
2.969723e-001
1.909260e-001
8.486750e-002
-1.686387e-002
-1.164037e-001
-2.191201e-001
-3.112247e-001
-4.402862e-001
-6.307459e-001
-7.525934e-001
-8.309925e-001
-9.143219e-001
-9.928346e-001
-1.072696e+000
-1.150826e+000
-1.222293e+000
-1.299908e+000
-1.334574e+000
-1.304996e+000
-1.277590e+000
-1.250773e+000
-1.226029e+000
-1.202632e+000
-1.177966e+000
-1.154132e+000
-1.131099e+000
-1.106852e+000
-1.082928e+000
-1.060583e+000
-1.039695e+000
-1.018333e+000
-9.964211e-001
-9.755411e-001
-9.557816e-001
-9.350062e-001
-9.142995e-001
-8.951627e-001
-8.768083e-001
-8.570735e-001
-8.367443e-001
-8.186409e-001
-8.010430e-001
-7.826044e-001
-7.641295e-001
-7.469490e-001
-7.297258e-001
-7.116600e-001
-6.934702e-001
-6.770804e-001
-6.614019e-001
-6.457667e-001
-6.299318e-001
-6.141700e-001
-5.987811e-001
-5.822043e-001
-5.652317e-001
-5.494805e-001
-5.347442e-001
-5.198734e-001
-5.042752e-001
-4.871162e-001
-4.703561e-001
-4.506022e-001
-3.701979e-001
-2.559019e-001
-1.519162e-001
-4.718719e-002
5.572805e-002
1.567490e-001
2.572754e-001
3.507993e-001
4.841026e-001
6.679617e-001
7.855442e-001
8.640521e-001
9.480210e-001
1.027822e+000
1.105830e+000
1.181841e+000
1.254148e+000
1.328505e+000
1.358750e+000
1.331289e+000
1.305487e+000
1.280573e+000
1.255660e+000
1.231001e+000
1.206943e+000
1.183006e+000
1.158710e+000
1.135036e+000
1.112019e+000
1.088924e+000
1.066118e+000
1.043835e+000
1.022701e+000
1.001003e+000
9.789571e-001
9.581233e-001
9.390391e-001
9.191714e-001
8.991037e-001
8.807169e-001
8.634097e-001
8.451318e-001
8.265174e-001
8.087693e-001
7.922120e-001
7.748945e-001
7.563412e-001
7.395897e-001
7.240300e-001
7.073827e-001
6.908469e-001
6.754735e-001
6.601485e-001
6.445358e-001
6.283083e-001
6.131779e-001
5.992536e-001
5.848567e-001
5.697104e-001
5.554775e-001
5.411589e-001
5.264332e-001
5.105508e-001
4.949398e-001
4.201311e-001
3.058342e-001
1.996306e-001
9.417234e-002
-8.112586e-003
-1.090119e-001
-2.112872e-001
-3.050622e-001
-4.345359e-001
-6.222166e-001
-7.458330e-001
-8.249614e-001
-9.086455e-001
-9.894406e-001
-1.069578e+000
-1.146997e+000
-1.218348e+000
-1.293924e+000
-1.328318e+000
-1.300256e+000
-1.272564e+000
-1.246871e+000
-1.221778e+000
-1.196354e+000
-1.170387e+000
-1.145588e+000
-1.121952e+000
-1.098392e+000
-1.074909e+000
-1.051953e+000
-1.030364e+000
-1.008691e+000
-9.865841e-001
-9.650888e-001
-9.449314e-001
-9.246604e-001
-9.040406e-001
-8.835239e-001
-8.641893e-001
-8.462103e-001
-8.268129e-001
-8.065552e-001
-7.876502e-001
-7.700418e-001
-7.510130e-001
-7.318085e-001
-7.141946e-001
-6.981351e-001
-6.813129e-001
-6.628882e-001
-6.455432e-001
-6.298655e-001
-6.133374e-001
-5.955980e-001
-5.802858e-001
-5.659153e-001
-5.500585e-001
-5.339167e-001
-5.193218e-001
-5.051866e-001
-4.903075e-001
-4.748099e-001
-4.602266e-001
-4.472753e-001
-3.682638e-001
-2.498937e-001
-1.448622e-001
-4.014878e-002
6.374882e-002
1.652236e-001
2.658984e-001
3.571954e-001
4.893429e-001
6.832100e-001
8.047798e-001
8.816802e-001
9.672359e-001
1.049944e+000
1.129725e+000
1.207175e+000
1.281089e+000
1.359886e+000
1.394026e+000
1.363531e+000
1.337115e+000
1.311938e+000
1.286023e+000
1.260237e+000
1.235445e+000
1.210928e+000
1.185955e+000
1.161015e+000
1.137301e+000
1.113728e+000
1.089102e+000
1.065729e+000
1.043489e+000
1.020667e+000
9.975954e-001
9.752398e-001
9.538613e-001
9.327689e-001
9.104880e-001
8.895489e-001
8.702951e-001
8.505953e-001
8.303519e-001
8.106187e-001
7.922085e-001
7.737843e-001
7.544313e-001
7.360912e-001
7.194883e-001
7.022754e-001
6.847842e-001
6.679816e-001
6.521281e-001
6.365332e-001
6.203518e-001
6.046378e-001
5.903188e-001
5.754642e-001
5.601418e-001
5.458120e-001
5.314619e-001
5.161614e-001
4.999788e-001
4.852996e-001
4.089151e-001
2.940884e-001
1.894301e-001
8.546808e-002
-1.630749e-002
-1.169419e-001
-2.189525e-001
-3.112844e-001
-4.408654e-001
-6.308564e-001
-7.524026e-001
-8.307391e-001
-9.154373e-001
-9.967075e-001
-1.077419e+000
-1.156262e+000
-1.229361e+000
-1.307249e+000
-1.342844e+000
-1.315241e+000
-1.290108e+000
-1.265644e+000
-1.242411e+000
-1.219923e+000
-1.195596e+000
-1.170582e+000
-1.146444e+000
-1.122792e+000
-1.099228e+000
-1.075753e+000
-1.053389e+000
-1.032932e+000
-1.011492e+000
-9.883797e-001
-9.671370e-001
-9.467962e-001
-9.254079e-001
-9.044139e-001
-8.849277e-001
-8.669700e-001
-8.487027e-001
-8.287257e-001
-8.093562e-001
-7.916778e-001
-7.727715e-001
-7.538448e-001
-7.371713e-001
-7.215749e-001
-7.050344e-001
-6.871617e-001
-6.693438e-001
-6.531321e-001
-6.375322e-001
-6.210678e-001
-6.059385e-001
-5.920443e-001
-5.771054e-001
-5.611840e-001
-5.463866e-001
-5.330721e-001
-5.198525e-001
-5.052043e-001
-4.900351e-001
-4.750404e-001
-4.001305e-001
-2.853327e-001
-1.801902e-001
-7.691809e-002
2.490670e-002
1.256185e-001
2.268845e-001
3.200976e-001
4.503425e-001
6.371888e-001
7.607562e-001
8.390358e-001
9.231646e-001
1.005040e+000
1.085618e+000
1.163670e+000
1.236388e+000
1.312340e+000
1.346827e+000
1.319831e+000
1.293470e+000
1.269020e+000
1.243498e+000
1.218832e+000
1.193266e+000
1.167893e+000
1.143204e+000
1.118462e+000
1.094315e+000
1.070612e+000
1.045198e+000
1.021041e+000
9.986793e-001
9.754359e-001
9.525739e-001
9.305130e-001
9.089207e-001
8.881166e-001
8.673178e-001
8.467317e-001
8.282167e-001
8.085516e-001
7.880216e-001
7.685961e-001
7.503487e-001
7.324217e-001
7.153930e-001
6.982067e-001
6.811637e-001
6.640276e-001
6.461334e-001
6.301311e-001
6.149165e-001
5.993643e-001
5.838473e-001
5.692171e-001
5.538102e-001
5.380525e-001
5.223101e-001
5.081411e-001
4.946723e-001
4.795618e-001
4.634824e-001
4.463232e-001
3.682503e-001
2.533787e-001
1.483972e-001
4.404134e-002
-5.686725e-002
-1.563661e-001
-2.568809e-001
-3.494658e-001
-4.799613e-001
-6.646376e-001
-7.819229e-001
-8.591117e-001
-9.416153e-001
-1.019714e+000
-1.097419e+000
-1.173314e+000
-1.243695e+000
-1.317709e+000
-1.349144e+000
-1.320896e+000
-1.296002e+000
-1.270943e+000
-1.245933e+000
-1.222438e+000
-1.198691e+000
-1.175413e+000
-1.154255e+000
-1.132874e+000
-1.111600e+000
-1.091390e+000
-1.070323e+000
-1.049991e+000
-1.031134e+000
-1.010720e+000
-9.900151e-001
-9.704295e-001
-9.499553e-001
-9.302414e-001
-9.113123e-001
-8.914338e-001
-8.724336e-001
-8.534136e-001
-8.324861e-001
-8.130140e-001
-7.946899e-001
-7.754418e-001
-7.566187e-001
-7.375320e-001
-7.178546e-001
-6.983898e-001
-6.784862e-001
-6.594900e-001
-6.423262e-001
-6.247697e-001
-6.066938e-001
-5.887022e-001
-5.714240e-001
-5.540401e-001
-5.362009e-001
-5.189519e-001
-5.023902e-001
-4.859113e-001
-4.689137e-001
-4.533885e-001
-3.799327e-001
-2.699324e-001
-1.688813e-001
-6.740599e-002
3.138830e-002
1.275636e-001
2.244538e-001
3.120661e-001
4.350264e-001
6.161414e-001
7.328982e-001
8.083524e-001
8.903101e-001
9.681728e-001
1.044350e+000
1.118285e+000
1.187635e+000
1.262891e+000
1.298605e+000
1.273796e+000
1.251893e+000
1.231330e+000
1.209633e+000
1.187173e+000
1.164669e+000
1.143507e+000
1.121636e+000
1.100183e+000
1.079579e+000
1.059178e+000
1.037949e+000
1.016412e+000
9.953457e-001
9.748923e-001
9.542194e-001
9.332847e-001
9.138995e-001
8.938533e-001
8.729501e-001
8.526524e-001
8.341017e-001
8.153658e-001
7.962957e-001
7.773149e-001
7.595026e-001
7.418016e-001
7.230460e-001
7.054287e-001
6.893941e-001
6.735906e-001
6.566579e-001
6.399323e-001
6.242415e-001
6.087799e-001
5.927312e-001
5.771777e-001
5.629324e-001
5.486298e-001
5.334416e-001
5.182008e-001
5.036373e-001
4.885171e-001
4.724564e-001
4.541504e-001
3.754150e-001
2.618077e-001
1.572403e-001
5.236769e-002
-4.918352e-002
-1.487492e-001
-2.492446e-001
-3.428899e-001
-4.751557e-001
-6.604219e-001
-7.781021e-001
-8.569367e-001
-9.414868e-001
-1.021580e+000
-1.099970e+000
-1.176126e+000
-1.248146e+000
-1.322925e+000
-1.354176e+000
-1.325691e+000
-1.300682e+000
-1.275704e+000
-1.249957e+000
-1.224368e+000
-1.199714e+000
-1.176356e+000
-1.153016e+000
-1.128806e+000
-1.104646e+000
-1.080816e+000
-1.057041e+000
-1.034243e+000
-1.012040e+000
-9.904483e-001
-9.698024e-001
-9.484098e-001
-9.272974e-001
-9.067280e-001
-8.865844e-001
-8.678228e-001
-8.489630e-001
-8.302564e-001
-8.126451e-001
-7.951808e-001
-7.776118e-001
-7.607824e-001
-7.433157e-001
-7.266517e-001
-7.107005e-001
-6.938993e-001
-6.780543e-001
-6.621378e-001
-6.464008e-001
-6.307061e-001
-6.147397e-001
-5.991174e-001
-5.842026e-001
-5.688838e-001
-5.541425e-001
-5.400124e-001
-5.251315e-001
-5.094536e-001
-4.932822e-001
-4.791151e-001
-4.022829e-001
-2.862528e-001
-1.818420e-001
-7.776101e-002
2.508405e-002
1.260612e-001
2.275699e-001
3.186446e-001
4.483051e-001
6.392323e-001
7.608240e-001
8.382394e-001
9.241591e-001
1.005836e+000
1.085458e+000
1.163458e+000
1.236348e+000
1.314786e+000
1.349812e+000
1.321264e+000
1.296621e+000
1.272795e+000
1.247165e+000
1.222593e+000
1.197936e+000
1.172987e+000
1.147805e+000
1.122426e+000
1.099519e+000
1.076603e+000
1.051085e+000
1.026560e+000
1.003208e+000
9.791945e-001
9.554085e-001
9.321929e-001
9.104312e-001
8.898812e-001
8.674408e-001
8.460876e-001
8.263804e-001
8.062236e-001
7.862122e-001
7.667099e-001
7.484719e-001
7.312696e-001
7.141547e-001
6.967826e-001
6.805493e-001
6.636109e-001
6.469080e-001
6.307321e-001
6.155957e-001
6.015795e-001
5.870263e-001
5.710166e-001
5.552304e-001
5.407535e-001
5.258628e-001
5.111683e-001
4.976554e-001
4.846317e-001
4.696066e-001
4.534621e-001
3.759281e-001
2.616231e-001
1.573131e-001
5.120164e-002
-5.213397e-002
-1.518835e-001
-2.535511e-001
-3.476584e-001
-4.782345e-001
-6.667772e-001
-7.882698e-001
-8.676599e-001
-9.537778e-001
-1.034844e+000
-1.114042e+000
-1.192322e+000
-1.265016e+000
-1.341228e+000
-1.376712e+000
-1.350022e+000
-1.324660e+000
-1.299747e+000
-1.274296e+000
-1.248965e+000
-1.224441e+000
-1.200306e+000
-1.177121e+000
-1.154919e+000
-1.131562e+000
-1.108531e+000
-1.086115e+000
-1.063663e+000
-1.042395e+000
-1.022278e+000
-1.001541e+000
-9.812295e-001
-9.603843e-001
-9.395514e-001
-9.206108e-001
-9.014012e-001
-8.815946e-001
-8.629027e-001
-8.442473e-001
-8.254709e-001
-8.069960e-001
-7.876838e-001
-7.703916e-001
-7.537503e-001
-7.355197e-001
-7.172802e-001
-7.003623e-001
-6.839157e-001
-6.669726e-001
-6.497865e-001
-6.340524e-001
-6.195640e-001
-6.038763e-001
-5.884403e-001
-5.733112e-001
-5.584660e-001
-5.433307e-001
-5.273414e-001
-5.120392e-001
-4.919335e-001
-4.091329e-001
-2.929786e-001
-1.881275e-001
-8.192601e-002
2.183564e-002
1.230153e-001
2.232942e-001
3.189676e-001
4.572901e-001
6.436394e-001
7.595501e-001
8.380360e-001
9.243105e-001
1.004958e+000
1.083226e+000
1.159809e+000
1.233541e+000
1.307479e+000
1.334491e+000
1.304034e+000
1.278672e+000
1.252958e+000
1.226708e+000
1.202263e+000
1.178112e+000
1.153841e+000
1.129169e+000
1.105130e+000
1.082127e+000
1.059355e+000
1.037048e+000
1.016370e+000
9.953107e-001
9.739862e-001
9.525478e-001
9.317540e-001
9.122230e-001
8.926402e-001
8.735705e-001
8.553113e-001
8.360070e-001
8.162557e-001
7.974470e-001
7.782812e-001
7.606270e-001
7.433537e-001
7.255739e-001
7.080548e-001
6.902021e-001
6.717173e-001
6.544837e-001
6.384457e-001
6.224742e-001
6.075995e-001
5.920352e-001
5.760357e-001
5.608537e-001
5.460992e-001
5.316842e-001
5.184999e-001
5.048746e-001
4.901160e-001
4.753164e-001
4.599391e-001
3.833536e-001
2.702636e-001
1.666547e-001
6.214199e-002
-3.925181e-002
-1.387838e-001
-2.391682e-001
-3.300022e-001
-4.596080e-001
-6.473411e-001
-7.672270e-001
-8.460909e-001
-9.303061e-001
-1.009444e+000
-1.087576e+000
-1.163446e+000
-1.234443e+000
-1.311092e+000
-1.344816e+000
-1.316196e+000
-1.289694e+000
-1.263295e+000
-1.237028e+000
-1.211551e+000
-1.186530e+000
-1.162049e+000
-1.137927e+000
-1.113291e+000
-1.088771e+000
-1.065026e+000
-1.041751e+000
-1.018944e+000
-9.969031e-001
-9.749661e-001
-9.537621e-001
-9.324721e-001
-9.107464e-001
-8.902597e-001
-8.708915e-001
-8.509271e-001
-8.306983e-001
-8.111717e-001
-7.926079e-001
-7.736867e-001
-7.537806e-001
-7.350536e-001
-7.181293e-001
-7.006250e-001
-6.820651e-001
-6.647000e-001
-6.484952e-001
-6.312857e-001
-6.131050e-001
-5.966608e-001
-5.822084e-001
-5.673147e-001
-5.508087e-001
-5.350436e-001
-5.204945e-001
-5.055679e-001
-4.899940e-001
-4.753057e-001
-4.613554e-001
-4.467307e-001
-3.681919e-001
-2.514500e-001
-1.462450e-001
-4.089461e-002
6.174787e-002
1.617725e-001
2.624260e-001
3.546940e-001
4.862916e-001
6.769079e-001
7.976818e-001
8.752483e-001
9.599735e-001
1.040433e+000
1.119264e+000
1.197057e+000
1.270519e+000
1.348419e+000
1.382216e+000
1.352946e+000
1.327707e+000
1.303789e+000
1.278004e+000
1.253214e+000
1.230101e+000
1.206381e+000
1.181965e+000
1.158087e+000
1.135708e+000
1.114185e+000
1.091212e+000
1.067481e+000
1.046507e+000
1.025424e+000
1.003217e+000
9.822804e-001
9.624358e-001
9.426844e-001
9.220604e-001
9.009689e-001
8.819784e-001
8.636488e-001
8.442677e-001
8.254845e-001
8.079972e-001
7.904688e-001
7.720993e-001
7.536073e-001
7.369168e-001
7.203097e-001
7.027061e-001
6.858199e-001
6.698833e-001
6.541773e-001
6.373417e-001
6.207127e-001
6.057474e-001
5.907934e-001
5.747710e-001
5.599591e-001
5.449500e-001
5.298376e-001
5.136563e-001
4.912757e-001
4.096723e-001
2.945598e-001
1.888584e-001
8.383439e-002
-1.877601e-002
-1.197825e-001
-2.198597e-001
-3.162905e-001
-4.531790e-001
-6.372292e-001
-7.534911e-001
-8.314826e-001
-9.156211e-001
-9.959952e-001
-1.074742e+000
-1.151323e+000
-1.224173e+000
-1.296612e+000
-1.324192e+000
-1.295110e+000
-1.268412e+000
-1.242714e+000
-1.218246e+000
-1.194224e+000
-1.169680e+000
-1.145432e+000
-1.122164e+000
-1.099636e+000
-1.076163e+000
-1.052744e+000
-1.031566e+000
-1.010909e+000
-9.894268e-001
-9.679233e-001
-9.483588e-001
-9.285493e-001
-9.074315e-001
-8.869201e-001
-8.686070e-001
-8.503220e-001
-8.304700e-001
-8.102104e-001
-7.922971e-001
-7.751028e-001
-7.549056e-001
-7.356815e-001
-7.185620e-001
-7.016282e-001
-6.832127e-001
-6.643248e-001
-6.474762e-001
-6.326860e-001
-6.148748e-001
-5.960670e-001
-5.804644e-001
-5.650837e-001
-5.488160e-001
-5.324944e-001
-5.171278e-001
-5.030894e-001
-4.884927e-001
-4.717168e-001
-4.567623e-001
-4.432050e-001
-3.660575e-001
-2.503356e-001
-1.457245e-001
-4.077959e-002
6.185214e-002
1.623162e-001
2.632287e-001
3.545178e-001
4.856789e-001
6.761474e-001
7.970759e-001
8.750829e-001
9.607838e-001
1.041607e+000
1.120407e+000
1.197512e+000
1.270982e+000
1.348895e+000
1.382626e+000
1.354405e+000
1.329558e+000
1.304570e+000
1.278084e+000
1.252332e+000
1.228203e+000
1.204159e+000
1.179093e+000
1.155254e+000
1.131978e+000
1.107947e+000
1.083458e+000
1.060021e+000
1.038225e+000
1.016717e+000
9.939939e-001
9.727008e-001
9.519867e-001
9.302046e-001
9.092117e-001
8.891254e-001
8.696770e-001
8.504624e-001
8.307734e-001
8.114410e-001
7.937008e-001
7.751420e-001
7.566124e-001
7.395202e-001
7.222707e-001
7.052582e-001
6.882308e-001
6.706956e-001
6.544419e-001
6.388990e-001
6.226549e-001
6.070215e-001
5.922180e-001
5.771172e-001
5.618501e-001
5.460522e-001
5.319788e-001
5.181765e-001
5.022555e-001
4.875582e-001
4.111563e-001
2.963414e-001
1.913589e-001
8.623801e-002
-1.477482e-002
-1.126985e-001
-2.143788e-001
-3.071899e-001
-4.367115e-001
-6.273872e-001
-7.499729e-001
-8.293376e-001
-9.140875e-001
-9.942092e-001
-1.074729e+000
-1.154854e+000
-1.228328e+000
-1.306532e+000
-1.343134e+000
-1.316568e+000
-1.291422e+000
-1.265929e+000
-1.242279e+000
-1.220249e+000
-1.197162e+000
-1.173198e+000
-1.150011e+000
-1.127385e+000
-1.104444e+000
-1.080260e+000
-1.057214e+000
-1.036077e+000
-1.014567e+000
-9.925008e-001
-9.715891e-001
-9.517980e-001
-9.314988e-001
-9.104297e-001
-8.899385e-001
-8.705658e-001
-8.512549e-001
-8.320054e-001
-8.132388e-001
-7.952529e-001
-7.763348e-001
-7.570326e-001
-7.387207e-001
-7.210439e-001
-7.034838e-001
-6.860116e-001
-6.692277e-001
-6.530287e-001
-6.357391e-001
-6.185583e-001
-6.031948e-001
-5.869724e-001
-5.706176e-001
-5.554749e-001
-5.404659e-001
-5.257971e-001
-5.102079e-001
-4.945539e-001
-4.793919e-001
-4.304236e-001
-3.291304e-001
-2.178235e-001
-1.131092e-001
-8.167211e-003
9.437577e-002
1.953640e-001
2.918870e-001
4.061757e-001
5.708294e-001
7.264020e-001
8.233318e-001
9.054216e-001
9.896667e-001
1.069834e+000
1.148454e+000
1.224732e+000
1.300995e+000
1.355767e+000
1.355405e+000
1.327093e+000
1.302635e+000
1.277735e+000
1.252773e+000
1.229195e+000
1.205492e+000
1.182144e+000
1.158936e+000
1.135537e+000
1.113536e+000
1.092083e+000
1.069322e+000
1.046998e+000
1.026102e+000
1.005397e+000
9.854177e-001
9.648741e-001
9.450057e-001
9.264881e-001
9.064764e-001
8.852708e-001
8.665381e-001
8.486784e-001
8.304579e-001
8.119641e-001
7.939211e-001
7.764407e-001
7.582049e-001
7.393673e-001
7.221186e-001
7.062149e-001
6.890968e-001
6.722151e-001
6.557395e-001
6.396831e-001
6.229774e-001
6.070497e-001
5.918808e-001
5.769387e-001
5.616785e-001
5.463378e-001
5.318255e-001
5.170714e-001
5.007186e-001
4.833381e-001
4.092941e-001
2.953508e-001
1.884207e-001
8.324851e-002
-1.878719e-002
-1.178713e-001
-2.190557e-001
-3.145753e-001
-4.443915e-001
-6.294315e-001
-7.558420e-001
-8.372228e-001
-9.204121e-001
-1.001024e+000
-1.081454e+000
-1.161824e+000
-1.235669e+000
-1.311341e+000
-1.348060e+000
-1.324457e+000
-1.297604e+000
-1.272087e+000
-1.248799e+000
-1.227364e+000
-1.204265e+000
-1.179566e+000
-1.156993e+000
-1.134764e+000
-1.111652e+000
-1.087892e+000
-1.065997e+000
-1.046270e+000
-1.025712e+000
-1.002856e+000
-9.819087e-001
-9.627468e-001
-9.423867e-001
-9.212281e-001
-9.004111e-001
-8.822225e-001
-8.633955e-001
-8.425398e-001
-8.227680e-001
-8.054051e-001
-7.874361e-001
-7.685280e-001
-7.496225e-001
-7.323637e-001
-7.160573e-001
-6.984749e-001
-6.813319e-001
-6.660061e-001
-6.501213e-001
-6.328153e-001
-6.156816e-001
-5.996274e-001
-5.847039e-001
-5.698261e-001
-5.549368e-001
-5.400285e-001
-5.245730e-001
-5.073923e-001
-4.904260e-001
-4.757031e-001
-3.988616e-001
-2.828797e-001
-1.781815e-001
-7.270043e-002
3.110028e-002
1.320473e-001
2.331746e-001
3.238474e-001
4.528997e-001
6.433788e-001
7.643736e-001
8.413812e-001
9.263515e-001
1.006605e+000
1.084596e+000
1.160345e+000
1.231423e+000
1.308386e+000
1.341987e+000
1.311928e+000
1.285279e+000
1.258864e+000
1.232280e+000
1.205829e+000
1.179811e+000
1.155711e+000
1.130976e+000
1.105665e+000
1.081905e+000
1.058166e+000
1.034290e+000
1.011779e+000
9.894896e-001
9.679351e-001
9.461815e-001
9.240297e-001
9.028822e-001
8.824125e-001
8.619877e-001
8.421436e-001
8.232140e-001
8.042507e-001
7.848400e-001
7.653344e-001
7.471790e-001
7.282646e-001
7.092028e-001
6.907373e-001
6.732943e-001
6.557525e-001
6.374333e-001
6.192407e-001
6.022823e-001
5.855655e-001
5.674301e-001
5.514021e-001
5.366697e-001
5.205466e-001
5.029893e-001
4.861146e-001
4.694682e-001
4.531986e-001
4.352154e-001
4.146028e-001
3.355602e-001
2.193937e-001
1.120583e-001
7.269013e-003
-9.469980e-002
-1.957606e-001
-2.972432e-001
-3.925489e-001
-5.262452e-001
-7.122111e-001
-8.321603e-001
-9.107632e-001
-9.942816e-001
-1.075807e+000
-1.156645e+000
-1.234456e+000
-1.307002e+000
-1.382220e+000
-1.414072e+000
-1.386487e+000
-1.361523e+000
-1.338177e+000
-1.315550e+000
-1.292672e+000
-1.269215e+000
-1.246261e+000
-1.224768e+000
-1.203318e+000
-1.180439e+000
-1.158754e+000
-1.137500e+000
-1.115759e+000
-1.094270e+000
-1.072802e+000
-1.051806e+000
-1.031722e+000
-1.010129e+000
-9.878645e-001
-9.678772e-001
-9.481682e-001
-9.278073e-001
-9.078134e-001
-8.889929e-001
-8.706471e-001
-8.513581e-001
-8.316458e-001
-8.139356e-001
-7.979818e-001
-7.809870e-001
-7.634066e-001
-7.482464e-001
-7.334202e-001
-7.172607e-001
-7.010820e-001
-6.872083e-001
-6.742977e-001
-6.599218e-001
-6.445098e-001
-6.307905e-001
-6.179551e-001
-6.026595e-001
-5.871188e-001
-5.724336e-001
-5.581999e-001
-4.833177e-001
-3.686698e-001
-2.628902e-001
-1.588058e-001
-5.617276e-002
4.516487e-002
1.456379e-001
2.377692e-001
3.669012e-001
5.533123e-001
6.771320e-001
7.564489e-001
8.390922e-001
9.195605e-001
9.980795e-001
1.073710e+000
1.144976e+000
1.219731e+000
1.253006e+000
1.225254e+000
1.196560e+000
1.169660e+000
1.143554e+000
1.116255e+000
1.089301e+000
1.062411e+000
1.035299e+000
1.008637e+000
9.832187e-001
9.581278e-001
9.333992e-001
9.090024e-001
8.843563e-001
8.601351e-001
8.363501e-001
8.137649e-001
7.922087e-001
7.709335e-001
7.490655e-001
7.284312e-001
7.090893e-001
6.887448e-001
6.694554e-001
6.516509e-001
6.343810e-001
6.172705e-001
5.995750e-001
5.824770e-001
5.677887e-001
5.525459e-001
5.358710e-001
5.208385e-001
5.063029e-001
4.912106e-001
4.759864e-001
4.610166e-001
4.471154e-001
4.329830e-001
4.173981e-001
4.017119e-001
3.867971e-001
3.721138e-001
3.564519e-001
3.424699e-001
2.670734e-001
1.524088e-001
4.766394e-002
-5.715493e-002
-1.593950e-001
-2.584676e-001
-3.587734e-001
-4.517759e-001
-5.816603e-001
-7.713110e-001
-8.940081e-001
-9.734990e-001
-1.059034e+000
-1.139974e+000
-1.220173e+000
-1.300086e+000
-1.374493e+000
-1.452494e+000
-1.489795e+000
-1.465103e+000
-1.441614e+000
-1.417984e+000
-1.394987e+000
-1.372768e+000
-1.348952e+000
-1.324804e+000
-1.301643e+000
-1.279198e+000
-1.255872e+000
-1.231554e+000
-1.208438e+000
-1.187175e+000
-1.164638e+000
-1.141763e+000
-1.120798e+000
-1.100296e+000
-1.079469e+000
-1.057474e+000
-1.036728e+000
-1.018167e+000
-9.986774e-001
-9.773846e-001
-9.587735e-001
-9.408779e-001
-9.227724e-001
-9.042072e-001
-8.860072e-001
-8.696931e-001
-8.524668e-001
-8.342836e-001
-8.180645e-001
-8.032218e-001
-7.864015e-001
-7.702672e-001
-7.549219e-001
-7.401908e-001
-7.245045e-001
-7.082037e-001
-6.936650e-001
-6.797634e-001
-6.638722e-001
-6.473087e-001
-6.320996e-001
-6.176371e-001
-5.390800e-001
-4.215831e-001
-3.160122e-001
-2.110846e-001
-1.070253e-001
-5.291532e-003
9.641163e-002
1.891231e-001
3.206824e-001
5.123188e-001
6.340711e-001
7.125618e-001
7.983708e-001
8.797950e-001
9.588002e-001
1.037453e+000
1.110662e+000
1.187709e+000
1.222524e+000
1.195554e+000
1.171437e+000
1.147227e+000
1.122503e+000
1.098976e+000
1.076218e+000
1.052846e+000
1.029943e+000
1.008256e+000
9.875145e-001
9.654263e-001
9.431208e-001
9.219063e-001
9.013130e-001
8.814806e-001
8.609319e-001
8.401075e-001
8.211456e-001
8.023149e-001
7.820701e-001
7.628211e-001
7.440266e-001
7.264279e-001
7.091189e-001
6.896667e-001
6.717788e-001
6.550175e-001
6.372683e-001
6.195364e-001
6.030660e-001
5.874574e-001
5.720411e-001
5.553296e-001
5.396528e-001
5.263293e-001
5.121300e-001
4.981397e-001
4.844715e-001
4.710453e-001
4.574018e-001
4.436994e-001
4.312249e-001
4.198856e-001
4.070799e-001
3.946737e-001
3.217888e-001
2.097077e-001
1.075470e-001
6.413413e-003
-9.101666e-002
-1.862253e-001
-2.838087e-001
-3.727848e-001
-4.977889e-001
-6.829527e-001
-8.015335e-001
-8.760754e-001
-9.561553e-001
-1.032195e+000
-1.108146e+000
-1.183118e+000
-1.250857e+000
-1.324107e+000
-1.357803e+000
-1.326875e+000
-1.297805e+000
-1.270489e+000
-1.243467e+000
-1.217439e+000
-1.190612e+000
-1.163348e+000
-1.138758e+000
-1.113335e+000
-1.086502e+000
-1.061777e+000
-1.036933e+000
-1.011734e+000
-9.867762e-001
-9.618286e-001
-9.381137e-001
-9.145458e-001
-8.899019e-001
-8.672045e-001
-8.450072e-001
-8.217493e-001
-7.993739e-001
-7.780344e-001
-7.569962e-001
-7.358720e-001
-7.141545e-001
-6.940341e-001
-6.752955e-001
-6.546636e-001
-6.349152e-001
-6.173247e-001
-5.998586e-001
-5.813002e-001
-5.629854e-001
-5.455990e-001
-5.283854e-001
-5.099141e-001
-4.917993e-001
-4.753983e-001
-4.584782e-001
-4.414070e-001
-4.233981e-001
-4.052500e-001
-3.863261e-001
-3.688618e-001
-2.900354e-001
-1.726505e-001
-6.539079e-002
4.144499e-002
1.460211e-001
2.496056e-001
3.539857e-001
4.482887e-001
5.797449e-001
7.724955e-001
8.963089e-001
9.752496e-001
1.061450e+000
1.145081e+000
1.226761e+000
1.306360e+000
1.380511e+000
1.459581e+000
1.495513e+000
1.467903e+000
1.443811e+000
1.421649e+000
1.398581e+000
1.374642e+000
1.350436e+000
1.326437e+000
1.302438e+000
1.278701e+000
1.256972e+000
1.235194e+000
1.212625e+000
1.189648e+000
1.167323e+000
1.145311e+000
1.123588e+000
1.101344e+000
1.079876e+000
1.059208e+000
1.037327e+000
1.015083e+000
9.941223e-001
9.738447e-001
9.524380e-001
9.309025e-001
9.103400e-001
8.908963e-001
8.704926e-001
8.491052e-001
8.288983e-001
8.092649e-001
7.888010e-001
7.688828e-001
7.504730e-001
7.327847e-001
7.141911e-001
6.945540e-001
6.761806e-001
6.591579e-001
6.412555e-001
6.246664e-001
6.090478e-001
5.923647e-001
5.750656e-001
5.565879e-001
4.984345e-001
4.125042e-001
3.296095e-001
2.473317e-001
1.676313e-001
8.867966e-002
9.806232e-003
-6.316090e-002
-1.596000e-001
-2.942884e-001
-3.878240e-001
-4.371212e-001
-4.170922e-001
-3.561187e-001
-3.008534e-001
-2.427747e-001
-1.830024e-001
-1.256908e-001
-3.990472e-002
9.110797e-002
2.770314e-001
5.101788e-001
6.695519e-001
7.861211e-001
9.039183e-001
1.016858e+000
1.126942e+000
1.233940e+000
1.338407e+000
1.436575e+000
1.477093e+000
1.454133e+000
1.429475e+000
1.403599e+000
1.380181e+000
1.355812e+000
1.332776e+000
1.313179e+000
1.312645e+000
1.342028e+000
1.376335e+000
1.355334e+000
1.236730e+000
1.094786e+000
1.001023e+000
9.446169e-001
9.167506e-001
9.332902e-001
9.610110e-001
9.340471e-001
8.108105e-001
6.836001e-001
6.923713e-001
7.692793e-001
8.175216e-001
8.442895e-001
8.616823e-001
8.428519e-001
7.968741e-001
7.792633e-001
8.593226e-001
1.002281e+000
1.113010e+000
1.186118e+000
1.245654e+000
1.298683e+000
1.339658e+000
1.375799e+000
1.414807e+000
1.456592e+000
1.496450e+000
1.535728e+000
1.570753e+000
1.598944e+000
1.617851e+000
1.623026e+000
1.614767e+000
1.593275e+000
1.555625e+000
1.503900e+000
1.439725e+000
1.362339e+000
1.273894e+000
1.173711e+000
1.065169e+000
9.498123e-001
8.303934e-001
7.107061e-001
5.941004e-001
4.830963e-001
3.807315e-001
2.880806e-001
2.066572e-001
1.388241e-001
8.308262e-002
4.153170e-002
1.098898e-002
-1.063679e-002
-2.499119e-002
-3.440234e-002
-4.148779e-002
-4.701356e-002
-5.125520e-002
-5.460197e-002
-5.653046e-002
-5.996790e-002
-6.423081e-002
-6.889843e-002
-7.519778e-002
-8.389266e-002
-9.306497e-002
-1.022135e-001
-1.106616e-001
-1.199727e-001
-1.316855e-001
-1.423618e-001
-1.524347e-001
-1.637871e-001
-1.742244e-001
-1.827327e-001
-1.905841e-001
-1.976500e-001
-2.054614e-001
-2.123702e-001
-2.167588e-001
-2.217536e-001
-2.277635e-001
-2.318091e-001
-2.361026e-001
-2.410504e-001
-2.451045e-001
-2.494104e-001
-2.525646e-001
-2.561323e-001
-2.607537e-001
-2.645868e-001
-2.663616e-001
-2.692493e-001
-2.719493e-001
-2.739266e-001
-2.755135e-001
-2.746159e-001
-2.720754e-001
-2.694786e-001
-2.663329e-001
-2.640350e-001
-2.653352e-001
-2.664846e-001
-2.687027e-001
-2.704846e-001
-2.702767e-001
-2.735173e-001
-2.799400e-001
-2.857904e-001
-2.940875e-001
-3.022654e-001
-3.083918e-001
-3.158130e-001
-3.214945e-001
-3.240605e-001
-3.056110e-001
-2.501258e-001
-1.908052e-001
-1.900682e-001
-2.935693e-001
-4.246054e-001
-5.053029e-001
-5.521293e-001
-5.686511e-001
-5.320095e-001
-4.839348e-001
-5.014942e-001
-6.202601e-001
-7.464381e-001
-7.280743e-001
-6.396262e-001
-5.838287e-001
-5.411184e-001
-5.074943e-001
-5.212970e-001
-5.653691e-001
-5.756277e-001
-4.838758e-001
-3.215105e-001
-1.918148e-001
-9.728470e-002
-1.311499e-002
5.870211e-002
1.177654e-001
1.746532e-001
2.320715e-001
2.899311e-001
3.476125e-001
4.021560e-001
4.495691e-001
4.854178e-001
5.104412e-001
5.235514e-001
5.216000e-001
5.062915e-001
4.785116e-001
4.386480e-001
3.849698e-001
3.167341e-001
2.372900e-001
1.499171e-001
5.567139e-002
-4.211549e-002
-1.406241e-001
-2.383681e-001
-3.333370e-001
-4.234931e-001
-5.033525e-001
-5.707460e-001
-6.255615e-001
-6.671758e-001
-6.964046e-001
-7.161197e-001
-7.274400e-001
-7.328227e-001
-7.326888e-001
-7.280212e-001
-7.226576e-001
-7.154961e-001
-7.074071e-001
-6.990543e-001
-6.913782e-001
-6.837816e-001
-6.775382e-001
-6.719107e-001
-6.678683e-001
-6.654952e-001
-6.632873e-001
-6.618011e-001
-6.613242e-001
-6.608862e-001
-6.603280e-001
-6.612519e-001
-6.623272e-001
-6.634032e-001
-6.636721e-001
-6.633454e-001
-6.636848e-001
-6.634216e-001
-6.613647e-001
-6.600111e-001
-6.598074e-001
-6.584743e-001
-6.555309e-001
-6.527942e-001
-6.516070e-001
-6.504319e-001
-6.470811e-001
-6.438106e-001
-6.416711e-001
-6.391273e-001
-6.323979e-001
-6.233266e-001
-6.163273e-001
-6.099667e-001
-6.018673e-001
-5.957494e-001
-5.912681e-001
-5.895764e-001
-5.868157e-001
-5.802991e-001
-5.773611e-001
-5.773772e-001
-5.762372e-001
-5.759259e-001
-5.767825e-001
-5.762445e-001
-5.770848e-001
-5.730922e-001
-5.594592e-001
-5.171414e-001
-4.535106e-001
-4.024620e-001
-4.377785e-001
-5.441439e-001
-6.278057e-001
-6.602970e-001
-6.720572e-001
-6.575774e-001
-6.085874e-001
-5.776425e-001
-6.260673e-001
-7.545409e-001
-8.033539e-001
-7.287999e-001
-6.477119e-001
-6.167143e-001
-5.906741e-001
-5.779205e-001
-6.030711e-001
-6.384220e-001
-6.123111e-001
-4.901797e-001
-3.571904e-001
-2.698699e-001
-2.056896e-001
-1.367725e-001
-7.594975e-002
-2.358437e-002
2.783171e-002
8.042352e-002
1.340269e-001
1.875328e-001
2.375885e-001
2.813128e-001
3.168154e-001
3.442365e-001
3.624645e-001
3.693857e-001
3.645092e-001
3.480931e-001
3.204284e-001
2.802937e-001
2.282450e-001
1.677998e-001
1.008742e-001
2.844068e-002
-4.849085e-002
-1.275072e-001
-2.050095e-001
-2.804154e-001
-3.523632e-001
-4.160417e-001
-4.685676e-001
-5.115803e-001
-5.447301e-001
-5.691518e-001
-5.849012e-001
-5.932215e-001
-5.965716e-001
-5.956032e-001
-5.892054e-001
-5.796250e-001
-5.699553e-001
-5.592473e-001
-5.487026e-001
-5.386926e-001
-5.296095e-001
-5.208051e-001
-5.124072e-001
-5.035693e-001
-4.970032e-001
-4.926035e-001
-4.884504e-001
-4.846918e-001
-4.822907e-001
-4.798671e-001
-4.762190e-001
-4.723535e-001
-4.693785e-001
-4.680477e-001
-4.661286e-001
-4.627021e-001
-4.587619e-001
-4.557839e-001
-4.515681e-001
-4.462139e-001
-4.420006e-001
-4.394950e-001
-4.357431e-001
-4.301226e-001
-4.239582e-001
-4.188758e-001
-4.144767e-001
-4.087482e-001
-4.029624e-001
-3.952874e-001
-3.847170e-001
-3.735010e-001
-3.632800e-001
-3.551213e-001
-3.497806e-001
-3.434063e-001
-3.389523e-001
-3.347600e-001
-3.259691e-001
-3.204622e-001
-3.191099e-001
-3.177744e-001
-3.180199e-001
-3.172352e-001
-3.144430e-001
-3.145268e-001
-3.093740e-001
-2.880840e-001
-2.376862e-001
-1.724024e-001
-1.290241e-001
-1.813441e-001
-2.912778e-001
-3.671681e-001
-3.972495e-001
-4.040864e-001
-3.715429e-001
-3.130051e-001
-2.901325e-001
-3.536571e-001
-4.823337e-001
-5.043977e-001
-4.173380e-001
-3.405858e-001
-3.032143e-001
-2.659395e-001
-2.602089e-001
-2.937920e-001
-3.233664e-001
-2.772872e-001
-1.387264e-001
-7.212213e-003
7.945806e-002
1.491922e-001
2.204809e-001
2.777915e-001
3.305719e-001
3.879616e-001
4.493967e-001
5.106675e-001
5.699050e-001
6.260603e-001
6.764779e-001
7.177958e-001
7.476690e-001
7.663287e-001
7.738924e-001
7.667048e-001
7.452017e-001
7.105878e-001
6.634249e-001
6.045783e-001
5.346717e-001
4.554663e-001
3.700179e-001
2.796586e-001
1.864412e-001
9.399251e-002
5.680751e-003
-5.218705e-002
-1.100152e-001
-1.757723e-001
-2.265059e-001
-2.661469e-001
-2.952214e-001
-3.135519e-001
-3.259214e-001
-3.128163e-001
-2.872844e-001
-3.048307e-001
-3.112776e-001
-2.983796e-001
-2.886955e-001
-2.771804e-001
-2.648043e-001
-2.546189e-001
-2.430996e-001
-2.502386e-001
-2.656507e-001
-2.592256e-001
-2.547749e-001
-2.511017e-001
-2.465207e-001
-2.435669e-001
-2.427743e-001
-2.419221e-001
-2.406240e-001
-2.391816e-001
-2.385394e-001
-2.378416e-001
-2.361738e-001
-2.343696e-001
-2.326156e-001
-2.306473e-001
-2.280006e-001
-2.231064e-001
-2.186065e-001
-2.159078e-001
-2.121847e-001
-2.081504e-001
-2.043506e-001
-2.001194e-001
-1.945580e-001
-1.842043e-001
-1.718261e-001
-1.639744e-001
-1.567290e-001
-1.502745e-001
-1.461871e-001
-1.426785e-001
-1.397332e-001
-1.340979e-001
-1.276478e-001
-1.267572e-001
-1.282550e-001
-1.294323e-001
-1.327363e-001
-1.325337e-001
-1.314137e-001
-1.307139e-001
-1.202438e-001
-8.121926e-002
-1.450753e-002
5.048541e-002
4.102739e-002
-6.757026e-002
-1.859499e-001
-2.582050e-001
-2.936347e-001
-2.888762e-001
-2.402819e-001
-1.950328e-001
-2.215884e-001
-3.498745e-001
-4.508264e-001
-4.118254e-001
-3.179276e-001
-2.521503e-001
-2.060116e-001
-1.786088e-001
-1.943086e-001
-2.342047e-001
-2.282302e-001
-1.141241e-001
5.056517e-002
1.812779e-001
2.759684e-001
3.586863e-001
4.319875e-001
4.919799e-001
5.509976e-001
6.131425e-001
6.749912e-001
7.359869e-001
7.965790e-001
8.541944e-001
9.035869e-001
9.422436e-001
9.701919e-001
9.854856e-001
9.857325e-001
9.705499e-001
9.432956e-001
9.045418e-001
8.511194e-001
7.829050e-001
7.047795e-001
6.177707e-001
5.228814e-001
4.236686e-001
3.234762e-001
2.264074e-001
1.325436e-001
4.354195e-002
-3.477142e-002
-9.940494e-002
-1.536418e-001
-1.965311e-001
-2.264418e-001
-2.454327e-001
-2.561596e-001
-2.614796e-001
-2.606235e-001
-2.540281e-001
-2.462079e-001
-2.393469e-001
-2.295463e-001
-2.182751e-001
-2.085239e-001
-2.006081e-001
-1.932541e-001
-1.856151e-001
-1.799518e-001
-1.769109e-001
-1.739476e-001
-1.707023e-001
-1.701855e-001
-1.717319e-001
-1.726060e-001
-1.726105e-001
-1.731287e-001
-1.742865e-001
-1.750580e-001
-1.745153e-001
-1.739307e-001
-1.747985e-001
-1.745952e-001
-1.720320e-001
-1.697880e-001
-1.679831e-001
-1.661648e-001
-1.639974e-001
-1.611256e-001
-1.593477e-001
-1.576645e-001
-1.537738e-001
-1.499883e-001
-1.466720e-001
-1.428713e-001
-1.373218e-001
-1.285582e-001
-1.198697e-001
-1.114401e-001
-1.032832e-001
-9.827212e-002
-9.258953e-002
-9.009616e-002
-9.077845e-002
-8.552346e-002
-7.992477e-002
-7.823946e-002
-7.713814e-002
-7.904711e-002
-7.871651e-002
-7.668283e-002
-8.175348e-002
-7.994611e-002
-5.719446e-002
-8.452927e-003
5.171442e-002
8.751790e-002
2.977487e-002
-9.031724e-002
-1.868625e-001
-2.350497e-001
-2.515361e-001
-2.314945e-001
-1.857201e-001
-1.682560e-001
-2.343851e-001
-3.651396e-001
-4.006238e-001
-3.229408e-001
-2.407472e-001
-1.980593e-001
-1.611876e-001
-1.471907e-001
-1.702857e-001
-1.938396e-001
-1.434587e-001
-6.222160e-005
1.461964e-001
2.493948e-001
3.290620e-001
4.075042e-001
4.727253e-001
5.284373e-001
5.767334e-001
6.290962e-001
6.891561e-001
7.480745e-001
8.030468e-001
8.525045e-001
8.934306e-001
9.255717e-001
9.394828e-001
9.369790e-001
9.366555e-001
9.217133e-001
8.860318e-001
8.376765e-001
7.777849e-001
7.070481e-001
6.265236e-001
5.367822e-001
4.485550e-001
3.608069e-001
2.654580e-001
1.726151e-001
8.499824e-002
6.338937e-003
-6.146333e-002
-1.193026e-001
-1.653039e-001
-1.989756e-001
-2.216152e-001
-2.346003e-001
-2.408083e-001
-2.421948e-001
-2.385735e-001
-2.327615e-001
-2.262531e-001
-2.175314e-001
-2.079759e-001
-1.987075e-001
-1.903272e-001
-1.828162e-001
-1.765071e-001
-1.716297e-001
-1.675757e-001
-1.636044e-001
-1.605216e-001
-1.590301e-001
-1.579835e-001
-1.571214e-001
-1.560268e-001
-1.556084e-001
-1.554760e-001
-1.540692e-001
-1.528676e-001
-1.522201e-001
-1.510527e-001
-1.493535e-001
-1.472479e-001
-1.432360e-001
-1.410177e-001
-1.388603e-001
-1.353704e-001
-1.333855e-001
-1.298803e-001
-1.225094e-001
-1.139567e-001
-1.051283e-001
-9.783975e-002
-9.457998e-002
-9.054598e-002
-8.771789e-002
-8.737915e-002
-8.269907e-002
-7.659789e-002
-7.537530e-002
-7.629897e-002
-7.777723e-002
-7.928500e-002
-7.976219e-002
-8.071221e-002
-8.031453e-002
-7.543156e-002
-5.711834e-002
-9.281531e-003
4.885545e-002
7.640020e-002
2.196344e-002
-7.490239e-002
-1.394374e-001
-1.602792e-001
-1.657002e-001
-1.414550e-001
-9.583347e-002
-9.074343e-002
-1.618509e-001
-2.696061e-001
-2.829324e-001
-2.067986e-001
-1.428448e-001
-1.250962e-001
-1.053892e-001
-1.048577e-001
-1.373542e-001
-1.599091e-001
-1.126229e-001
6.293156e-003
1.157782e-001
1.838575e-001
2.388365e-001
3.042662e-001
3.589537e-001
4.061889e-001
4.537024e-001
5.036976e-001
5.534087e-001
6.004950e-001
6.460351e-001
6.872236e-001
7.197081e-001
7.420941e-001
7.543027e-001
7.546756e-001
7.438040e-001
7.217867e-001
6.889988e-001
6.469420e-001
5.938907e-001
5.311724e-001
4.621541e-001
3.868859e-001
3.080331e-001
2.297619e-001
1.526551e-001
7.851739e-002
1.042904e-002
-4.974410e-002
-9.999034e-002
-1.413856e-001
-1.732784e-001
-1.943279e-001
-2.068322e-001
-2.138207e-001
-2.157125e-001
-2.122871e-001
-2.057987e-001
-1.981603e-001
-1.902024e-001
-1.812209e-001
-1.713298e-001
-1.631087e-001
-1.570501e-001
-1.506271e-001
-1.447994e-001
-1.404930e-001
-1.377143e-001
-1.358467e-001
-1.334050e-001
-1.313846e-001
-1.317986e-001
-1.321247e-001
-1.311612e-001
-1.310524e-001
-1.312212e-001
-1.317955e-001
-1.305991e-001
-1.290362e-001
-1.295463e-001
-1.293386e-001
-1.271586e-001
-1.256399e-001
-1.245871e-001
-1.228100e-001
-1.209853e-001
-1.184758e-001
-1.147552e-001
-1.080476e-001
-9.945293e-002
-9.321990e-002
-8.959370e-002
-8.637506e-002
-8.336304e-002
-8.198931e-002
-7.991742e-002
-7.422148e-002
-7.046344e-002
-7.112169e-002
-7.400968e-002
-7.615464e-002
-7.756030e-002
-7.796292e-002
-7.891675e-002
-7.804187e-002
-7.263939e-002
-4.876467e-002
7.978506e-003
7.112934e-002
8.676072e-002
1.242178e-002
-9.329050e-002
-1.612076e-001
-1.880593e-001
-1.896839e-001
-1.550336e-001
-1.092285e-001
-1.175215e-001
-2.118127e-001
-3.185485e-001
-3.121441e-001
-2.285555e-001
-1.619008e-001
-1.313006e-001
-1.110830e-001
-1.195661e-001
-1.551611e-001
-1.670235e-001
-9.516836e-002
4.248853e-002
1.628476e-001
2.428621e-001
3.077206e-001
3.759294e-001
4.367231e-001
4.922959e-001
5.475729e-001
6.054401e-001
6.640040e-001
7.195386e-001
7.704636e-001
8.152665e-001
8.515378e-001
8.768643e-001
8.891726e-001
8.887043e-001
8.753379e-001
8.486294e-001
8.104525e-001
7.599897e-001
6.974502e-001
6.255270e-001
5.451668e-001
4.573120e-001
3.657957e-001
2.734283e-001
1.836816e-001
9.821873e-002
1.790988e-002
-5.241458e-002
-1.112058e-001
-1.595909e-001
-1.963625e-001
-2.209055e-001
-2.359968e-001
-2.437197e-001
-2.462037e-001
-2.448880e-001
-2.396738e-001
-2.324791e-001
-2.246397e-001
-2.155110e-001
-2.061028e-001
-1.977835e-001
-1.897979e-001
-1.828596e-001
-1.769918e-001
-1.720173e-001
-1.689174e-001
-1.667667e-001
-1.652089e-001
-1.647831e-001
-1.648970e-001
-1.654537e-001
-1.659503e-001
-1.664220e-001
-1.682772e-001
-1.694715e-001
-1.689283e-001
-1.686943e-001
-1.682598e-001
-1.673901e-001
-1.662300e-001
-1.643381e-001
-1.635414e-001
-1.634700e-001
-1.615756e-001
-1.591472e-001
-1.576322e-001
-1.558819e-001
-1.515876e-001
-1.443605e-001
-1.369803e-001
-1.309909e-001
-1.250335e-001
-1.209036e-001
-1.188148e-001
-1.166857e-001
-1.152200e-001
-1.108767e-001
-1.066194e-001
-1.072884e-001
-1.096725e-001
-1.122467e-001
-1.160964e-001
-1.163585e-001
-1.162008e-001
-1.171813e-001
-1.146708e-001
-1.048834e-001
-6.605465e-002
-3.231821e-004
5.195105e-002
4.852693e-003
-1.212221e-001
-2.271997e-001
-2.751044e-001
-2.969517e-001
-2.869573e-001
-2.339948e-001
-1.961271e-001
-2.538471e-001
-4.008112e-001
-4.552636e-001
-3.752073e-001
-2.803709e-001
-2.363067e-001
-1.964545e-001
-1.733542e-001
-1.961297e-001
-2.321431e-001
-1.927679e-001
-4.502838e-002
1.139992e-001
2.249963e-001
3.076324e-001
3.917775e-001
4.625540e-001
5.221597e-001
5.823436e-001
6.464029e-001
7.083904e-001
7.672681e-001
8.228059e-001
8.702671e-001
9.053266e-001
9.269330e-001
9.356473e-001
9.330671e-001
9.154738e-001
8.825198e-001
8.385423e-001
7.819942e-001
7.107570e-001
6.282759e-001
5.389054e-001
4.445548e-001
3.464517e-001
2.467935e-001
1.499217e-001
5.864237e-002
-2.681074e-002
-1.022910e-001
-1.631834e-001
-2.105034e-001
-2.457414e-001
-2.686501e-001
-2.812777e-001
-2.870063e-001
-2.873267e-001
-2.832004e-001
-2.750398e-001
-2.653284e-001
-2.550713e-001
-2.444315e-001
-2.335422e-001
-2.234143e-001
-2.156258e-001
-2.086279e-001
-2.018524e-001
-1.972134e-001
-1.945636e-001
-1.932697e-001
-1.930302e-001
-1.932882e-001
-1.944325e-001
-1.970443e-001
-1.988053e-001
-2.000626e-001
-2.020763e-001
-2.040987e-001
-2.056797e-001
-2.060920e-001
-2.061933e-001
-2.060560e-001
-2.052178e-001
-2.032168e-001
-2.018330e-001
-2.002193e-001
-1.982271e-001
-1.958298e-001
-1.932652e-001
-1.909278e-001
-1.873717e-001
-1.833324e-001
-1.811142e-001
-1.792999e-001
-1.744410e-001
-1.672165e-001
-1.587024e-001
-1.499334e-001
-1.408810e-001
-1.317325e-001
-1.270368e-001
-1.241133e-001
-1.201974e-001
-1.151241e-001
-1.093893e-001
-1.064727e-001
-1.057753e-001
-1.053214e-001
-1.077824e-001
-1.110843e-001
-1.103932e-001
-1.108606e-001
-1.098799e-001
-1.019047e-001
-6.589042e-002
5.994322e-004
6.128052e-002
2.444913e-002
-1.059761e-001
-2.217163e-001
-2.779284e-001
-3.062686e-001
-2.966681e-001
-2.362488e-001
-1.852417e-001
-2.291385e-001
-3.812500e-001
-4.575419e-001
-3.801303e-001
-2.783537e-001
-2.248427e-001
-1.711507e-001
-1.410618e-001
-1.641075e-001
-2.043613e-001
-1.759422e-001
-2.854621e-002
1.458457e-001
2.694088e-001
3.626883e-001
4.509056e-001
5.224988e-001
5.874107e-001
6.523544e-001
7.181543e-001
7.825369e-001
8.437373e-001
8.983486e-001
9.422136e-001
9.742362e-001
9.966012e-001
1.004411e+000
9.963551e-001
9.750189e-001
9.393972e-001
8.883906e-001
8.230852e-001
7.465565e-001
6.621903e-001
5.707213e-001
4.709784e-001
3.681655e-001
2.665274e-001
1.667440e-001
7.168876e-002
-1.253831e-002
-8.349686e-002
-1.425437e-001
-1.903948e-001
-2.260686e-001
-2.497045e-001
-2.640148e-001
-2.711040e-001
-2.719077e-001
-2.672264e-001
-2.592010e-001
-2.512117e-001
-2.420671e-001
-2.310752e-001
-2.207063e-001
-2.121321e-001
-2.045722e-001
-1.975722e-001
-1.904714e-001
-1.852788e-001
-1.829854e-001
-1.802147e-001
-1.774404e-001
-1.773274e-001
-1.794614e-001
-1.796613e-001
-1.792378e-001
-1.803523e-001
-1.822818e-001
-1.829558e-001
-1.819871e-001
-1.820296e-001
-1.833071e-001
-1.826110e-001
-1.799727e-001
-1.791201e-001
-1.783069e-001
-1.753737e-001
-1.720685e-001
-1.696227e-001
-1.677962e-001
-1.649913e-001
-1.616994e-001
-1.568350e-001
-1.486608e-001
-1.384569e-001
-1.294497e-001
-1.225054e-001
-1.179005e-001
-1.139953e-001
-1.099019e-001
-1.075553e-001
-1.012499e-001
-9.461245e-002
-9.371485e-002
-9.492677e-002
-9.618481e-002
-9.809540e-002
-9.742189e-002
-9.746974e-002
-9.811865e-002
-9.317559e-002
-7.096806e-002
-1.710140e-002
4.382889e-002
4.940965e-002
-3.237356e-002
-1.343728e-001
-1.960560e-001
-2.240103e-001
-2.293293e-001
-1.913913e-001
-1.386754e-001
-1.499981e-001
-2.525454e-001
-3.500001e-001
-3.294614e-001
-2.476801e-001
-1.931878e-001
-1.608104e-001
-1.303752e-001
-1.387754e-001
-1.792294e-001
-1.868623e-001
-1.047967e-001
3.217904e-002
1.425767e-001
2.175237e-001
2.847937e-001
3.481977e-001
3.983423e-001
4.464940e-001
4.971654e-001
5.502452e-001
6.024596e-001
6.518711e-001
6.979637e-001
7.383768e-001
7.706441e-001
7.931682e-001
8.050889e-001
8.061807e-001
7.938487e-001
7.678742e-001
7.307969e-001
6.835269e-001
6.269460e-001
5.612222e-001
4.878478e-001
4.106047e-001
3.294231e-001
2.455046e-001
1.634164e-001
8.641912e-002
1.714583e-002
-4.529870e-002
-9.918333e-002
-1.413952e-001
-1.729623e-001
-1.969401e-001
-2.126289e-001
-2.201766e-001
-2.208807e-001
-2.188194e-001
-2.160842e-001
-2.087844e-001
-1.997562e-001
-1.920047e-001
-1.852972e-001
-1.778338e-001
-1.704700e-001
-1.656004e-001
-1.627258e-001
-1.583474e-001
-1.536292e-001
-1.524338e-001
-1.519176e-001
-1.506545e-001
-1.492117e-001
-1.498495e-001
-1.511771e-001
-1.504023e-001
-1.491305e-001
-1.492724e-001
-1.497565e-001
-1.484067e-001
-1.471922e-001
-1.469125e-001
-1.468485e-001
-1.444465e-001
-1.416413e-001
-1.399934e-001
-1.383313e-001
-1.337158e-001
-1.259959e-001
-1.189468e-001
-1.125351e-001
-1.058073e-001
-1.012610e-001
-9.888032e-002
-9.837135e-002
-9.705316e-002
-9.106466e-002
-8.712295e-002
-8.721332e-002
-8.731261e-002
-8.872044e-002
-9.146537e-002
-9.191936e-002
-9.260879e-002
-9.018216e-002
-7.402282e-002
-2.775295e-002
3.377823e-002
7.610191e-002
3.205088e-002
-7.486589e-002
-1.555065e-001
-1.842408e-001
-1.941382e-001
-1.721011e-001
-1.198869e-001
-1.000630e-001
-1.592278e-001
-2.843079e-001
-3.238139e-001
-2.465650e-001
-1.663609e-001
-1.402237e-001
-1.137579e-001
-1.085457e-001
-1.430558e-001
-1.760301e-001
-1.422915e-001
-1.992237e-002
1.067168e-001
1.867584e-001
2.442397e-001
3.094127e-001
3.630645e-001
4.119434e-001
4.622513e-001
5.133701e-001
5.649595e-001
6.177866e-001
6.682925e-001
7.122316e-001
7.491594e-001
7.775578e-001
7.958807e-001
8.019601e-001
7.961952e-001
7.793576e-001
7.508766e-001
7.094822e-001
6.567470e-001
5.948137e-001
5.250236e-001
4.497871e-001
3.691781e-001
2.863305e-001
2.038432e-001
1.235710e-001
4.778324e-002
-2.032171e-002
-7.813701e-002
-1.250739e-001
-1.627923e-001
-1.921524e-001
-2.108988e-001
-2.219079e-001
-2.265812e-001
-2.263141e-001
-2.218710e-001
-2.146992e-001
-2.069527e-001
-1.993944e-001
-1.902811e-001
-1.810376e-001
-1.734609e-001
-1.666353e-001
-1.608222e-001
-1.553586e-001
-1.515368e-001
-1.492262e-001
-1.467528e-001
-1.453174e-001
-1.453426e-001
-1.459052e-001
-1.472087e-001
-1.477904e-001
-1.489762e-001
-1.507267e-001
-1.508371e-001
-1.504730e-001
-1.509958e-001
-1.506274e-001
-1.505098e-001
-1.497694e-001
-1.483525e-001
-1.473065e-001
-1.445918e-001
-1.413898e-001
-1.391894e-001
-1.351543e-001
-1.278835e-001
-1.198089e-001
-1.124992e-001
-1.060933e-001
-1.010385e-001
-9.703580e-002
-9.549157e-002
-9.482997e-002
-9.003024e-002
-8.554138e-002
-8.543747e-002
-8.684569e-002
-8.829096e-002
-9.001589e-002
-9.065030e-002
-9.195575e-002
-9.065807e-002
-8.379041e-002
-5.636129e-002
2.725806e-003
6.440006e-002
7.297671e-002
-4.951066e-003
-1.103353e-001
-1.814835e-001
-2.129282e-001
-2.157969e-001
-1.792128e-001
-1.340530e-001
-1.474394e-001
-2.454666e-001
-3.451454e-001
-3.361602e-001
-2.578672e-001
-1.916483e-001
-1.563996e-001
-1.323516e-001
-1.394456e-001
-1.744433e-001
-1.813892e-001
-1.009198e-001
3.855485e-002
1.610050e-001
2.477441e-001
3.195907e-001
3.914909e-001
4.523611e-001
5.077673e-001
5.654527e-001
6.265250e-001
6.869488e-001
7.446572e-001
7.995339e-001
8.484994e-001
8.869195e-001
9.143428e-001
9.304688e-001
9.335563e-001
9.216038e-001
8.949346e-001
8.555919e-001
8.051158e-001
7.418707e-001
6.668946e-001
5.843987e-001
4.953863e-001
4.003477e-001
3.025355e-001
2.070847e-001
1.170473e-001
3.361873e-002
-4.175205e-002
-1.057036e-001
-1.576325e-001
-1.977693e-001
-2.270018e-001
-2.451264e-001
-2.540214e-001
-2.571056e-001
-2.561220e-001
-2.514811e-001
-2.442558e-001
-2.356422e-001
-2.258926e-001
-2.162953e-001
-2.067074e-001
-1.995047e-001
-1.934237e-001
-1.879668e-001
-1.834445e-001
-1.798663e-001
-1.772336e-001
-1.761407e-001
-1.754636e-001
-1.757059e-001
-1.774201e-001
-1.782597e-001
-1.793156e-001
-1.804357e-001
-1.808762e-001
-1.809690e-001
-1.813454e-001
-1.814608e-001
-1.815817e-001
-1.806860e-001
-1.787218e-001
-1.775179e-001
-1.763200e-001
-1.737482e-001
-1.718471e-001
-1.710352e-001
-1.689400e-001
-1.637726e-001
-1.555611e-001
-1.477226e-001
-1.417552e-001
-1.350470e-001
-1.302050e-001
-1.284585e-001
-1.261628e-001
-1.228087e-001
-1.175460e-001
-1.137401e-001
-1.141083e-001
-1.143917e-001
-1.151759e-001
-1.183882e-001
-1.190951e-001
-1.184857e-001
-1.187517e-001
-1.179896e-001
-1.051432e-001
-5.664094e-002
1.048107e-002
5.392233e-002
-3.205937e-003
-1.300483e-001
-2.293302e-001
-2.750860e-001
-2.942523e-001
-2.725807e-001
-2.156672e-001
-1.904309e-001
-2.582186e-001
-4.020784e-001
-4.419917e-001
-3.559625e-001
-2.649619e-001
-2.199823e-001
-1.780332e-001
-1.625438e-001
-1.909452e-001
-2.213437e-001
-1.727138e-001
-2.016556e-002
1.355671e-001
2.432097e-001
3.246479e-001
4.061587e-001
4.725061e-001
5.311162e-001
5.906955e-001
6.535313e-001
7.172328e-001
7.788035e-001
8.358717e-001
8.855804e-001
9.247753e-001
9.527962e-001
9.680060e-001
9.692130e-001
9.567084e-001
9.293639e-001
8.880588e-001
8.325587e-001
7.643188e-001
6.851057e-001
5.967688e-001
5.006626e-001
4.003095e-001
2.988039e-001
1.983131e-001
1.016692e-001
1.179078e-002
-6.719136e-002
-1.345259e-001
-1.898100e-001
-2.326815e-001
-2.627015e-001
-2.819862e-001
-2.927696e-001
-2.969662e-001
-2.954156e-001
-2.902104e-001
-2.834682e-001
-2.750573e-001
-2.656826e-001
-2.556944e-001
-2.460481e-001
-2.379010e-001
-2.319398e-001
-2.269447e-001
-2.243341e-001
-2.224073e-001
-2.204956e-001
-2.197624e-001
-2.200077e-001
-2.205174e-001
-2.221895e-001
-2.245888e-001
-2.266521e-001
-2.287248e-001
-2.289685e-001
-2.293807e-001
-2.303390e-001
-2.301682e-001
-2.289599e-001
-2.278848e-001
-2.269786e-001
-2.253251e-001
-2.227287e-001
-2.199945e-001
-2.179385e-001
-2.154778e-001
-2.124283e-001
-2.099376e-001
-2.083531e-001
-2.037802e-001
-1.952888e-001
-1.869509e-001
-1.790790e-001
-1.718204e-001
-1.669028e-001
-1.628715e-001
-1.616911e-001
-1.603754e-001
-1.540952e-001
-1.504637e-001
-1.506483e-001
-1.510213e-001
-1.528671e-001
-1.548701e-001
-1.555892e-001
-1.578100e-001
-1.562729e-001
-1.500048e-001
-1.227145e-001
-6.212814e-002
4.672880e-004
1.501218e-002
-6.383974e-002
-1.770892e-001
-2.504958e-001
-2.806985e-001
-2.834132e-001
-2.444969e-001
-1.971598e-001
-2.061229e-001
-3.016348e-001
-4.146647e-001
-4.094170e-001
-3.234992e-001
-2.553759e-001
-2.221301e-001
-1.970143e-001
-2.059548e-001
-2.453152e-001
-2.600755e-001
-1.858696e-001
-4.215486e-002
8.165751e-002
1.642522e-001
2.317026e-001
3.000433e-001
3.536602e-001
4.005966e-001
4.514610e-001
5.061579e-001
5.602280e-001
6.118695e-001
6.604505e-001
7.050751e-001
7.415878e-001
7.664241e-001
7.815203e-001
7.861584e-001
7.765025e-001
7.530007e-001
7.172561e-001
6.707832e-001
6.142945e-001
5.471891e-001
4.720323e-001
3.918016e-001
3.060267e-001
2.175852e-001
1.309742e-001
4.886977e-002
-2.720640e-002
-9.493640e-002
-1.529755e-001
-2.006895e-001
-2.382426e-001
-2.656995e-001
-2.825597e-001
-2.906915e-001
-2.932184e-001
-2.916967e-001
-2.862647e-001
-2.793841e-001
-2.724446e-001
-2.644195e-001
-2.553875e-001
-2.467847e-001
-2.401685e-001
-2.354574e-001
-2.311838e-001
-2.277306e-001
-2.259727e-001
-2.235408e-001
-2.213166e-001
-2.211924e-001
-2.222059e-001
-2.240290e-001
-2.246761e-001
-2.250401e-001
-2.260939e-001
-2.255395e-001
-2.236776e-001
-2.236321e-001
-2.235138e-001
-2.224435e-001
-2.205769e-001
-2.178250e-001
-2.164093e-001
-2.137702e-001
-2.095354e-001
-2.065792e-001
-2.042164e-001
-1.986609e-001
-1.902709e-001
-1.818620e-001
-1.751133e-001
-1.691807e-001
-1.636246e-001
-1.592169e-001
-1.574416e-001
-1.554420e-001
-1.492251e-001
-1.449412e-001
-1.457133e-001
-1.476563e-001
-1.493695e-001
-1.507891e-001
-1.511771e-001
-1.523882e-001
-1.505963e-001
-1.426725e-001
-1.130830e-001
-5.441283e-002
5.925373e-003
8.250759e-003
-7.155768e-002
-1.644492e-001
-2.179628e-001
-2.362262e-001
-2.316815e-001
-1.926000e-001
-1.499981e-001
-1.705665e-001
-2.749015e-001
-3.619673e-001
-3.361986e-001
-2.580867e-001
-2.060566e-001
-1.851358e-001
-1.700753e-001
-1.865122e-001
-2.292560e-001
-2.358288e-001
-1.554796e-001
-2.954338e-002
6.985301e-002
1.345390e-001
1.924655e-001
2.535300e-001
3.017532e-001
3.470981e-001
3.957920e-001
4.468907e-001
4.984448e-001
5.478598e-001
5.944175e-001
6.354119e-001
6.671821e-001
6.903311e-001
7.050572e-001
7.088146e-001
6.996867e-001
6.781880e-001
6.455074e-001
6.021254e-001
5.477467e-001
4.851488e-001
4.168777e-001
3.423293e-001
2.630333e-001
1.815109e-001
1.017335e-001
2.674094e-002
-4.289850e-002
-1.049143e-001
-1.562213e-001
-1.982562e-001
-2.312419e-001
-2.546220e-001
-2.696230e-001
-2.761928e-001
-2.776680e-001
-2.761016e-001
-2.702406e-001
-2.628904e-001
-2.550051e-001
-2.459531e-001
-2.368850e-001
-2.285031e-001
-2.218336e-001
-2.174124e-001
-2.126468e-001
-2.089185e-001
-2.068869e-001
-2.045977e-001
-2.030813e-001
-2.022107e-001
-2.030548e-001
-2.049026e-001
-2.057617e-001
-2.060506e-001
-2.070946e-001
-2.069806e-001
-2.069653e-001
-2.069337e-001
-2.068577e-001
-2.069375e-001
-2.054715e-001
-2.034469e-001
-2.021254e-001
-2.000953e-001
-1.974742e-001
-1.957101e-001
-1.935612e-001
-1.911588e-001
-1.876238e-001
-1.823183e-001
-1.754925e-001
-1.675888e-001
-1.586827e-001
-1.509663e-001
-1.470447e-001
-1.445622e-001
-1.414701e-001
-1.390325e-001
-1.351610e-001
-1.315389e-001
-1.304033e-001
-1.305355e-001
-1.324781e-001
-1.367580e-001
-1.371398e-001
-1.363646e-001
-1.366148e-001
-1.334764e-001
-1.116907e-001
-5.542520e-002
8.530026e-003
2.432698e-002
-5.490299e-002
-1.657755e-001
-2.389387e-001
-2.704837e-001
-2.767823e-001
-2.407345e-001
-1.862095e-001
-1.884967e-001
-2.842047e-001
-3.971923e-001
-3.902132e-001
-3.034815e-001
-2.320824e-001
-1.958371e-001
-1.641141e-001
-1.657532e-001
-2.017022e-001
-2.135106e-001
-1.363804e-001
1.033902e-002
1.389148e-001
2.282327e-001
3.010157e-001
3.762467e-001
4.393821e-001
4.982254e-001
5.579030e-001
6.189997e-001
6.807133e-001
7.403391e-001
7.943965e-001
8.401744e-001
8.768251e-001
9.011854e-001
9.119538e-001
9.084084e-001
8.915515e-001
8.615281e-001
8.180172e-001
7.609858e-001
6.923018e-001
6.136718e-001
5.260821e-001
4.316161e-001
3.342477e-001
2.365333e-001
1.404843e-001
4.959099e-002
-3.278554e-002
-1.050714e-001
-1.663691e-001
-2.148650e-001
-2.505011e-001
-2.748491e-001
-2.906893e-001
-2.976263e-001
-2.975693e-001
-2.944113e-001
-2.897026e-001
-2.818960e-001
-2.714609e-001
-2.610374e-001
-2.521931e-001
-2.432634e-001
-2.339708e-001
-2.278210e-001
-2.241405e-001
-2.203426e-001
-2.165198e-001
-2.140940e-001
-2.137571e-001
-2.146680e-001
-2.152389e-001
-2.168292e-001
-2.197974e-001
-2.216839e-001
-2.218932e-001
-2.223854e-001
-2.233091e-001
-2.242119e-001
-2.247297e-001
-2.245931e-001
-2.244922e-001
-2.240627e-001
-2.218979e-001
-2.191145e-001
-2.182969e-001
-2.176616e-001
-2.158641e-001
-2.137748e-001
-2.117027e-001
-2.096760e-001
-2.066718e-001
-2.031242e-001
-2.015737e-001
-2.006381e-001
-1.969536e-001
-1.893961e-001
-1.802865e-001
-1.721471e-001
-1.639362e-001
-1.566978e-001
-1.539535e-001
-1.511139e-001
-1.481399e-001
-1.442122e-001
-1.386240e-001
-1.375841e-001
-1.390832e-001
-1.401569e-001
-1.441089e-001
-1.471922e-001
-1.462610e-001
-1.476321e-001
-1.454968e-001
-1.205058e-001
-6.184455e-002
2.903181e-003
5.121683e-003
-9.834033e-002
-2.269237e-001
-3.117167e-001
-3.572653e-001
-3.682580e-001
-3.283290e-001
-2.723237e-001
-2.830662e-001
-3.991144e-001
-5.149018e-001
-4.943070e-001
-3.999779e-001
-3.240565e-001
-2.742312e-001
-2.345934e-001
-2.363718e-001
-2.727816e-001
-2.747352e-001
-1.726579e-001
-4.116087e-003
1.393019e-001
2.425964e-001
3.268994e-001
4.047580e-001
4.678544e-001
5.282455e-001
5.909005e-001
6.543599e-001
7.196056e-001
7.830345e-001
8.402567e-001
8.897016e-001
9.287813e-001
9.565333e-001
9.714425e-001
9.695360e-001
9.540219e-001
9.251161e-001
8.792227e-001
8.192054e-001
7.472773e-001
6.643166e-001
5.722874e-001
4.727394e-001
3.693225e-001
2.667177e-001
1.639367e-001
6.453187e-002
-2.556575e-002
-1.045490e-001
-1.718610e-001
-2.261782e-001
-2.656842e-001
-2.923057e-001
-3.089233e-001
-3.182258e-001
-3.196835e-001
-3.155584e-001
-3.087144e-001
-2.999203e-001
-2.886250e-001
-2.765810e-001
-2.661257e-001
-2.569593e-001
-2.488983e-001
-2.414150e-001
-2.367951e-001
-2.327994e-001
-2.288163e-001
-2.263737e-001
-2.259342e-001
-2.264778e-001
-2.277050e-001
-2.288179e-001
-2.304450e-001
-2.325623e-001
-2.321350e-001
-2.321224e-001
-2.331366e-001
-2.335366e-001
-2.327962e-001
-2.312293e-001
-2.296769e-001
-2.286968e-001
-2.260775e-001
-2.220266e-001
-2.201336e-001
-2.185494e-001
-2.160221e-001
-2.123053e-001
-2.091859e-001
-2.072251e-001
-2.042581e-001
-1.990960e-001
-1.951312e-001
-1.935024e-001
-1.897216e-001
-1.848587e-001
-1.785171e-001
-1.702249e-001
-1.604329e-001
-1.498272e-001
-1.397908e-001
-1.354126e-001
-1.309526e-001
-1.254494e-001
-1.229148e-001
-1.174526e-001
-1.111965e-001
-1.082190e-001
-1.076697e-001
-1.093128e-001
-1.124592e-001
-1.110702e-001
-1.117090e-001
-1.119729e-001
-1.045018e-001
-7.397025e-002
-1.185976e-002
5.138757e-002
4.782211e-002
-5.148025e-002
-1.649567e-001
-2.357155e-001
-2.702038e-001
-2.747188e-001
-2.338959e-001
-1.832494e-001
-2.029580e-001
-3.224800e-001
-4.239007e-001
-3.923199e-001
-3.040004e-001
-2.411995e-001
-2.010990e-001
-1.696588e-001
-1.779624e-001
-2.177136e-001
-2.186888e-001
-1.179128e-001
3.756646e-002
1.628788e-001
2.519621e-001
3.289426e-001
4.011100e-001
4.596578e-001
5.144555e-001
5.697690e-001
6.274144e-001
6.865425e-001
7.423511e-001
7.925103e-001
8.364708e-001
8.728755e-001
8.989915e-001
9.120289e-001
9.114646e-001
8.989842e-001
8.732593e-001
8.332604e-001
7.805001e-001
7.177337e-001
6.449978e-001
5.628475e-001
4.745176e-001
3.833269e-001
2.909664e-001
1.993229e-001
1.117712e-001
3.178588e-002
-3.825175e-002
-9.817860e-002
-1.472624e-001
-1.846839e-001
-2.100640e-001
-2.274168e-001
-2.373885e-001
-2.400799e-001
-2.371905e-001
-2.312482e-001
-2.241308e-001
-2.161188e-001
-2.058895e-001
-1.959223e-001
-1.889418e-001
-1.814729e-001
-1.740625e-001
-1.679892e-001
-1.640759e-001
-1.604437e-001
-1.571125e-001
-1.550371e-001
-1.550326e-001
-1.545779e-001
-1.537389e-001
-1.539613e-001
-1.540094e-001
-1.534126e-001
-1.526739e-001
-1.529104e-001
-1.532376e-001
-1.520685e-001
-1.502474e-001
-1.502303e-001
-1.488910e-001
-1.460001e-001
-1.443175e-001
-1.436087e-001
-1.423025e-001
-1.401659e-001
-1.377749e-001
-1.365390e-001
-1.313604e-001
-1.224011e-001
-1.155194e-001
-1.100611e-001
-1.047539e-001
-1.005989e-001
-9.708499e-002
-9.700017e-002
-9.469572e-002
-8.754742e-002
-8.576914e-002
-8.756912e-002
-8.801816e-002
-8.935233e-002
-9.100901e-002
-9.256115e-002
-9.490852e-002
-9.179357e-002
-8.166488e-002
-4.510883e-002
1.792919e-002
7.506647e-002
5.003817e-002
-5.514489e-002
-1.459047e-001
-1.868247e-001
-2.021885e-001
-1.937661e-001
-1.506937e-001
-1.147187e-001
-1.549855e-001
-2.858550e-001
-3.513719e-001
-2.878817e-001
-2.060799e-001
-1.696409e-001
-1.483878e-001
-1.344051e-001
-1.550948e-001
-1.963944e-001
-1.840169e-001
-6.984292e-002
6.463028e-002
1.544572e-001
2.176021e-001
2.838521e-001
3.470078e-001
3.971929e-001
4.448718e-001
4.960177e-001
5.503723e-001
6.029126e-001
6.530000e-001
7.010813e-001
7.429013e-001
7.750453e-001
7.975387e-001
8.104287e-001
8.116248e-001
7.994449e-001
7.735120e-001
7.370325e-001
6.898482e-001
6.311427e-001
5.633399e-001
4.891260e-001
4.100680e-001
3.269231e-001
2.420098e-001
1.593182e-001
8.204333e-002
1.012080e-002
-5.412203e-002
-1.077719e-001
-1.513080e-001
-1.845284e-001
-2.087714e-001
-2.244167e-001
-2.311490e-001
-2.322424e-001
-2.304819e-001
-2.249065e-001
-2.171536e-001
-2.090245e-001
-2.006871e-001
-1.924300e-001
-1.837106e-001
-1.758116e-001
-1.699877e-001
-1.651490e-001
-1.606610e-001
-1.571865e-001
-1.547842e-001
-1.529759e-001
-1.509212e-001
-1.500720e-001
-1.501207e-001
-1.502977e-001
-1.505658e-001
-1.508102e-001
-1.510310e-001
-1.513426e-001
-1.511518e-001
-1.514405e-001
-1.517278e-001
-1.509057e-001
-1.501735e-001
-1.494165e-001
-1.480339e-001
-1.462716e-001
-1.444958e-001
-1.431851e-001
-1.414719e-001
-1.374701e-001
-1.314405e-001
-1.241498e-001
-1.167833e-001
-1.092764e-001
-1.048703e-001
-1.026209e-001
-9.847360e-002
-9.541485e-002
-9.254027e-002
-8.817921e-002
-8.679398e-002
-8.730584e-002
-8.895410e-002
-9.301886e-002
-9.301581e-002
-9.220818e-002
-9.607432e-002
-9.517011e-002
-7.696987e-002
-2.650682e-002
3.937205e-002
8.354457e-002
3.469123e-002
-8.583724e-002
-1.860734e-001
-2.297654e-001
-2.426575e-001
-2.202772e-001
-1.704202e-001
-1.507877e-001
-2.135935e-001
-3.506881e-001
-3.995025e-001
-3.203354e-001
-2.290854e-001
-1.907257e-001
-1.603711e-001
-1.518714e-001
-1.817914e-001
-2.127255e-001
-1.725647e-001
-3.309177e-002
1.162220e-001
2.168305e-001
2.902703e-001
3.678620e-001
4.323963e-001
4.881991e-001
5.459560e-001
6.061123e-001
6.672411e-001
7.284553e-001
7.870738e-001
8.391303e-001
8.814611e-001
9.126739e-001
9.331055e-001
9.411322e-001
9.341334e-001
9.134314e-001
8.797254e-001
8.314018e-001
7.696426e-001
6.965810e-001
6.142227e-001
5.250733e-001
4.295678e-001
3.308974e-001
2.331850e-001
1.374834e-001
4.728730e-002
-3.310824e-002
-1.024009e-001
-1.603276e-001
-2.064854e-001
-2.406253e-001
-2.623413e-001
-2.751701e-001
-2.815065e-001
-2.816537e-001
-2.775207e-001
-2.711995e-001
-2.634632e-001
-2.536278e-001
-2.424796e-001
-2.320354e-001
-2.235519e-001
-2.158113e-001
-2.090817e-001
-2.039941e-001
-2.004179e-001
-1.973370e-001
-1.950192e-001
-1.947324e-001
-1.954854e-001
-1.958420e-001
-1.964111e-001
-1.972193e-001
-1.981580e-001
-1.985606e-001
-1.985015e-001
-1.985473e-001
-1.982476e-001
-1.961956e-001
-1.942235e-001
-1.929319e-001
-1.909949e-001
-1.886811e-001
-1.857493e-001
-1.828038e-001
-1.805884e-001
-1.770616e-001
-1.724444e-001
-1.698880e-001
-1.668649e-001
-1.603881e-001
-1.512308e-001
-1.420078e-001
-1.350845e-001
-1.281689e-001
-1.218917e-001
-1.189176e-001
-1.173464e-001
-1.140776e-001
-1.078140e-001
-1.036641e-001
-1.038622e-001
-1.047566e-001
-1.054193e-001
-1.081322e-001
-1.087558e-001
-1.084064e-001
-1.074639e-001
-1.038316e-001
-8.063105e-002
-2.168415e-002
4.248023e-002
4.880818e-002
-3.785921e-002
-1.448193e-001
-2.079842e-001
-2.377752e-001
-2.431545e-001
-2.036097e-001
-1.506707e-001
-1.626834e-001
-2.700557e-001
-3.740476e-001
-3.501491e-001
-2.642611e-001
-2.067472e-001
-1.713339e-001
-1.430757e-001
-1.508536e-001
-1.900279e-001
-1.985802e-001
-1.125287e-001
3.096118e-002
1.442591e-001
2.240310e-001
2.939532e-001
3.595846e-001
4.155622e-001
4.670006e-001
5.198220e-001
5.751589e-001
6.297455e-001
6.831878e-001
7.341321e-001
7.769525e-001
8.110594e-001
8.356856e-001
8.471640e-001
8.459370e-001
8.329988e-001
8.073199e-001
7.702994e-001
7.215980e-001
6.620216e-001
5.936064e-001
5.163949e-001
4.322104e-001
3.456265e-001
2.589753e-001
1.723635e-001
8.979080e-002
1.427961e-002
-5.263828e-002
-1.095860e-001
-1.561895e-001
-1.917275e-001
-2.151755e-001
-2.304102e-001
-2.398736e-001
-2.422761e-001
-2.400519e-001
-2.354293e-001
-2.296310e-001
-2.235163e-001
-2.150936e-001
-2.062284e-001
-1.996338e-001
-1.927185e-001
-1.852992e-001
-1.794374e-001
-1.754978e-001
-1.730985e-001
-1.701724e-001
-1.669074e-001
-1.665143e-001
-1.666831e-001
-1.648640e-001
-1.645557e-001
-1.661999e-001
-1.677276e-001
-1.678734e-001
-1.669516e-001
-1.671268e-001
-1.674567e-001
-1.657318e-001
-1.636565e-001
-1.641220e-001
-1.638049e-001
-1.615162e-001
-1.580659e-001
-1.558984e-001
-1.523321e-001
-1.445131e-001
-1.362505e-001
-1.301262e-001
-1.247355e-001
-1.201108e-001
-1.161575e-001
-1.130383e-001
-1.121106e-001
-1.066586e-001
-1.014125e-001
-1.015193e-001
-1.029005e-001
-1.042045e-001
-1.066186e-001
-1.067387e-001
-1.073119e-001
-1.072822e-001
-1.038240e-001
-9.000389e-002
-4.272046e-002
2.183659e-002
6.652262e-002
1.900716e-002
-8.563431e-002
-1.556463e-001
-1.778261e-001
-1.853091e-001
-1.592879e-001
-1.041215e-001
-8.233389e-002
-1.446989e-001
-2.741335e-001
-2.989563e-001
-2.134387e-001
-1.408335e-001
-1.169429e-001
-8.985680e-002
-8.644642e-002
-1.229037e-001
-1.582368e-001
-1.218357e-001
6.074411e-003
1.272199e-001
2.017719e-001
2.597665e-001
3.272551e-001
3.834009e-001
4.349366e-001
4.896079e-001
5.454926e-001
6.012186e-001
6.551587e-001
7.044178e-001
7.459461e-001
7.793590e-001
8.028625e-001
8.158524e-001
8.155120e-001
8.016387e-001
7.758083e-001
7.392955e-001
6.897707e-001
6.283402e-001
5.592695e-001
4.824654e-001
3.990104e-001
3.113371e-001
2.224371e-001
1.356606e-001
5.403806e-002
-2.270266e-002
-8.882914e-002
-1.428241e-001
-1.866325e-001
-2.189874e-001
-2.419826e-001
-2.562416e-001
-2.623078e-001
-2.631641e-001
-2.597570e-001
-2.520469e-001
-2.435336e-001
-2.345395e-001
-2.258135e-001
-2.170427e-001
-2.075856e-001
-2.005218e-001
-1.946318e-001
-1.889235e-001
-1.859407e-001
-1.851110e-001
-1.858364e-001
-1.872994e-001
-1.879004e-001
-1.906449e-001
-1.951416e-001
-1.977126e-001
-2.010618e-001
-2.051061e-001
-2.073892e-001
-2.090207e-001
-2.095611e-001
-2.098808e-001
-2.105750e-001
-2.090969e-001
-2.070379e-001
-2.063752e-001
-2.043711e-001
-2.012973e-001
-1.989543e-001
-1.969812e-001
-1.950402e-001
-1.920518e-001
-1.864686e-001
-1.802042e-001
-1.733316e-001
-1.653879e-001
-1.592234e-001
-1.583055e-001
-1.585053e-001
-1.579261e-001
-1.580688e-001
-1.564297e-001
-1.557091e-001
-1.574255e-001
-1.600667e-001
-1.665434e-001
-1.734465e-001
-1.737849e-001
-1.745303e-001
-1.759837e-001
-1.697771e-001
-1.370018e-001
-7.082286e-002
-7.511140e-003
-2.944825e-002
-1.417498e-001
-2.473868e-001
-2.900148e-001
-3.089601e-001
-3.012333e-001
-2.417350e-001
-1.856840e-001
-2.196352e-001
-3.570312e-001
-4.400869e-001
-3.707049e-001
-2.657142e-001
-2.234950e-001
-1.834832e-001
-1.534398e-001
-1.757591e-001
-2.200490e-001
-2.054427e-001
-8.069296e-002
8.017245e-002
1.884137e-001
2.621118e-001
3.413927e-001
4.090672e-001
4.687387e-001
5.298949e-001
5.924748e-001
6.556068e-001
7.183118e-001
7.775322e-001
8.299629e-001
8.731061e-001
9.043445e-001
9.222162e-001
9.252107e-001
9.129641e-001
8.870716e-001
8.474816e-001
7.946441e-001
7.288275e-001
6.506559e-001
5.625135e-001
4.675333e-001
3.673956e-001
2.651006e-001
1.636297e-001
6.565210e-002
-2.450130e-002
-1.057866e-001
-1.771549e-001
-2.347638e-001
-2.780947e-001
-3.101722e-001
-3.312740e-001
-3.428493e-001
-3.463677e-001
-3.432476e-001
-3.384678e-001
-3.316114e-001
-3.214205e-001
-3.106308e-001
-3.012866e-001
-2.925453e-001
-2.847849e-001
-2.772791e-001
-2.716423e-001
-2.689231e-001
-2.657167e-001
-2.625251e-001
-2.619556e-001
-2.639869e-001
-2.663881e-001
-2.677261e-001
-2.692210e-001
-2.723937e-001
-2.740112e-001
-2.735086e-001
-2.741639e-001
-2.764579e-001
-2.782091e-001
-2.773549e-001
-2.752813e-001
-2.746330e-001
-2.729434e-001
-2.694958e-001
-2.664865e-001
-2.645496e-001
-2.629003e-001
-2.589843e-001
-2.529130e-001
-2.458039e-001
-2.368745e-001
-2.272766e-001
-2.182423e-001
-2.116363e-001
-2.081338e-001
-2.037902e-001
-1.999356e-001
-1.971638e-001
-1.923553e-001
-1.893540e-001
-1.897107e-001
-1.914927e-001
-1.956781e-001
-1.969763e-001
-1.965353e-001
-1.989928e-001
-1.986749e-001
-1.845902e-001
-1.391670e-001
-7.163897e-002
-2.087589e-002
-7.555445e-002
-2.097873e-001
-3.199770e-001
-3.720428e-001
-3.940121e-001
-3.750278e-001
-3.161535e-001
-2.793450e-001
-3.409239e-001
-4.942322e-001
-5.452577e-001
-4.571445e-001
-3.560614e-001
-3.034648e-001
-2.550643e-001
-2.311960e-001
-2.536338e-001
-2.857577e-001
-2.373697e-001
-7.512672e-002
9.764702e-002
2.203954e-001
3.121488e-001
4.046163e-001
4.834109e-001
5.522353e-001
6.210226e-001
6.926729e-001
7.644465e-001
8.348150e-001
8.991996e-001
9.552422e-001
1.001214e+000
1.032489e+000
1.046918e+000
1.045706e+000
1.029768e+000
9.991448e-001
9.525851e-001
8.902524e-001
8.149272e-001
7.260932e-001
6.261513e-001
5.189357e-001
4.081686e-001
2.967996e-001
1.861583e-001
7.996474e-002
-1.673423e-002
-1.022174e-001
-1.757575e-001
-2.344875e-001
-2.787109e-001
-3.095514e-001
-3.298795e-001
-3.405342e-001
-3.417634e-001
-3.381675e-001
-3.323348e-001
-3.239026e-001
-3.133520e-001
-3.023634e-001
-2.916061e-001
-2.821751e-001
-2.723776e-001
-2.637101e-001
-2.590484e-001
-2.555546e-001
-2.524860e-001
-2.509755e-001
-2.509789e-001
-2.511992e-001
-2.524638e-001
-2.539005e-001
-2.557003e-001
-2.586473e-001
-2.601537e-001
-2.613213e-001
-2.632091e-001
-2.640632e-001
-2.635095e-001
-2.634792e-001
-2.621395e-001
-2.602405e-001
-2.581788e-001
-2.546319e-001
-2.525535e-001
-2.502124e-001
-2.457730e-001
-2.403383e-001
-2.334841e-001
-2.245939e-001
-2.161939e-001
-2.076950e-001
-2.038825e-001
-2.022461e-001
-1.976880e-001
-1.943785e-001
-1.908699e-001
-1.866791e-001
-1.852490e-001
-1.856952e-001
-1.887932e-001
-1.944653e-001
-1.945235e-001
-1.946567e-001
-1.965475e-001
-1.942351e-001
-1.757113e-001
-1.252757e-001
-6.475839e-002
-3.158652e-002
-8.010639e-002
-1.770134e-001
-2.463289e-001
-2.685518e-001
-2.732403e-001
-2.466967e-001
-1.992002e-001
-1.898193e-001
-2.551737e-001
-3.685847e-001
-3.892986e-001
-3.120814e-001
-2.416929e-001
-2.210869e-001
-2.006198e-001
-2.008292e-001
-2.333144e-001
-2.587633e-001
-2.169070e-001
-9.685095e-002
1.947161e-002
9.312318e-002
1.490832e-001
2.163113e-001
2.733234e-001
3.236009e-001
3.732048e-001
4.245010e-001
4.769729e-001
5.288662e-001
5.760660e-001
6.171906e-001
6.517068e-001
6.758207e-001
6.886751e-001
6.905972e-001
6.811581e-001
6.595627e-001
6.265845e-001
5.822261e-001
5.280766e-001
4.648989e-001
3.936490e-001
3.184400e-001
2.401821e-001
1.593012e-001
7.906226e-002
3.068943e-003
-6.640685e-002
-1.275797e-001
-1.802065e-001
-2.217889e-001
-2.519222e-001
-2.744668e-001
-2.885436e-001
-2.951885e-001
-2.954938e-001
-2.917919e-001
-2.870875e-001
-2.813683e-001
-2.731837e-001
-2.649502e-001
-2.575137e-001
-2.497121e-001
-2.426636e-001
-2.368071e-001
-2.339741e-001
-2.325899e-001
-2.307090e-001
-2.288478e-001
-2.280917e-001
-2.279052e-001
-2.281057e-001
-2.292699e-001
-2.315140e-001
-2.333953e-001
-2.331783e-001
-2.326108e-001
-2.318730e-001
-2.306440e-001
-2.288898e-001
-2.273140e-001
-2.262659e-001
-2.248141e-001
-2.216382e-001
-2.160239e-001
-2.081832e-001
-1.985469e-001
-1.893901e-001
-1.821968e-001
-1.788755e-001
-1.759045e-001
-1.728924e-001
-1.697772e-001
-1.642741e-001
-1.595289e-001
-1.585414e-001
-1.603216e-001
-1.644471e-001
-1.678741e-001
-1.670498e-001
-1.671121e-001
-1.669659e-001
-1.616664e-001
-1.351899e-001
-7.576346e-002
-1.361497e-002
-1.303100e-003
-7.363853e-002
-1.731376e-001
-2.362429e-001
-2.583316e-001
-2.555790e-001
-2.142313e-001
-1.631191e-001
-1.728142e-001
-2.669781e-001
-3.668045e-001
-3.552230e-001
-2.717732e-001
-2.074717e-001
-1.799795e-001
-1.577269e-001
-1.679748e-001
-2.090548e-001
-2.217459e-001
-1.488359e-001
-1.541143e-002
9.895251e-002
1.734291e-001
2.349904e-001
3.005302e-001
3.545165e-001
4.045328e-001
4.570691e-001
5.122864e-001
5.687043e-001
6.227520e-001
6.711943e-001
7.140475e-001
7.491868e-001
7.746969e-001
7.888715e-001
7.905583e-001
7.796857e-001
7.561590e-001
7.190956e-001
6.709051e-001
6.130184e-001
5.460490e-001
4.711758e-001
3.902314e-001
3.057821e-001
2.194999e-001
1.334669e-001
5.226024e-002
-2.082091e-002
-8.484289e-002
-1.396021e-001
-1.844839e-001
-2.174337e-001
-2.401831e-001
-2.562784e-001
-2.640358e-001
-2.635524e-001
-2.591496e-001
-2.522666e-001
-2.446350e-001
-2.355105e-001
-2.251397e-001
-2.162254e-001
-2.081050e-001
-1.996527e-001
-1.937380e-001
-1.891260e-001
-1.848798e-001
-1.825344e-001
-1.807348e-001
-1.800921e-001
-1.793115e-001
-1.785712e-001
-1.801143e-001
-1.822628e-001
-1.825894e-001
-1.830759e-001
-1.843943e-001
-1.855964e-001
-1.853039e-001
-1.832815e-001
-1.824124e-001
-1.822122e-001
-1.803039e-001
-1.773256e-001
-1.748123e-001
-1.736056e-001
-1.711745e-001
-1.671750e-001
-1.637376e-001
-1.597007e-001
-1.519273e-001
-1.426940e-001
-1.346527e-001
-1.280974e-001
-1.236729e-001
-1.179303e-001
-1.137613e-001
-1.115312e-001
-1.058143e-001
-9.947518e-002
-9.805231e-002
-9.886260e-002
-1.009433e-001
-1.016139e-001
-9.948408e-002
-1.005859e-001
-1.002373e-001
-9.275731e-002
-6.466958e-002
-5.886381e-003
5.608589e-002
6.729803e-002
-7.219904e-003
-1.125406e-001
-1.815777e-001
-2.060701e-001
-2.051982e-001
-1.675620e-001
-1.201731e-001
-1.313696e-001
-2.269687e-001
-3.287468e-001
-3.201532e-001
-2.350926e-001
-1.670008e-001
-1.374595e-001
-1.155214e-001
-1.242832e-001
-1.622735e-001
-1.721054e-001
-9.630230e-002
4.194151e-002
1.631125e-001
2.431927e-001
3.080384e-001
3.774309e-001
4.362079e-001
4.894043e-001
5.441049e-001
6.025716e-001
6.619103e-001
7.190881e-001
7.716481e-001
8.184644e-001
8.586497e-001
8.867713e-001
9.014633e-001
9.044484e-001
8.945426e-001
8.692193e-001
8.311627e-001
7.814620e-001
7.210718e-001
6.492813e-001
5.677039e-001
4.804131e-001
3.899108e-001
2.967467e-001
2.034375e-001
1.161518e-001
3.630272e-002
-3.650842e-002
-9.950173e-002
-1.492407e-001
-1.872278e-001
-2.142569e-001
-2.318124e-001
-2.404981e-001
-2.415508e-001
-2.396254e-001
-2.352414e-001
-2.265991e-001
-2.171050e-001
-2.087543e-001
-2.000281e-001
-1.917453e-001
-1.850136e-001
-1.799042e-001
-1.753938e-001
-1.710069e-001
-1.682427e-001
-1.680715e-001
-1.689553e-001
-1.697075e-001
-1.715356e-001
-1.747404e-001
-1.768050e-001
-1.776125e-001
-1.799365e-001
-1.825320e-001
-1.835752e-001
-1.832740e-001
-1.823576e-001
-1.814586e-001
-1.802694e-001
-1.772689e-001
-1.747396e-001
-1.742384e-001
-1.717655e-001
-1.678103e-001
-1.646538e-001
-1.618489e-001
-1.590864e-001
-1.552866e-001
-1.501326e-001
-1.439301e-001
-1.344879e-001
-1.245880e-001
-1.171631e-001
-1.130818e-001
-1.101330e-001
-1.055040e-001
-1.028379e-001
-1.000249e-001
-9.440966e-002
-9.174050e-002
-9.385686e-002
-9.700154e-002
-1.004900e-001
-9.984251e-002
-9.968155e-002
-1.028687e-001
-1.014966e-001
-8.867404e-002
-4.535825e-002
1.965498e-002
6.717615e-002
1.885873e-002
-1.019217e-001
-2.005903e-001
-2.416321e-001
-2.579464e-001
-2.407036e-001
-1.854443e-001
-1.559356e-001
-2.175628e-001
-3.575732e-001
-4.037617e-001
-3.211113e-001
-2.293142e-001
-1.902852e-001
-1.534409e-001
-1.379518e-001
-1.667391e-001
-1.998786e-001
-1.594314e-001
-1.756391e-002
1.334030e-001
2.358367e-001
3.117017e-001
3.916379e-001
4.590226e-001
5.195524e-001
5.810366e-001
6.436814e-001
7.079386e-001
7.710641e-001
8.290513e-001
8.801179e-001
9.224013e-001
9.527516e-001
9.693489e-001
9.723653e-001
9.604012e-001
9.341802e-001
8.933331e-001
8.395395e-001
7.736179e-001
6.954961e-001
6.070721e-001
5.126458e-001
4.145016e-001
3.131069e-001
2.131789e-001
1.187829e-001
3.264471e-002
-4.524639e-002
-1.123018e-001
-1.659067e-001
-2.058136e-001
-2.344359e-001
-2.537685e-001
-2.625701e-001
-2.632955e-001
-2.597430e-001
-2.543774e-001
-2.468111e-001
-2.375735e-001
-2.283065e-001
-2.200058e-001
-2.117969e-001
-2.031503e-001
-1.966862e-001
-1.925070e-001
-1.898644e-001
-1.888429e-001
-1.890183e-001
-1.896830e-001
-1.904749e-001
-1.913853e-001
-1.931624e-001
-1.962017e-001
-1.985226e-001
-2.008792e-001
-2.035432e-001
-2.039316e-001
-2.030791e-001
-2.021496e-001
-2.017235e-001
-2.018128e-001
-2.014291e-001
-1.997600e-001
-1.984569e-001
-1.961098e-001
-1.924521e-001
-1.900999e-001
-1.879378e-001
-1.865445e-001
-1.851216e-001
-1.795507e-001
-1.706085e-001
-1.626719e-001
-1.549051e-001
-1.481723e-001
-1.446216e-001
-1.417935e-001
-1.400667e-001
-1.374219e-001
-1.302918e-001
-1.261154e-001
-1.270735e-001
-1.279443e-001
-1.295417e-001
-1.330061e-001
-1.338920e-001
-1.344553e-001
-1.333637e-001
-1.294911e-001
-1.082614e-001
-5.184138e-002
1.116625e-002
1.820917e-002
-6.401294e-002
-1.678699e-001
-2.348584e-001
-2.654266e-001
-2.741826e-001
-2.405921e-001
-1.888409e-001
-1.998063e-001
-3.015059e-001
-4.000775e-001
-3.835692e-001
-3.028698e-001
-2.413936e-001
-2.100316e-001
-1.796021e-001
-1.817870e-001
-2.184876e-001
-2.249050e-001
-1.427953e-001
-4.104261e-003
1.145139e-001
1.983646e-001
2.714565e-001
3.448968e-001
4.038251e-001
4.573491e-001
5.118530e-001
5.671906e-001
6.225912e-001
6.766264e-001
7.260547e-001
7.675195e-001
7.987205e-001
8.205864e-001
8.306721e-001
8.279065e-001
8.113727e-001
7.828278e-001
7.428533e-001
6.904469e-001
6.271413e-001
5.551372e-001
4.763463e-001
3.912939e-001
3.032849e-001
2.148887e-001
1.291488e-001
4.813406e-002
-2.510716e-002
-8.932596e-002
-1.435050e-001
-1.861259e-001
-2.177823e-001
-2.381773e-001
-2.506059e-001
-2.569435e-001
-2.564039e-001
-2.518215e-001
-2.466629e-001
-2.394049e-001
-2.308970e-001
-2.215698e-001
-2.125623e-001
-2.058184e-001
-1.982602e-001
-1.909998e-001
-1.870163e-001
-1.838979e-001
-1.803766e-001
-1.780126e-001
-1.762193e-001
-1.763232e-001
-1.764835e-001
-1.758418e-001
-1.770042e-001
-1.782245e-001
-1.778296e-001
-1.774002e-001
-1.777024e-001
-1.776379e-001
-1.773380e-001
-1.757807e-001
-1.742663e-001
-1.730373e-001
-1.711912e-001
-1.673862e-001
-1.609515e-001
-1.543158e-001
-1.483155e-001
-1.416034e-001
-1.370229e-001
-1.345716e-001
-1.331628e-001
-1.316706e-001
-1.262304e-001
-1.213752e-001
-1.213640e-001
-1.215765e-001
-1.215095e-001
-1.243744e-001
-1.253629e-001
-1.255626e-001
-1.236290e-001
-1.173956e-001
-9.381691e-002
-3.910044e-002
2.133077e-002
4.216427e-002
-1.547708e-002
-1.072981e-001
-1.693769e-001
-1.873050e-001
-1.867418e-001
-1.558063e-001
-1.116098e-001
-1.164810e-001
-1.940055e-001
-2.914140e-001
-2.967759e-001
-2.219526e-001
-1.567410e-001
-1.384398e-001
-1.225268e-001
-1.289956e-001
-1.652689e-001
-1.812337e-001
-1.252197e-001
-7.645502e-003
1.001251e-001
1.691453e-001
2.246893e-001
2.898030e-001
3.434197e-001
3.921860e-001
4.424758e-001
4.928537e-001
5.424893e-001
5.916821e-001
6.384460e-001
6.784922e-001
7.093661e-001
7.317632e-001
7.439078e-001
7.431057e-001
7.306613e-001
7.081773e-001
6.750309e-001
6.301280e-001
5.749109e-001
5.119330e-001
4.421732e-001
3.660199e-001
2.873410e-001
2.084459e-001
1.302416e-001
5.530753e-002
-1.250726e-002
-7.057739e-002
-1.193896e-001
-1.587508e-001
-1.874768e-001
-2.070491e-001
-2.193639e-001
-2.258361e-001
-2.260919e-001
-2.211327e-001
-2.146988e-001
-2.077088e-001
-1.995822e-001
-1.907194e-001
-1.825994e-001
-1.752258e-001
-1.685747e-001
-1.620914e-001
-1.576126e-001
-1.551919e-001
-1.538027e-001
-1.529392e-001
-1.522969e-001
-1.530614e-001
-1.541086e-001
-1.552156e-001
-1.568240e-001
-1.577727e-001
-1.584936e-001
-1.592155e-001
-1.589096e-001
-1.585525e-001
-1.583952e-001
-1.575646e-001
-1.568937e-001
-1.553101e-001
-1.529542e-001
-1.508245e-001
-1.455582e-001
-1.380287e-001
-1.303758e-001
-1.233648e-001
-1.174354e-001
-1.144352e-001
-1.123564e-001
-1.098669e-001
-1.078221e-001
-1.034401e-001
-1.003031e-001
-1.013079e-001
-1.033967e-001
-1.066704e-001
-1.105357e-001
-1.101901e-001
-1.096767e-001
-1.106735e-001
-1.073767e-001
-8.699254e-002
-3.256566e-002
3.088864e-002
5.393140e-002
-1.078514e-002
-1.166845e-001
-1.925070e-001
-2.186776e-001
-2.200103e-001
-1.868050e-001
-1.347019e-001
-1.347063e-001
-2.191555e-001
-3.324693e-001
-3.430630e-001
-2.615030e-001
-1.835915e-001
-1.554405e-001
-1.335645e-001
-1.384133e-001
-1.770549e-001
-1.964717e-001
-1.359566e-001
-1.765334e-003
1.246957e-001
2.073535e-001
2.674065e-001
3.352647e-001
3.926009e-001
4.450283e-001
4.983120e-001
5.543589e-001
6.114880e-001
6.661209e-001
7.148873e-001
7.566309e-001
7.917656e-001
8.159310e-001
8.279862e-001
8.286195e-001
8.171975e-001
7.918714e-001
7.535606e-001
7.032283e-001
6.438338e-001
5.754373e-001
4.970369e-001
4.139215e-001
3.278704e-001
2.395524e-001
1.523158e-001
6.989057e-002
-5.183274e-003
-7.060983e-002
-1.278619e-001
-1.747393e-001
-2.090967e-001
-2.335409e-001
-2.500001e-001
-2.586915e-001
-2.606666e-001
-2.586019e-001
-2.543515e-001
-2.481442e-001
-2.394923e-001
-2.302481e-001
-2.224976e-001
-2.157418e-001
-2.086758e-001
-2.025889e-001
-1.986418e-001
-1.956583e-001
-1.929750e-001
-1.916763e-001
-1.923973e-001
-1.941755e-001
-1.954885e-001
-1.967949e-001
-1.991805e-001
-2.021674e-001
-2.045220e-001
-2.064336e-001
-2.084403e-001
-2.100631e-001
-2.100100e-001
-2.095482e-001
-2.095450e-001
-2.095194e-001
-2.084779e-001
-2.063971e-001
-2.043618e-001
-2.030297e-001
-2.010173e-001
-1.983281e-001
-1.963454e-001
-1.912605e-001
-1.824518e-001
-1.738326e-001
-1.672750e-001
-1.638058e-001
-1.624031e-001
-1.592766e-001
-1.581055e-001
-1.561865e-001
-1.501086e-001
-1.472935e-001
-1.496493e-001
-1.536468e-001
-1.580397e-001
-1.593504e-001
-1.593069e-001
-1.611454e-001
-1.587316e-001
-1.406449e-001
-9.156022e-002
-2.869723e-002
3.125055e-003
-5.745675e-002
-1.712856e-001
-2.549101e-001
-2.864064e-001
-2.942759e-001
-2.665407e-001
-2.113159e-001
-1.977266e-001
-2.741973e-001
-3.992679e-001
-4.213067e-001
-3.355087e-001
-2.520403e-001
-2.184763e-001
-1.871571e-001
-1.810451e-001
-2.152465e-001
-2.398987e-001
-1.842618e-001
-4.251419e-002
9.457829e-002
1.837397e-001
2.514395e-001
3.256012e-001
3.867414e-001
4.428598e-001
5.024551e-001
5.649768e-001
6.279008e-001
6.880320e-001
7.440971e-001
7.943593e-001
8.359579e-001
8.657864e-001
8.840922e-001
8.884123e-001
8.776010e-001
8.526316e-001
8.140576e-001
7.634229e-001
7.017985e-001
6.286906e-001
5.457563e-001
4.561130e-001
3.607522e-001
2.633550e-001
1.675936e-001
7.689707e-002
-6.865571e-003
-8.236052e-002
-1.468919e-001
-1.985452e-001
-2.387776e-001
-2.672169e-001
-2.840573e-001
-2.918585e-001
-2.933027e-001
-2.912294e-001
-2.851175e-001
-2.752348e-001
-2.655860e-001
-2.566027e-001
-2.460391e-001
-2.366798e-001
-2.296138e-001
-2.244735e-001
-2.197686e-001
-2.148820e-001
-2.124582e-001
-2.132126e-001
-2.143608e-001
-2.150618e-001
-2.178334e-001
-2.215836e-001
-2.250345e-001
-2.272498e-001
-2.300450e-001
-2.339530e-001
-2.368666e-001
-2.372042e-001
-2.364083e-001
-2.364729e-001
-2.357631e-001
-2.341117e-001
-2.329534e-001
-2.322286e-001
-2.306773e-001
-2.275742e-001
-2.239572e-001
-2.219450e-001
-2.198853e-001
-2.166705e-001
-2.140362e-001
-2.096843e-001
-2.004184e-001
-1.894933e-001
-1.802472e-001
-1.734578e-001
-1.691641e-001
-1.654461e-001
-1.622684e-001
-1.605536e-001
-1.547634e-001
-1.476664e-001
-1.470634e-001
-1.496987e-001
-1.520952e-001
-1.552258e-001
-1.561386e-001
-1.567508e-001
-1.575036e-001
-1.547666e-001
-1.407121e-001
-9.419463e-002
-2.876705e-002
8.218578e-003
-5.760147e-002
-1.839079e-001
-2.794697e-001
-3.218808e-001
-3.391344e-001
-3.179944e-001
-2.619445e-001
-2.415893e-001
-3.184790e-001
-4.575371e-001
-4.850707e-001
-3.969253e-001
-3.077137e-001
-2.657875e-001
-2.257032e-001
-2.102416e-001
-2.392083e-001
-2.650891e-001
-2.061038e-001
-5.002912e-002
1.028714e-001
2.086509e-001
2.891726e-001
3.737342e-001
4.433461e-001
5.043905e-001
5.683026e-001
6.361801e-001
7.046866e-001
7.708546e-001
8.330297e-001
8.895599e-001
9.380410e-001
9.717435e-001
9.913999e-001
9.975101e-001
9.878942e-001
9.626405e-001
9.222509e-001
8.683553e-001
8.023532e-001
7.217195e-001
6.281783e-001
5.285604e-001
4.244789e-001
3.175728e-001
2.108495e-001
1.088984e-001
1.504350e-002
-7.086573e-002
-1.467679e-001
-2.075264e-001
-2.532307e-001
-2.868163e-001
-3.097027e-001
-3.220438e-001
-3.249570e-001
-3.238795e-001
-3.207670e-001
-3.127889e-001
-3.017680e-001
-2.919555e-001
-2.835414e-001
-2.742467e-001
-2.649784e-001
-2.590825e-001
-2.562780e-001
-2.529239e-001
-2.492648e-001
-2.492768e-001
-2.522815e-001
-2.542376e-001
-2.555418e-001
-2.589986e-001
-2.630804e-001
-2.651157e-001
-2.662370e-001
-2.687215e-001
-2.720623e-001
-2.733380e-001
-2.729171e-001
-2.732041e-001
-2.723579e-001
-2.697347e-001
-2.668513e-001
-2.651046e-001
-2.632442e-001
-2.605279e-001
-2.565379e-001
-2.533182e-001
-2.496996e-001
-2.447828e-001
-2.411555e-001
-2.365293e-001
-2.282919e-001
-2.181110e-001
-2.089199e-001
-2.003768e-001
-1.951758e-001
-1.901263e-001
-1.869761e-001
-1.859963e-001
-1.803446e-001
-1.744008e-001
-1.735295e-001
-1.750408e-001
-1.772903e-001
-1.803538e-001
-1.813417e-001
-1.837446e-001
-1.834328e-001
-1.795216e-001
-1.621449e-001
-1.103106e-001
-4.847907e-002
-2.245154e-002
-9.117070e-002
-2.101757e-001
-2.965422e-001
-3.364591e-001
-3.540961e-001
-3.302558e-001
-2.792114e-001
-2.735822e-001
-3.544012e-001
-4.784659e-001
-4.945656e-001
-4.115881e-001
-3.353433e-001
-2.985123e-001
-2.620997e-001
-2.533322e-001
-2.833148e-001
-3.009436e-001
-2.383022e-001
-9.094283e-002
4.909353e-002
1.472872e-001
2.263890e-001
3.070262e-001
3.718524e-001
4.277822e-001
4.839929e-001
5.419799e-001
6.009768e-001
6.570333e-001
7.094850e-001
7.547259e-001
7.910831e-001
8.171741e-001
8.314386e-001
8.328754e-001
8.212065e-001
7.956962e-001
7.569254e-001
7.064452e-001
6.437874e-001
5.713165e-001
4.906014e-001
4.036489e-001
3.134419e-001
2.214592e-001
1.300774e-001
4.397994e-002
-3.503696e-002
-1.060629e-001
-1.660434e-001
-2.141009e-001
-2.508016e-001
-2.771451e-001
-2.943983e-001
-3.031063e-001
-3.055199e-001
-3.049649e-001
-3.011817e-001
-2.935971e-001
-2.844563e-001
-2.766653e-001
-2.684312e-001
-2.596361e-001
-2.529713e-001
-2.485193e-001
-2.446245e-001
-2.403822e-001
-2.364085e-001
-2.350101e-001
-2.348648e-001
-2.332768e-001
-2.334342e-001
-2.353634e-001
-2.355231e-001
-2.342794e-001
-2.337125e-001
-2.339689e-001
-2.338436e-001
-2.322303e-001
-2.310529e-001
-2.303951e-001
-2.284602e-001
-2.253047e-001
-2.225292e-001
-2.204605e-001
-2.180156e-001
-2.142381e-001
-2.086548e-001
-2.015027e-001
-1.935102e-001
-1.855602e-001
-1.782813e-001
-1.733442e-001
-1.696161e-001
-1.673798e-001
-1.646497e-001
-1.594150e-001
-1.561658e-001
-1.552079e-001
-1.546217e-001
-1.553766e-001
-1.567789e-001
-1.565197e-001
-1.572437e-001
-1.558676e-001
-1.505175e-001
-1.238911e-001
-6.559818e-002
-6.039063e-003
1.109736e-003
-7.121791e-002
-1.608007e-001
-2.160172e-001
-2.338748e-001
-2.318414e-001
-1.960140e-001
-1.515016e-001
-1.666390e-001
-2.616945e-001
-3.486978e-001
-3.303458e-001
-2.547504e-001
-1.975252e-001
-1.775884e-001
-1.601907e-001
-1.699483e-001
-2.080037e-001
-2.151476e-001
-1.408467e-001
-1.856485e-002
8.364508e-002
1.515676e-001
2.091101e-001
2.735102e-001
3.265608e-001
3.758366e-001
4.261257e-001
4.775251e-001
5.291059e-001
5.782960e-001
6.237119e-001
6.634741e-001
6.948510e-001
7.167035e-001
7.274185e-001
7.267873e-001
7.145481e-001
6.903235e-001
6.552591e-001
6.104577e-001
5.558424e-001
4.915125e-001
4.185131e-001
3.423760e-001
2.650220e-001
1.860951e-001
1.083536e-001
3.555436e-002
-3.074271e-002
-8.908187e-002
-1.393333e-001
-1.784536e-001
-2.044160e-001
-2.231559e-001
-2.355584e-001
-2.401959e-001
-2.393065e-001
-2.353892e-001
-2.292422e-001
-2.211797e-001
-2.115073e-001
-2.029655e-001
-1.963013e-001
-1.883454e-001
-1.803347e-001
-1.750866e-001
-1.710566e-001
-1.676810e-001
-1.643757e-001
-1.629995e-001
-1.631046e-001
-1.628178e-001
-1.616536e-001
-1.616033e-001
-1.623462e-001
-1.630265e-001
-1.627300e-001
-1.616608e-001
-1.621113e-001
-1.611276e-001
-1.588461e-001
-1.561022e-001
-1.532988e-001
-1.512085e-001
-1.491632e-001
-1.456975e-001
-1.430280e-001
-1.406436e-001
-1.350321e-001
-1.269953e-001
-1.176663e-001
-1.096743e-001
-1.033049e-001
-9.825802e-002
-9.489252e-002
-9.127870e-002
-8.822141e-002
-8.373123e-002
-7.861252e-002
-7.707961e-002
-7.829441e-002
-7.965446e-002
-8.268871e-002
-8.282579e-002
-8.113545e-002
-8.190723e-002
-7.974747e-002
-6.359501e-002
-1.503484e-002
4.800392e-002
8.047852e-002
2.416999e-002
-8.347495e-002
-1.652191e-001
-1.966072e-001
-2.058823e-001
-1.825473e-001
-1.296918e-001
-1.170468e-001
-1.906198e-001
-3.097724e-001
-3.336548e-001
-2.539198e-001
-1.720686e-001
-1.419463e-001
-1.139893e-001
-1.066333e-001
-1.394393e-001
-1.632303e-001
-1.111945e-001
2.074535e-002
1.522347e-001
2.401967e-001
3.051863e-001
3.788095e-001
4.420586e-001
4.989028e-001
5.567184e-001
6.146820e-001
6.724344e-001
7.297644e-001
7.826043e-001
8.270659e-001
8.627748e-001
8.878821e-001
8.997554e-001
8.978503e-001
8.834308e-001
8.573671e-001
8.186650e-001
7.671513e-001
7.041743e-001
6.317826e-001
5.504224e-001
4.627841e-001
3.726019e-001
2.820440e-001
1.927067e-001
1.072739e-001
3.080046e-002
-3.569299e-002
-9.243742e-002
-1.375637e-001
-1.700064e-001
-1.917302e-001
-2.053047e-001
-2.117126e-001
-2.111454e-001
-2.057011e-001
-1.993693e-001
-1.927013e-001
-1.841433e-001
-1.744727e-001
-1.659850e-001
-1.585187e-001
-1.507395e-001
-1.439365e-001
-1.395485e-001
-1.376270e-001
-1.369078e-001
-1.352600e-001
-1.341741e-001
-1.355404e-001
-1.372289e-001
-1.387942e-001
-1.408647e-001
-1.436955e-001
-1.464885e-001
-1.479648e-001
-1.475516e-001
-1.484404e-001
-1.504106e-001
-1.504251e-001
-1.491592e-001
-1.478699e-001
-1.479810e-001
-1.471538e-001
-1.448436e-001
-1.428727e-001
-1.428702e-001
-1.418231e-001
-1.391008e-001
-1.369355e-001
-1.354955e-001
-1.308657e-001
-1.217804e-001
-1.133726e-001
-1.069603e-001
-1.017261e-001
-9.812978e-002
-9.549289e-002
-9.464326e-002
-9.199907e-002
-8.526316e-002
-8.240104e-002
-8.425237e-002
-8.571111e-002
-8.714929e-002
-8.848781e-002
-8.825774e-002
-8.835231e-002
-8.554805e-002
-7.336011e-002
-3.103481e-002
3.535218e-002
8.548345e-002
4.063748e-002
-7.881877e-002
-1.757742e-001
-2.140159e-001
-2.293581e-001
-2.140350e-001
-1.579400e-001
-1.252479e-001
-1.847180e-001
-3.237924e-001
-3.741297e-001
-2.931723e-001
-1.994536e-001
-1.634210e-001
-1.304983e-001
-1.136515e-001
-1.422395e-001
-1.780185e-001
-1.406882e-001
-2.034082e-003
1.467106e-001
2.451549e-001
3.156000e-001
3.929894e-001
4.588326e-001
5.164402e-001
5.745136e-001
6.344488e-001
6.944341e-001
7.532071e-001
8.089996e-001
8.576743e-001
8.962055e-001
9.240960e-001
9.404228e-001
9.424445e-001
9.316490e-001
9.078262e-001
8.703810e-001
8.185120e-001
7.530739e-001
6.777457e-001
5.958926e-001
5.070756e-001
4.130737e-001
