46
0.5990
1.6600e+003
91.6832
-5.613967e-002 
-1.490188e-001 
-2.357662e-001 
-3.240728e-001 
-4.113951e-001 
-4.977381e-001 
-5.856423e-001 
-6.686984e-001 
-7.898190e-001 
-9.686500e-001 
-1.091044e+000 
-1.174581e+000 
-1.262750e+000 
-1.348025e+000 
-1.432471e+000 
-1.518434e+000 
-1.605378e+000 
-1.699244e+000 
-1.754552e+000 
-1.748793e+000 
-1.742285e+000 
-1.738808e+000 
-1.736745e+000 
-1.734394e+000 
-1.733749e+000 
-1.733483e+000 
-1.729896e+000 
-1.722775e+000 
-1.716401e+000 
-1.713489e+000 
-1.711665e+000 
-1.708370e+000 
-1.703320e+000 
-1.698597e+000 
-1.694361e+000 
-1.689857e+000 
-1.686031e+000 
-1.681975e+000 
-1.674876e+000 
-1.666530e+000 
-1.658685e+000 
-1.650273e+000 
-1.642048e+000 
-1.634374e+000 
-1.625377e+000 
-1.615534e+000 
-1.605379e+000 
-1.595525e+000 
-1.588141e+000 
-1.581718e+000 
-1.572995e+000 
-1.564496e+000 
-1.557215e+000 
-1.550088e+000 
-1.543110e+000 
-1.534408e+000 
-1.523515e+000 
-1.513399e+000 
-1.503901e+000 
-1.496035e+000 
-1.494161e+000 
-1.496640e+000 
-1.505044e+000 
-1.521833e+000 
-1.547915e+000 
-1.590031e+000 
-1.656246e+000 
-1.747781e+000 
-1.861250e+000 
-1.987335e+000 
-2.116569e+000 
-2.247282e+000 
-2.376658e+000 
-2.507366e+000 
-2.645178e+000 
-2.788371e+000 
-2.927110e+000 
-3.050384e+000 
-3.151181e+000 
-3.231028e+000 
-3.294554e+000 
-3.345165e+000 
-3.383723e+000 
-3.403502e+000 
-3.397436e+000 
-3.362858e+000 
-3.303615e+000 
-3.228239e+000 
-3.144861e+000 
-3.056989e+000 
-2.965015e+000 
-2.866090e+000 
-2.760681e+000 
-2.653337e+000 
-2.546855e+000 
-2.440359e+000 
-2.330597e+000 
-2.213272e+000 
-2.089493e+000 
-1.964823e+000 
-1.840200e+000 
-1.718200e+000 
-1.599977e+000 
-1.484357e+000 
-1.369392e+000 
-1.255677e+000 
-1.146211e+000 
-1.045583e+000 
-9.539140e-001 
-8.681989e-001 
-7.894918e-001 
-7.196440e-001 
-6.582789e-001 
-6.042118e-001 
-5.580726e-001 
-5.169726e-001 
-4.796501e-001 
-4.455644e-001 
-4.156615e-001 
-3.920801e-001 
-3.728193e-001 
-3.546733e-001 
-3.382144e-001 
-3.230584e-001 
-3.082804e-001 
-2.944716e-001 
-2.806186e-001 
-2.680082e-001 
-2.550354e-001 
-2.403515e-001 
-2.275396e-001 
-2.172129e-001 
-2.069960e-001 
-1.965805e-001 
-1.849458e-001 
-1.740751e-001 
-1.653846e-001 
-1.564184e-001 
-1.490225e-001 
-1.422485e-001 
-1.339447e-001 
-1.265353e-001 
-1.207777e-001 
-1.149436e-001 
-1.091145e-001 
-1.018840e-001 
-9.431648e-002 
-8.788949e-002 
-8.278047e-002 
-7.908637e-002 
-7.673687e-002 
-7.243628e-002 
-6.516203e-002 
-5.769302e-002 
-5.150316e-002 
-4.749472e-002 
-4.470119e-002 
-4.200187e-002 
-3.698194e-002 
-3.232132e-002 
-2.797792e-002 
-2.432611e-002 
-2.176517e-002 
-1.893750e-002 
-1.534755e-002 
-1.205684e-002 
-9.419452e-003 
-7.288514e-003 
-6.248680e-003 
-2.965168e-003 
1.807065e-003 
5.894189e-003 
8.977686e-003 
9.846264e-003 
8.267955e-003 
6.745518e-003 
6.372090e-003 
6.758234e-003 
6.540802e-003 
3.202512e-003 
-1.664573e-003 
-6.182185e-003 
-1.032983e-002 
-1.398357e-002 
-1.917938e-002 
-2.580533e-002 
-3.300992e-002 
-4.200866e-002 
-5.162730e-002 
-5.984707e-002 
-6.822399e-002 
-7.565599e-002 
-8.477242e-002 
-9.604287e-002 
-1.052640e-001 
-1.149055e-001 
-1.271142e-001 
-1.397941e-001 
-1.520479e-001 
-1.636248e-001 
-1.739149e-001 
-1.861031e-001 
-1.982841e-001 
-2.093240e-001 
-2.204109e-001 
-2.308920e-001 
-2.397084e-001 
-2.464487e-001 
-2.528183e-001 
-2.594973e-001 
-2.659410e-001 
-2.705313e-001 
-2.730134e-001 
-2.745074e-001 
-2.767065e-001 
-2.773738e-001 
-2.748257e-001 
-2.717662e-001 
-2.677255e-001 
-2.634700e-001 
-2.609817e-001 
-2.596986e-001 
-2.584245e-001 
-2.553046e-001 
-2.485788e-001 
-2.408069e-001 
-2.352010e-001 
-2.306524e-001 
-2.270019e-001 
-2.225638e-001 
-2.156514e-001 
-2.075384e-001 
-1.991891e-001 
-1.908189e-001 
-1.840143e-001 
-1.772840e-001 
-1.697375e-001 
-1.618628e-001 
-1.526938e-001 
-1.436677e-001 
-1.350267e-001 
-1.252030e-001 
-1.144414e-001 
-1.044127e-001 
-9.546375e-002 
-8.772528e-002 
-7.877753e-002 
-6.796848e-002 
-5.761273e-002 
-4.786915e-002 
-3.853529e-002 
-3.081040e-002 
-2.436901e-002 
-1.723480e-002 
-7.899748e-003 
2.462843e-003 
1.005093e-002 
1.586506e-002 
2.145162e-002 
2.662990e-002 
3.199525e-002 
3.706022e-002 
4.140045e-002 
4.530203e-002 
4.780255e-002 
5.021810e-002 
5.402945e-002 
5.619407e-002 
5.870836e-002 
6.080135e-002 
6.058902e-002 
6.131041e-002 
6.388725e-002 
6.609714e-002 
6.725843e-002 
6.595760e-002 
6.487299e-002 
6.702170e-002 
6.810793e-002 
6.854854e-002 
6.976919e-002 
6.992872e-002 
6.865025e-002 
6.681673e-002 
6.684095e-002 
6.865542e-002 
6.904870e-002 
6.761274e-002 
6.648405e-002 
6.638385e-002 
6.702071e-002 
6.741573e-002 
6.739765e-002 
6.828475e-002 
6.827769e-002 
6.916239e-002 
7.110231e-002 
7.244062e-002 
7.402350e-002 
7.539872e-002 
7.632123e-002 
7.821194e-002 
8.045146e-002 
8.308366e-002 
8.563044e-002 
8.680199e-002 
8.842803e-002 
9.078245e-002 
9.286744e-002 
9.513811e-002 
9.549095e-002 
9.509000e-002 
9.571600e-002 
9.628086e-002 
9.859796e-002 
1.004951e-001 
1.007812e-001 
1.004146e-001 
9.938200e-002 
9.903417e-002 
1.013449e-001 
1.028511e-001 
1.032093e-001 
1.038701e-001 
1.040562e-001 
1.046822e-001 
1.061496e-001 
1.088077e-001 
1.110916e-001 
1.123350e-001 
1.133690e-001 
1.168017e-001 
1.223282e-001 
1.268996e-001 
1.294014e-001 
1.317346e-001 
1.342932e-001 
1.375941e-001 
1.440325e-001 
1.499346e-001 
1.541592e-001 
1.566556e-001 
1.574833e-001 
1.590304e-001 
1.626162e-001 
1.680164e-001 
1.754579e-001 
1.804746e-001 
1.824287e-001 
1.870503e-001 
1.941950e-001 
2.038730e-001 
2.144133e-001 
2.245792e-001 
2.356521e-001 
2.455927e-001 
2.524244e-001 
2.595519e-001 
2.666228e-001 
2.735015e-001 
2.808368e-001 
2.862127e-001 
2.904460e-001 
2.937677e-001 
2.934163e-001 
2.899615e-001 
2.854948e-001 
2.822009e-001 
2.820720e-001 
2.803226e-001 
2.753080e-001 
2.699376e-001 
2.643788e-001 
2.578885e-001 
2.528619e-001 
2.505088e-001 
2.496337e-001 
2.482512e-001 
2.433769e-001 
2.387926e-001 
2.358784e-001 
2.319267e-001 
2.268272e-001 
2.221951e-001 
2.177827e-001 
2.138731e-001 
2.098194e-001 
2.049547e-001 
2.000712e-001 
1.935852e-001 
1.882480e-001 
1.847722e-001 
1.838033e-001 
1.845129e-001 
1.847795e-001 
1.844439e-001 
1.843591e-001 
1.843093e-001 
1.861481e-001 
1.902267e-001 
1.924175e-001 
1.948859e-001 
1.970435e-001 
1.982315e-001 
1.993939e-001 
1.998482e-001 
1.996470e-001 
2.001054e-001 
2.006282e-001 
2.014976e-001 
2.048665e-001 
2.069397e-001 
2.075324e-001 
2.070516e-001 
2.049881e-001 
1.988951e-001 
1.872332e-001 
1.686189e-001 
1.401496e-001 
9.889822e-002 
3.870502e-002 
-4.374965e-002 
-1.519455e-001 
-2.848849e-001 
-4.323871e-001 
-5.808370e-001 
-7.260693e-001 
-8.695768e-001 
-1.014100e+000 
-1.164757e+000 
-1.319601e+000 
-1.470485e+000 
-1.604457e+000 
-1.710622e+000 
-1.792132e+000 
-1.858584e+000 
-1.913511e+000 
-1.953770e+000 
-1.974054e+000 
-1.965628e+000 
-1.926872e+000 
-1.862368e+000 
-1.780444e+000 
-1.688975e+000 
-1.590503e+000 
-1.487356e+000 
-1.379550e+000 
-1.268919e+000 
-1.156241e+000 
-1.043540e+000 
-9.279410e-001 
-8.054710e-001 
-6.746703e-001 
-5.413835e-001 
-4.124863e-001 
-2.860207e-001 
-1.614966e-001 
-3.907736e-002 
8.032042e-002 
1.962988e-001 
3.066312e-001 
4.076459e-001 
4.964604e-001 
5.774775e-001 
6.534183e-001 
7.201325e-001 
7.775753e-001 
8.271221e-001 
8.694131e-001 
9.053081e-001 
9.356866e-001 
9.629009e-001 
9.864117e-001 
1.004358e+000 
1.017544e+000 
1.029268e+000 
1.041169e+000 
1.051137e+000 
1.059314e+000 
1.067431e+000 
1.074952e+000 
1.082164e+000 
1.090786e+000 
1.097385e+000 
1.102695e+000 
1.107904e+000 
1.111002e+000 
1.114838e+000 
1.118724e+000 
1.121815e+000 
1.125403e+000 
1.126970e+000 
1.127116e+000 
1.129623e+000 
1.132725e+000 
1.135672e+000 
1.138114e+000 
1.138524e+000 
1.139902e+000 
1.141861e+000 
1.144443e+000 
1.147089e+000 
1.147888e+000 
1.147595e+000 
1.147177e+000 
1.146953e+000 
1.147707e+000 
1.148766e+000 
1.149570e+000 
1.148802e+000 
1.145264e+000 
1.142798e+000 
1.141051e+000 
1.138350e+000 
1.135639e+000 
1.131440e+000 
1.126384e+000 
1.122595e+000 
1.117822e+000 
1.112944e+000 
1.108293e+000 
1.101436e+000 
1.095234e+000 
1.090489e+000 
1.084530e+000 
1.077584e+000 
1.069913e+000 
1.060766e+000 
1.050944e+000 
1.041573e+000 
1.032872e+000 
1.024731e+000 
1.014411e+000 
1.002085e+000 
9.895396e-001 
9.774133e-001 
9.650387e-001 
9.514154e-001 
9.370037e-001 
9.213559e-001 
9.043612e-001 
8.871587e-001 
8.710832e-001 
8.535365e-001 
8.349513e-001 
8.147466e-001 
7.921154e-001 
7.711355e-001 
7.515694e-001 
7.303548e-001 
7.081002e-001 
6.855054e-001 
6.625944e-001 
6.411177e-001 
6.194713e-001 
5.986819e-001 
5.808161e-001 
5.625426e-001 
5.436999e-001 
5.273413e-001 
5.139482e-001 
5.019759e-001 
4.892147e-001 
4.769377e-001 
4.672938e-001 
4.596619e-001 
4.543000e-001 
4.494117e-001 
4.439111e-001 
4.401914e-001 
4.372611e-001 
4.336107e-001 
4.319569e-001 
4.315991e-001 
4.314222e-001 
4.313505e-001 
4.294282e-001 
4.279277e-001 
4.301716e-001 
4.321264e-001 
4.309228e-001 
4.303368e-001 
4.320926e-001 
4.355068e-001 
4.393922e-001 
4.416266e-001 
4.437977e-001 
4.465989e-001 
4.472242e-001 
4.477182e-001 
4.515629e-001 
4.575398e-001 
4.621594e-001 
4.649967e-001 
4.665288e-001 
4.697197e-001 
4.737061e-001 
4.775412e-001 
4.807956e-001 
4.845669e-001 
4.886131e-001 
4.920718e-001 
4.959260e-001 
4.982914e-001 
5.005951e-001 
5.028527e-001 
5.043903e-001 
5.064149e-001 
5.104762e-001 
5.135323e-001 
5.145258e-001 
5.132785e-001 
5.107981e-001 
5.101732e-001 
5.101860e-001 
5.100147e-001 
5.088238e-001 
5.067509e-001 
5.040804e-001 
5.009799e-001 
4.996905e-001 
4.984399e-001 
4.956911e-001 
4.932994e-001 
4.900761e-001 
4.855072e-001 
4.836206e-001 
4.817964e-001 
4.784211e-001 
4.751611e-001 
4.693561e-001 
4.649692e-001 
4.628512e-001 
4.577646e-001 
4.525301e-001 
4.487720e-001 
4.442176e-001 
4.406413e-001 
4.379861e-001 
4.343201e-001 
4.309644e-001 
4.268802e-001 
4.220535e-001 
4.190796e-001 
4.188640e-001 
4.193335e-001 
4.180565e-001 
4.163433e-001 
4.141954e-001 
4.133640e-001 
4.135877e-001 
4.129915e-001 
4.118074e-001 
4.114039e-001 
4.092283e-001 
4.067018e-001 
4.063324e-001 
4.049662e-001 
4.033092e-001 
4.010476e-001 
3.990945e-001 
3.981951e-001 
3.987215e-001 
3.985386e-001 
3.971070e-001 
3.945865e-001 
3.921547e-001 
3.913953e-001 
3.918518e-001 
3.925995e-001 
3.908430e-001 
3.889691e-001 
3.876927e-001 
3.862930e-001 
3.869268e-001 
3.887506e-001 
3.883634e-001 
3.869520e-001 
3.846909e-001 
3.815914e-001 
3.820906e-001 
3.838430e-001 
3.832454e-001 
3.828194e-001 
3.809511e-001 
3.792035e-001 
3.796842e-001 
3.797082e-001 
3.788406e-001 
3.788553e-001 
3.777467e-001 
3.759921e-001 
3.762881e-001 
3.764537e-001 
3.774345e-001 
3.787867e-001 
3.800778e-001 
3.822023e-001 
3.866230e-001 
3.923102e-001 
3.989644e-001 
4.066175e-001 
4.142919e-001 
4.236001e-001 
4.343934e-001 
4.442394e-001 
4.526185e-001 
4.594170e-001 
4.645834e-001 
4.702998e-001 
4.758040e-001 
4.786354e-001 
4.795962e-001 
4.790642e-001 
4.757997e-001 
4.713847e-001 
4.669206e-001 
4.645458e-001 
4.621466e-001 
4.570030e-001 
4.491915e-001 
4.411790e-001 
4.337208e-001 
4.257040e-001 
4.179413e-001 
4.113646e-001 
4.058630e-001 
3.986543e-001 
3.916700e-001 
3.845286e-001 
3.770951e-001 
3.706482e-001 
3.646876e-001 
3.586456e-001 
3.531679e-001 
3.469639e-001 
3.390298e-001 
3.320458e-001 
3.252347e-001 
3.194426e-001 
3.166904e-001 
3.137795e-001 
3.097443e-001 
3.069231e-001 
3.042940e-001 
3.026133e-001 
3.025480e-001 
3.020814e-001 
3.008109e-001 
2.995642e-001 
2.971185e-001 
2.954155e-001 
2.948304e-001 
2.928157e-001 
2.897071e-001 
2.868640e-001 
2.846898e-001 
2.829766e-001 
2.826238e-001 
2.823153e-001 
2.822693e-001 
2.817450e-001 
2.784531e-001 
2.707299e-001 
2.575956e-001 
2.346521e-001 
1.980994e-001 
1.483620e-001 
8.255019e-002 
-4.791834e-003 
-1.192877e-001 
-2.613352e-001 
-4.205935e-001 
-5.834346e-001 
-7.449304e-001 
-9.029096e-001 
-1.057004e+000 
-1.213271e+000 
-1.375196e+000 
-1.535944e+000 
-1.681891e+000 
-1.800616e+000 
-1.890739e+000 
-1.961579e+000 
-2.016963e+000 
-2.056046e+000 
-2.076122e+000 
-2.068935e+000 
-2.029523e+000 
-1.962405e+000 
-1.874236e+000 
-1.773449e+000 
-1.667234e+000 
-1.556943e+000 
-1.444152e+000 
-1.328356e+000 
-1.210169e+000 
-1.091844e+000 
-9.720847e-001 
-8.466295e-001 
-7.149289e-001 
-5.811875e-001 
-4.495073e-001 
-3.202490e-001 
-1.938957e-001 
-7.217316e-002 
4.608028e-002 
1.587842e-001 
2.648325e-001 
3.630997e-001 
4.517682e-001 
5.314358e-001 
6.036563e-001 
6.667341e-001 
7.200544e-001 
7.660751e-001 
8.052897e-001 
8.385020e-001 
8.676589e-001 
8.921839e-001 
9.112784e-001 
9.269747e-001 
9.378949e-001 
9.454160e-001 
9.535911e-001 
9.615343e-001 
9.669004e-001 
9.719800e-001 
9.750394e-001 
9.789531e-001 
9.837981e-001 
9.863997e-001 
9.871473e-001 
9.890217e-001 
9.909208e-001 
9.915149e-001 
9.924284e-001 
9.927398e-001 
9.940663e-001 
9.931659e-001 
9.912886e-001 
9.905255e-001 
9.928561e-001 
9.933838e-001 
9.922679e-001 
9.909385e-001 
9.898648e-001 
9.894355e-001 
9.886312e-001 
9.877441e-001 
9.854142e-001 
9.821397e-001 
9.776881e-001 
9.745050e-001 
9.712786e-001 
9.685177e-001 
9.648037e-001 
9.592769e-001 
9.527942e-001 
9.477311e-001 
9.442170e-001 
9.402919e-001 
9.349962e-001 
9.296235e-001 
9.246787e-001 
9.178642e-001 
9.116666e-001 
9.068357e-001 
9.004933e-001 
8.917592e-001 
8.824792e-001 
8.738497e-001 
8.657636e-001 
8.547785e-001 
8.421170e-001 
8.315736e-001 
8.203220e-001 
8.080709e-001 
7.970534e-001 
7.861097e-001 
7.729801e-001 
7.577835e-001 
7.409587e-001 
7.271183e-001 
7.161141e-001 
7.026972e-001 
6.883772e-001 
6.726562e-001 
6.563003e-001 
6.405051e-001 
6.254621e-001 
6.096076e-001 
5.944013e-001 
5.770591e-001 
5.574136e-001 
5.375295e-001 
5.183439e-001 
5.004225e-001 
4.819636e-001 
4.628748e-001 
4.444574e-001 
4.282934e-001 
4.125776e-001 
3.965720e-001 
3.799671e-001 
3.654653e-001 
3.516475e-001 
3.394947e-001 
3.296052e-001 
3.202593e-001 
3.102480e-001 
3.007687e-001 
2.923119e-001 
2.860731e-001 
2.826284e-001 
2.793562e-001 
2.763104e-001 
2.720303e-001 
2.672846e-001 
2.646383e-001 
2.657472e-001 
2.666419e-001 
2.662004e-001 
2.661778e-001 
2.660960e-001 
2.665135e-001 
2.678704e-001 
2.699076e-001 
2.716696e-001 
2.728643e-001 
2.722465e-001 
2.728357e-001 
2.752798e-001 
2.773496e-001 
2.779166e-001 
2.783620e-001 
2.784613e-001 
2.785712e-001 
2.797967e-001 
2.812168e-001 
2.822304e-001 
2.823918e-001 
2.822392e-001 
2.826101e-001 
2.853258e-001 
2.876888e-001 
2.887248e-001 
2.887399e-001 
2.890156e-001 
2.897684e-001 
2.908778e-001 
2.920661e-001 
2.930071e-001 
2.931661e-001 
2.921323e-001 
2.903127e-001 
2.895416e-001 
2.900243e-001 
2.884477e-001 
2.858413e-001 
2.834867e-001 
2.816301e-001 
2.802222e-001 
2.784212e-001 
2.752523e-001 
2.718807e-001 
2.688474e-001 
2.664512e-001 
2.644712e-001 
2.617354e-001 
2.572570e-001 
2.517376e-001 
2.467803e-001 
2.417066e-001 
2.381797e-001 
2.358164e-001 
2.313079e-001 
2.247760e-001 
2.183552e-001 
2.131147e-001 
2.101502e-001 
2.076384e-001 
2.041256e-001 
2.010691e-001 
1.969292e-001 
1.924342e-001 
1.888499e-001 
1.880594e-001 
1.879056e-001 
1.863232e-001 
1.847596e-001 
1.836901e-001 
1.830985e-001 
1.824517e-001 
1.810933e-001 
1.798727e-001 
1.803600e-001 
1.796259e-001 
1.788135e-001 
1.777373e-001 
1.761763e-001 
1.755419e-001 
1.734945e-001 
1.715400e-001 
1.709206e-001 
1.711300e-001 
1.710197e-001 
1.696198e-001 
1.682707e-001 
1.685448e-001 
1.675638e-001 
1.636878e-001 
1.606564e-001 
1.591007e-001 
1.589852e-001 
1.594704e-001 
1.585404e-001 
1.566247e-001 
1.541028e-001 
1.506143e-001 
1.477617e-001 
1.477053e-001 
1.483505e-001 
1.487322e-001 
1.477014e-001 
1.446106e-001 
1.424557e-001 
1.420213e-001 
1.424584e-001 
1.426821e-001 
1.424038e-001 
1.414721e-001 
1.409345e-001 
1.399343e-001 
1.395142e-001 
1.388159e-001 
1.379451e-001 
1.368521e-001 
1.355465e-001 
1.355597e-001 
1.358948e-001 
1.348851e-001 
1.336590e-001 
1.329662e-001 
1.321096e-001 
1.339479e-001 
1.348877e-001 
1.352132e-001 
1.353012e-001 
1.355757e-001 
1.374547e-001 
1.408698e-001 
1.430819e-001 
1.450221e-001 
1.468134e-001 
1.473944e-001 
1.496928e-001 
1.535709e-001 
1.595866e-001 
1.645253e-001 
1.694741e-001 
1.757593e-001 
1.832765e-001 
1.920306e-001 
2.021550e-001 
2.111111e-001 
2.197259e-001 
2.271137e-001 
2.334644e-001 
2.421702e-001 
2.492693e-001 
2.540205e-001 
2.573766e-001 
2.580644e-001 
2.577763e-001 
2.574328e-001 
2.555586e-001 
2.523193e-001 
2.473353e-001 
2.414325e-001 
2.343863e-001 
2.262152e-001 
2.189132e-001 
2.108398e-001 
2.020633e-001 
1.941853e-001 
1.864002e-001 
1.810767e-001 
1.757560e-001 
1.666934e-001 
1.589186e-001 
1.525455e-001 
1.457190e-001 
1.409434e-001 
1.356277e-001 
1.285920e-001 
1.220297e-001 
1.146823e-001 
1.076052e-001 
1.034085e-001 
9.832754e-002 
9.184857e-002 
8.565506e-002 
8.077906e-002 
7.732464e-002 
7.548475e-002 
7.332687e-002 
7.047635e-002 
6.759728e-002 
6.510823e-002 
6.413700e-002 
6.592040e-002 
6.865020e-002 
6.857493e-002 
6.700348e-002 
6.412118e-002 
6.236641e-002 
6.283637e-002 
6.412608e-002 
6.360221e-002 
6.314405e-002 
6.148199e-002 
5.966660e-002 
5.932907e-002 
5.965392e-002 
6.128941e-002 
6.119723e-002 
5.650910e-002 
4.663733e-002 
3.235910e-002 
9.649329e-003 
-2.348121e-002 
-6.906111e-002 
-1.322250e-001 
-2.189169e-001 
-3.328490e-001 
-4.697229e-001 
-6.186228e-001 
-7.692444e-001 
-9.184845e-001 
-1.065910e+000 
-1.214552e+000 
-1.369423e+000 
-1.528184e+000 
-1.681473e+000 
-1.815462e+000 
-1.924509e+000 
-2.010470e+000 
-2.079485e+000 
-2.136009e+000 
-2.177635e+000 
-2.197891e+000 
-2.189781e+000 
-2.150907e+000 
-2.087081e+000 
-2.008027e+000 
-1.915831e+000 
-1.816897e+000 
-1.714464e+000 
-1.607101e+000 
-1.495917e+000 
-1.382065e+000 
-1.267288e+000 
-1.150500e+000 
-1.025725e+000 
-8.935677e-001 
-7.624706e-001 
-6.343794e-001 
-5.089463e-001 
-3.855895e-001 
-2.637052e-001 
-1.446227e-001 
-2.908823e-002 
8.011516e-002 
1.786408e-001 
2.671841e-001 
3.489517e-001 
4.229268e-001 
4.892961e-001 
5.474127e-001 
5.958085e-001 
6.370489e-001 
6.717811e-001 
7.010887e-001 
7.274894e-001 
7.490774e-001 
7.650462e-001 
7.792376e-001 
7.908049e-001 
8.022405e-001 
8.126443e-001 
8.199780e-001 
8.264225e-001 
8.334745e-001 
8.396185e-001 
8.461605e-001 
8.528300e-001 
8.579162e-001 
8.615773e-001 
8.623071e-001 
8.640495e-001 
8.675452e-001 
8.710738e-001 
8.726252e-001 
8.731758e-001 
8.739937e-001 
8.747997e-001 
8.744192e-001 
8.744915e-001 
8.749543e-001 
8.740322e-001 
8.727728e-001 
8.714818e-001 
8.725254e-001 
8.747727e-001 
8.749748e-001 
8.747254e-001 
8.754677e-001 
8.756342e-001 
8.766687e-001 
8.774113e-001 
8.763366e-001 
8.744251e-001 
8.716271e-001 
8.688905e-001 
8.670474e-001 
8.636374e-001 
8.588604e-001 
8.540608e-001 
8.480344e-001 
8.419573e-001 
8.366208e-001 
8.311814e-001 
8.245746e-001 
8.150977e-001 
8.045490e-001 
7.957292e-001 
7.873604e-001 
7.790717e-001 
7.693493e-001 
7.578464e-001 
7.459796e-001 
7.341338e-001 
7.211144e-001 
7.090220e-001 
6.952915e-001 
6.795666e-001 
6.639705e-001 
6.466083e-001 
6.290982e-001 
6.125806e-001 
5.948888e-001 
5.746548e-001 
5.531046e-001 
5.308483e-001 
5.105566e-001 
4.889587e-001 
4.648239e-001 
4.414788e-001 
4.187623e-001 
3.957825e-001 
3.718045e-001 
3.485575e-001 
3.262485e-001 
3.033656e-001 
2.798018e-001 
2.594480e-001 
2.424467e-001 
2.251316e-001 
2.065397e-001 
1.888720e-001 
1.732827e-001 
1.591244e-001 
1.479379e-001 
1.387529e-001 
1.309299e-001 
1.221338e-001 
1.128131e-001 
1.058798e-001 
1.020369e-001 
9.890179e-002 
9.615960e-002 
9.439870e-002 
9.219124e-002 
9.038430e-002 
9.084879e-002 
9.279076e-002 
9.358152e-002 
9.509301e-002 
9.745001e-002 
1.008275e-001 
1.057850e-001 
1.104767e-001 
1.149319e-001 
1.203487e-001 
1.246131e-001 
1.280093e-001 
1.336943e-001 
1.387883e-001 
1.428576e-001 
1.465142e-001 
1.494106e-001 
1.527621e-001 
1.584446e-001 
1.640408e-001 
1.673458e-001 
1.707140e-001 
1.743168e-001 
1.787770e-001 
1.843937e-001 
1.892345e-001 
1.920328e-001 
1.961369e-001 
1.989333e-001 
2.005956e-001 
2.058265e-001 
2.115393e-001 
2.144534e-001 
2.162945e-001 
2.151699e-001 
2.136579e-001 
2.149204e-001 
2.139427e-001 
2.122553e-001 
2.120753e-001 
2.091854e-001 
2.065246e-001 
2.061275e-001 
2.042043e-001 
2.028472e-001 
2.010164e-001 
1.981536e-001 
1.965080e-001 
1.949688e-001 
1.925076e-001 
1.911476e-001 
1.886336e-001 
1.851174e-001 
1.819051e-001 
1.796173e-001 
1.778810e-001 
1.743170e-001 
1.690172e-001 
1.651268e-001 
1.623434e-001 
1.592863e-001 
1.557930e-001 
1.512541e-001 
1.480346e-001 
1.445973e-001 
1.409728e-001 
1.397845e-001 
1.409382e-001 
1.404924e-001 
1.382189e-001 
1.355244e-001 
1.351027e-001 
1.360020e-001 
1.353409e-001 
1.339597e-001 
1.334529e-001 
1.334198e-001 
1.325718e-001 
1.320506e-001 
1.328302e-001 
1.329022e-001 
1.298567e-001 
1.269628e-001 
1.253628e-001 
1.254870e-001 
1.264892e-001 
1.252192e-001 
1.229787e-001 
1.212738e-001 
1.191091e-001 
1.171366e-001 
1.156061e-001 
1.127588e-001 
1.113046e-001 
1.105331e-001 
1.079106e-001 
1.063752e-001 
1.064354e-001 
1.054674e-001 
1.026605e-001 
1.004022e-001 
1.004626e-001 
1.034881e-001 
1.043015e-001 
1.023803e-001 
1.008619e-001 
9.980802e-002 
9.877631e-002 
9.754413e-002 
9.798898e-002 
9.888247e-002 
9.802876e-002 
9.600909e-002 
9.483638e-002 
9.540080e-002 
9.785172e-002 
9.961778e-002 
1.014220e-001 
1.061332e-001 
1.117141e-001 
1.198278e-001 
1.291273e-001 
1.373119e-001 
1.473744e-001 
1.580674e-001 
1.671019e-001 
1.759979e-001 
1.824725e-001 
1.865974e-001 
1.907876e-001 
1.922096e-001 
1.942617e-001 
1.974345e-001 
1.963432e-001 
1.917728e-001 
1.855774e-001 
1.796640e-001 
1.767446e-001 
1.732972e-001 
1.677288e-001 
1.606078e-001 
1.510343e-001 
1.404880e-001 
1.326830e-001 
1.273627e-001 
1.229246e-001 
1.169022e-001 
1.083470e-001 
1.000820e-001 
9.277039e-002 
8.671691e-002 
8.039609e-002 
7.387990e-002 
6.477185e-002 
5.458958e-002 
4.564940e-002 
3.905103e-002 
3.391792e-002 
2.773940e-002 
2.035986e-002 
1.368918e-002 
1.012288e-002 
7.491269e-003 
6.372067e-003 
5.962251e-003 
5.686704e-003 
3.685552e-003 
1.212112e-003 
3.812138e-004 
1.248535e-003 
1.356856e-003 
-6.773601e-004 
-2.322153e-003 
-2.814632e-003 
-2.556519e-003 
-3.254011e-003 
-3.808015e-003 
-3.297104e-003 
-2.301317e-003 
-1.340634e-003 
8.973914e-004 
4.442261e-004 
-7.308319e-003 
-2.218903e-002 
-4.687954e-002 
-8.177217e-002 
-1.299035e-001 
-2.010216e-001 
-3.002222e-001 
-4.286873e-001 
-5.815522e-001 
-7.418115e-001 
-8.987912e-001 
-1.054592e+000 
-1.210694e+000 
-1.371174e+000 
-1.537692e+000 
-1.703381e+000 
-1.859309e+000 
-1.992377e+000 
-2.098458e+000 
-2.184541e+000 
-2.255839e+000 
-2.310713e+000 
-2.345446e+000 
-2.353310e+000 
-2.329651e+000 
-2.276897e+000 
-2.198327e+000 
-2.102615e+000 
-1.994410e+000 
-1.879053e+000 
-1.761163e+000 
-1.640141e+000 
-1.513442e+000 
-1.384714e+000 
-1.254410e+000 
-1.118036e+000 
-9.755214e-001 
-8.266039e-001 
-6.789876e-001 
-5.350454e-001 
-3.939466e-001 
-2.575659e-001 
-1.281638e-001 
-5.263507e-003 
1.118549e-001 
2.234509e-001 
3.279360e-001 
4.188774e-001 
4.975435e-001 
5.657671e-001 
6.262550e-001 
6.798154e-001 
7.255661e-001 
7.649705e-001 
7.985393e-001 
8.250736e-001 
8.451361e-001 
8.626912e-001 
8.800180e-001 
8.958590e-001 
9.072618e-001 
9.162241e-001 
9.251115e-001 
9.335769e-001 
9.417162e-001 
9.484406e-001 
9.535283e-001 
9.582978e-001 
9.606345e-001 
9.622546e-001 
9.654601e-001 
9.681489e-001 
9.693620e-001 
9.708910e-001 
9.714986e-001 
9.715139e-001 
9.734499e-001 
9.742923e-001 
9.746368e-001 
9.744131e-001 
9.745329e-001 
9.764350e-001 
9.782087e-001 
9.779207e-001 
9.763919e-001 
9.757317e-001 
9.748270e-001 
9.739914e-001 
9.741892e-001 
9.758875e-001 
9.743884e-001 
9.692570e-001 
9.657777e-001 
9.637801e-001 
9.632933e-001 
9.613803e-001 
9.579634e-001 
9.545682e-001 
9.495582e-001 
9.412751e-001 
9.349143e-001 
9.305344e-001 
9.232872e-001 
9.146862e-001 
9.055848e-001 
8.981253e-001 
8.887810e-001 
8.762825e-001 
8.629749e-001 
8.508967e-001 
8.378790e-001 
8.247205e-001 
8.118335e-001 
7.973603e-001 
7.801108e-001 
7.585674e-001 
7.364799e-001 
7.161198e-001 
6.965635e-001 
6.754931e-001 
6.529277e-001 
6.278455e-001 
6.013727e-001 
5.759882e-001 
5.502179e-001 
5.234786e-001 
4.979379e-001 
4.729303e-001 
4.480865e-001 
4.254094e-001 
4.038418e-001 
3.829129e-001 
3.624660e-001 
3.405925e-001 
3.217651e-001 
3.085172e-001 
2.977149e-001 
2.879943e-001 
2.778412e-001 
2.667289e-001 
2.574431e-001 
2.505973e-001 
2.459672e-001 
2.440199e-001 
2.411590e-001 
2.386188e-001 
2.372808e-001 
2.362137e-001 
2.377500e-001 
2.410182e-001 
2.423054e-001 
2.425290e-001 
2.428063e-001 
2.444666e-001 
2.501269e-001 
2.542394e-001 
2.556036e-001 
2.576963e-001 
2.591453e-001 
2.598213e-001 
2.631889e-001 
2.674182e-001 
2.713931e-001 
2.750088e-001 
2.760941e-001 
2.789458e-001 
2.836153e-001 
2.857716e-001 
2.870130e-001 
2.900071e-001 
2.921815e-001 
2.950596e-001 
2.993779e-001 
3.028726e-001 
3.050469e-001 
3.045590e-001 
3.039717e-001 
3.061596e-001 
3.091256e-001 
3.105989e-001 
3.118958e-001 
3.121455e-001 
3.105173e-001 
3.080504e-001 
3.075408e-001 
3.086704e-001 
3.071689e-001 
3.027989e-001 
2.988988e-001 
2.958273e-001 
2.928615e-001 
2.897323e-001 
2.855326e-001 
2.810761e-001 
2.759467e-001 
2.704709e-001 
2.653550e-001 
2.610772e-001 
2.563637e-001 
2.520152e-001 
2.472937e-001 
2.415293e-001 
2.372651e-001 
2.336986e-001 
2.275546e-001 
2.196019e-001 
2.146045e-001 
2.119604e-001 
2.097464e-001 
2.053754e-001 
1.987618e-001 
1.918402e-001 
1.850308e-001 
1.781518e-001 
1.740675e-001 
1.723211e-001 
1.677031e-001 
1.617086e-001 
1.549167e-001 
1.482076e-001 
1.447332e-001 
1.435477e-001 
1.406562e-001 
1.379765e-001 
1.345994e-001 
1.307255e-001 
1.289703e-001 
1.275209e-001 
1.253958e-001 
1.235522e-001 
1.214750e-001 
1.179419e-001 
1.166508e-001 
1.158051e-001 
1.142883e-001 
1.137192e-001 
1.137906e-001 
1.129951e-001 
1.137359e-001 
1.145829e-001 
1.131641e-001 
1.122615e-001 
1.108773e-001 
1.105690e-001 
1.128353e-001 
1.144564e-001 
1.137154e-001 
1.121822e-001 
1.102294e-001 
1.077048e-001 
1.069932e-001 
1.072913e-001 
1.077519e-001 
1.077134e-001 
1.058210e-001 
1.029825e-001 
1.018118e-001 
1.015252e-001 
1.003259e-001 
1.009754e-001 
1.027167e-001 
1.064326e-001 
1.113589e-001 
1.154456e-001 
1.201056e-001 
1.267374e-001 
1.339273e-001 
1.429559e-001 
1.542258e-001 
1.658412e-001 
1.767412e-001 
1.865999e-001 
1.952666e-001 
2.033856e-001 
2.111960e-001 
2.181854e-001 
2.240625e-001 
2.278299e-001 
2.291373e-001 
2.299446e-001 
2.311140e-001 
2.282826e-001 
2.221622e-001 
2.169325e-001 
2.129563e-001 
2.071344e-001 
2.000320e-001 
1.919564e-001 
1.832342e-001 
1.737575e-001 
1.622747e-001 
1.526696e-001 
1.480597e-001 
1.416440e-001 
1.316578e-001 
1.221293e-001 
1.137827e-001 
1.073277e-001 
1.009182e-001 
9.279623e-002 
8.488991e-002 
7.666705e-002 
6.639933e-002 
5.801975e-002 
5.223708e-002 
4.770128e-002 
4.139166e-002 
3.350674e-002 
2.761133e-002 
2.426050e-002 
2.290593e-002 
2.265774e-002 
2.228510e-002 
2.156320e-002 
2.113848e-002 
2.021917e-002 
2.037293e-002 
2.159656e-002 
2.223127e-002 
2.329492e-002 
2.346857e-002 
2.364370e-002 
2.539541e-002 
2.617392e-002 
2.427821e-002 
2.166260e-002 
1.985130e-002 
2.074635e-002 
2.267030e-002 
1.850673e-002 
5.645765e-003 
-2.130640e-002 
-6.648656e-002 
-1.315003e-001 
-2.191610e-001 
-3.332378e-001 
-4.761377e-001 
-6.483547e-001 
-8.407671e-001 
-1.038866e+000 
-1.236246e+000 
-1.432578e+000 
-1.630404e+000 
-1.828110e+000 
-2.023953e+000 
-2.213497e+000 
-2.387400e+000 
-2.535188e+000 
-2.652640e+000 
-2.744298e+000 
-2.812872e+000 
-2.853640e+000 
-2.861595e+000 
-2.835868e+000 
-2.776951e+000 
-2.685660e+000 
-2.564582e+000 
-2.423039e+000 
-2.271469e+000 
-2.115244e+000 
-1.957509e+000 
-1.797545e+000 
-1.635791e+000 
-1.471014e+000 
-1.297470e+000 
-1.115037e+000 
-9.299496e-001 
-7.483563e-001 
-5.745160e-001 
-4.073442e-001 
-2.446369e-001 
-8.947722e-002 
5.773470e-002 
1.981156e-001 
3.286221e-001 
4.454308e-001 
5.476210e-001 
6.369331e-001 
7.155755e-001 
7.830658e-001 
8.401726e-001 
8.899814e-001 
9.335105e-001 
9.685696e-001 
9.945552e-001 
1.015685e+000 
1.033320e+000 
1.048116e+000 
1.060292e+000 
1.071960e+000 
1.082912e+000 
1.092484e+000 
1.101371e+000 
1.111274e+000 
1.120560e+000 
1.126395e+000 
1.129808e+000 
1.132737e+000 
1.137550e+000 
1.142317e+000 
1.147026e+000 
1.151418e+000 
1.153345e+000 
1.151860e+000 
1.150680e+000 
1.152050e+000 
1.155450e+000 
1.158847e+000 
1.159540e+000 
1.158662e+000 
1.157755e+000 
1.157099e+000 
1.158795e+000 
1.161544e+000 
1.162955e+000 
1.163446e+000 
1.162579e+000 
1.161936e+000 
1.162663e+000 
1.164032e+000 
1.163505e+000 
1.161222e+000 
1.156958e+000 
1.152785e+000 
1.148873e+000 
1.144876e+000 
1.141045e+000 
1.135739e+000 
1.128904e+000 
1.120937e+000 
1.114037e+000 
1.106520e+000 
1.097584e+000 
1.088002e+000 
1.078701e+000 
1.067907e+000 
1.055652e+000 
1.042846e+000 
1.028611e+000 
1.012139e+000 
9.942375e-001 
9.764472e-001 
9.584608e-001 
9.368539e-001 
9.117057e-001 
8.862011e-001 
8.606969e-001 
8.338501e-001 
8.060574e-001 
7.785081e-001 
7.489375e-001 
7.166637e-001 
6.832803e-001 
6.522581e-001 
6.246120e-001 
5.977376e-001 
5.696595e-001 
5.411704e-001 
5.134936e-001 
4.856130e-001 
4.598040e-001 
4.361732e-001 
4.144091e-001 
3.952643e-001 
3.761765e-001 
3.577441e-001 
3.426975e-001 
3.288400e-001 
3.144200e-001 
3.024400e-001 
2.926949e-001 
2.867185e-001 
2.825119e-001 
2.767451e-001 
2.725321e-001 
2.689381e-001 
2.634392e-001 
2.602224e-001 
2.608626e-001 
2.631197e-001 
2.644319e-001 
2.641612e-001 
2.650715e-001 
2.674864e-001 
2.693434e-001 
2.715961e-001 
2.755157e-001 
2.797319e-001 
2.839444e-001 
2.874597e-001 
2.930812e-001 
2.989775e-001 
3.028768e-001 
3.064355e-001 
3.107555e-001 
3.170128e-001 
3.245492e-001 
3.304345e-001 
3.350116e-001 
3.408762e-001 
3.445611e-001 
3.475439e-001 
3.513219e-001 
3.553192e-001 
3.589051e-001 
3.603552e-001 
3.610144e-001 
3.648409e-001 
3.690955e-001 
3.713345e-001 
3.722680e-001 
3.722210e-001 
3.725312e-001 
3.740983e-001 
3.764332e-001 
3.792205e-001 
3.793114e-001 
3.766470e-001 
3.750916e-001 
3.735487e-001 
3.743074e-001 
3.759573e-001 
3.765474e-001 
3.756463e-001 
3.724303e-001 
3.676189e-001 
3.660996e-001 
3.654318e-001 
3.621314e-001 
3.588823e-001 
3.548751e-001 
3.508440e-001 
3.465627e-001 
3.420397e-001 
3.387558e-001 
3.364910e-001 
3.317882e-001 
3.255682e-001 
3.218222e-001 
3.173622e-001 
3.107448e-001 
3.046326e-001 
3.003175e-001 
2.974873e-001 
2.954624e-001 
2.912432e-001 
2.862305e-001 
2.823552e-001 
2.770730e-001 
2.741202e-001 
2.744072e-001 
2.747082e-001 
2.728241e-001 
2.689273e-001 
2.627658e-001 
2.585264e-001 
2.563448e-001 
2.542476e-001 
2.525341e-001 
2.498260e-001 
2.455464e-001 
2.403394e-001 
2.366849e-001 
2.328866e-001 
2.292004e-001 
2.241944e-001 
2.193747e-001 
2.145685e-001 
2.101697e-001 
2.052500e-001 
2.000686e-001 
1.946123e-001 
1.881811e-001 
1.818063e-001 
1.766633e-001 
1.726639e-001 
1.676751e-001 
1.621492e-001 
1.556639e-001 
1.486857e-001 
1.417065e-001 
1.351124e-001 
1.276098e-001 
1.206266e-001 
1.144422e-001 
1.096262e-001 
1.041446e-001 
9.863107e-002 
9.323906e-002 
8.810828e-002 
8.433581e-002 
8.062431e-002 
7.772877e-002 
7.580776e-002 
7.193590e-002 
6.528789e-002 
6.127207e-002 
5.937724e-002 
5.937117e-002 
5.976080e-002 
5.813481e-002 
5.784379e-002 
5.888200e-002 
5.887862e-002 
6.067759e-002 
6.591550e-002 
7.111131e-002 
7.557929e-002 
7.932703e-002 
8.590750e-002 
9.614934e-002 
1.046847e-001 
1.104260e-001 
1.147249e-001 
1.186768e-001 
1.215333e-001 
1.221717e-001 
1.217982e-001 
1.215748e-001 
1.184728e-001 
1.116677e-001 
1.036540e-001 
9.611269e-002 
8.979562e-002 
8.039452e-002 
6.885459e-002 
5.898473e-002 
4.974253e-002 
3.884803e-002 
2.707723e-002 
1.518374e-002 
4.158942e-003 
-5.916765e-003 
-1.643416e-002 
-2.339808e-002 
-2.899071e-002 
-3.802691e-002 
-4.819034e-002 
-5.779807e-002 
-6.668249e-002 
-7.344529e-002 
-8.108021e-002 
-8.997939e-002 
-9.651763e-002 
-1.042770e-001 
-1.123823e-001 
-1.171710e-001 
-1.212708e-001 
-1.255870e-001 
-1.305202e-001 
-1.368367e-001 
-1.396609e-001 
-1.395547e-001 
-1.417590e-001 
-1.445009e-001 
-1.456855e-001 
-1.487202e-001 
-1.530193e-001 
-1.557271e-001 
-1.585901e-001 
-1.608060e-001 
-1.637662e-001 
-1.671968e-001 
-1.676492e-001 
-1.680084e-001 
-1.753045e-001 
-1.898182e-001 
-2.144219e-001 
-2.526609e-001 
-3.035921e-001 
-3.729027e-001 
-4.700584e-001 
-6.006029e-001 
-7.603949e-001 
-9.360775e-001 
-1.113752e+000 
-1.287920e+000 
-1.460010e+000 
-1.632050e+000 
-1.809191e+000 
-1.993567e+000 
-2.173457e+000 
-2.331396e+000 
-2.459809e+000 
-2.562553e+000 
-2.645715e+000 
-2.710215e+000 
-2.752587e+000 
-2.769487e+000 
-2.756295e+000 
-2.709488e+000 
-2.627712e+000 
-2.519432e+000 
-2.396305e+000 
-2.262573e+000 
-2.124661e+000 
-1.986001e+000 
-1.845014e+000 
-1.703947e+000 
-1.558625e+000 
-1.402274e+000 
-1.241593e+000 
-1.080509e+000 
-9.216841e-001 
-7.700951e-001 
-6.225153e-001 
-4.797995e-001 
-3.443883e-001 
-2.135692e-001 
-9.182123e-002 
1.681937e-002 
1.155318e-001 
2.028410e-001 
2.791883e-001 
3.450002e-001 
3.990682e-001 
4.447878e-001 
4.849706e-001 
5.174397e-001 
5.443591e-001 
5.662958e-001 
5.829642e-001 
5.956477e-001 
6.055694e-001 
6.142879e-001 
6.232457e-001 
6.317556e-001 
6.364153e-001 
6.408740e-001 
6.455854e-001 
6.504997e-001 
6.541237e-001 
6.562148e-001 
6.565477e-001 
6.577774e-001 
6.590425e-001 
6.592347e-001 
6.604553e-001 
6.605428e-001 
6.605985e-001 
6.603183e-001 
6.599772e-001 
6.611015e-001 
6.643528e-001 
6.652121e-001 
6.646635e-001 
6.637394e-001 
6.637352e-001 
6.661435e-001 
6.667472e-001 
6.654366e-001 
6.658134e-001 
6.653275e-001 
6.626107e-001 
6.599620e-001 
6.570055e-001 
6.544897e-001 
6.502211e-001 
6.440309e-001 
6.398327e-001 
6.369816e-001 
6.310696e-001 
6.236355e-001 
6.160341e-001 
6.094069e-001 
6.029126e-001 
5.968405e-001 
5.919817e-001 
5.861636e-001 
5.775678e-001 
5.667221e-001 
5.572202e-001 
5.493719e-001 
5.410778e-001 
5.304762e-001 
5.191052e-001 
5.057349e-001 
4.917840e-001 
4.774269e-001 
4.629160e-001 
4.483840e-001 
4.313753e-001 
4.123965e-001 
3.923973e-001 
3.719559e-001 
3.507120e-001 
3.284235e-001 
3.043544e-001 
2.806592e-001 
2.571185e-001 
2.325522e-001 
2.070197e-001 
1.804896e-001 
1.538758e-001 
1.278335e-001 
1.022327e-001 
7.809835e-002 
5.563828e-002 
3.139156e-002 
5.238391e-003 
-1.873543e-002 
-4.031198e-002 
-5.905206e-002 
-7.596394e-002 
-9.284402e-002 
-1.077614e-001 
-1.211473e-001 
-1.355858e-001 
-1.479909e-001 
-1.581164e-001 
-1.683381e-001 
-1.769832e-001 
-1.850000e-001 
-1.914192e-001 
-1.937966e-001 
-1.962778e-001 
-2.014115e-001 
-2.057344e-001 
-2.084031e-001 
-2.086528e-001 
-2.068494e-001 
-2.046865e-001 
-2.023915e-001 
-2.007122e-001 
-2.005893e-001 
-1.997137e-001 
-1.956910e-001 
-1.894751e-001 
-1.846063e-001 
-1.807094e-001 
-1.764146e-001 
-1.722843e-001 
-1.676998e-001 
-1.631497e-001 
-1.598819e-001 
-1.555878e-001 
-1.502751e-001 
-1.454495e-001 
-1.391018e-001 
-1.338963e-001 
-1.300628e-001 
-1.261868e-001 
-1.230366e-001 
-1.189684e-001 
-1.119029e-001 
-1.050300e-001 
-1.003626e-001 
-9.646637e-002 
-9.422144e-002 
-9.041557e-002 
-8.576210e-002 
-8.302865e-002 
-8.033311e-002 
-7.751444e-002 
-7.651669e-002 
-7.547191e-002 
-7.434717e-002 
-7.497449e-002 
-7.517488e-002 
-7.763940e-002 
-8.025729e-002 
-8.054328e-002 
-8.046017e-002 
-8.052450e-002 
-8.166841e-002 
-8.546581e-002 
-8.900082e-002 
-9.187766e-002 
-9.442551e-002 
-9.501283e-002 
-9.810445e-002 
-1.026475e-001 
-1.070018e-001 
-1.117933e-001 
-1.155406e-001 
-1.195967e-001 
-1.247931e-001 
-1.283388e-001 
-1.326501e-001 
-1.381192e-001 
-1.422226e-001 
-1.467762e-001 
-1.523176e-001 
-1.580303e-001 
-1.630803e-001 
-1.655544e-001 
-1.666238e-001 
-1.683115e-001 
-1.712012e-001 
-1.747686e-001 
-1.770512e-001 
-1.771973e-001 
-1.756604e-001 
-1.758572e-001 
-1.791272e-001 
-1.827755e-001 
-1.860322e-001 
-1.895286e-001 
-1.901680e-001 
-1.884758e-001 
-1.878559e-001 
-1.898672e-001 
-1.955290e-001 
-1.993413e-001 
-1.989752e-001 
-1.989374e-001 
-1.991692e-001 
-1.985786e-001 
-1.987205e-001 
-1.994629e-001 
-2.005779e-001 
-2.018009e-001 
-2.002801e-001 
-1.989332e-001 
-1.988674e-001 
-1.978528e-001 
-1.963085e-001 
-1.956138e-001 
-1.965760e-001 
-1.983246e-001 
-1.996905e-001 
-1.997698e-001 
-2.003209e-001 
-2.010298e-001 
-2.019461e-001 
-2.031718e-001 
-2.048943e-001 
-2.058132e-001 
-2.046523e-001 
-2.046944e-001 
-2.051460e-001 
-2.049659e-001 
-2.048747e-001 
-2.046333e-001 
-2.038886e-001 
-2.043958e-001 
-2.053885e-001 
-2.066386e-001 
-2.084926e-001 
-2.076717e-001 
-2.069282e-001 
-2.078340e-001 
-2.095552e-001 
-2.116041e-001 
-2.140964e-001 
-2.148058e-001 
-2.145306e-001 
-2.148349e-001 
-2.163091e-001 
-2.182001e-001 
-2.189112e-001 
-2.167099e-001 
-2.120254e-001 
-2.073827e-001 
-2.029167e-001 
-1.985906e-001 
-1.928292e-001 
-1.848249e-001 
-1.750348e-001 
-1.648529e-001 
-1.540812e-001 
-1.453160e-001 
-1.385380e-001 
-1.322273e-001 
-1.254621e-001 
-1.188481e-001 
-1.154620e-001 
-1.144697e-001 
-1.144345e-001 
-1.147997e-001 
-1.167538e-001 
-1.208266e-001 
-1.258330e-001 
-1.313620e-001 
-1.383940e-001 
-1.465691e-001 
-1.556367e-001 
-1.659536e-001 
-1.753506e-001 
-1.856026e-001 
-1.947534e-001 
-2.017944e-001 
-2.079735e-001 
-2.142438e-001 
-2.225249e-001 
-2.330578e-001 
-2.413557e-001 
-2.463175e-001 
-2.512094e-001 
-2.565201e-001 
-2.634417e-001 
-2.707741e-001 
-2.797384e-001 
-2.875077e-001 
-2.930778e-001 
-2.959973e-001 
-2.988899e-001 
-3.034421e-001 
-3.069673e-001 
-3.105119e-001 
-3.143820e-001 
-3.179036e-001 
-3.192897e-001 
-3.207556e-001 
-3.208585e-001 
-3.212108e-001 
-3.201447e-001 
-3.195514e-001 
-3.234622e-001 
-3.264808e-001 
-3.277450e-001 
-3.284094e-001 
-3.286648e-001 
-3.292451e-001 
-3.306318e-001 
-3.321024e-001 
-3.369513e-001 
-3.411264e-001 
-3.409264e-001 
-3.402916e-001 
-3.402060e-001 
-3.417636e-001 
-3.475095e-001 
-3.584329e-001 
-3.785608e-001 
-4.117312e-001 
-4.579699e-001 
-5.200363e-001 
-6.023829e-001 
-7.116995e-001 
-8.505725e-001 
-1.015768e+000 
-1.196672e+000 
-1.382139e+000 
-1.566150e+000 
-1.746578e+000 
-1.924838e+000 
-2.105798e+000 
-2.290799e+000 
-2.467513e+000 
-2.624832e+000 
-2.753616e+000 
-2.854714e+000 
-2.935088e+000 
-2.997491e+000 
-3.039570e+000 
-3.055828e+000 
-3.041544e+000 
-2.992762e+000 
-2.916880e+000 
-2.823102e+000 
-2.718758e+000 
-2.608164e+000 
-2.492215e+000 
-2.368503e+000 
-2.239812e+000 
-2.110427e+000 
-1.978486e+000 
-1.843990e+000 
-1.703401e+000 
-1.555402e+000 
-1.402672e+000 
-1.246037e+000 
-1.088509e+000 
-9.347046e-001 
-7.843113e-001 
-6.364649e-001 
-4.939823e-001 
-3.599581e-001 
-2.350784e-001 
-1.163426e-001 
-4.343856e-003 
9.700709e-002 
1.856401e-001 
2.616373e-001 
3.270872e-001 
3.824819e-001 
4.306108e-001 
4.760592e-001 
5.161572e-001 
5.467864e-001 
5.683630e-001 
5.825161e-001 
5.937751e-001 
6.045217e-001 
6.140834e-001 
6.230158e-001 
6.298352e-001 
6.320572e-001 
6.348648e-001 
6.396321e-001 
6.438340e-001 
6.468227e-001 
6.481762e-001 
6.491405e-001 
6.501581e-001 
6.502148e-001 
6.504616e-001 
6.530353e-001 
6.535612e-001 
6.510701e-001 
6.474705e-001 
6.456918e-001 
6.459203e-001 
6.459043e-001 
6.443872e-001 
6.422459e-001 
6.397534e-001 
6.356638e-001 
6.304292e-001 
6.251343e-001 
6.224075e-001 
6.204062e-001 
6.177445e-001 
6.145368e-001 
6.111575e-001 
6.074460e-001 
6.036575e-001 
6.011548e-001 
6.010002e-001 
6.024889e-001 
6.014718e-001 
5.976361e-001 
5.913942e-001 
5.836330e-001 
5.763705e-001 
5.720449e-001 
5.690894e-001 
5.654961e-001 
5.588027e-001 
5.480250e-001 
5.357293e-001 
5.226095e-001 
5.100856e-001 
4.991626e-001 
4.900915e-001 
4.809835e-001 
4.697849e-001 
4.552583e-001 
4.400942e-001 
4.270267e-001 
4.159947e-001 
4.055976e-001 
3.947089e-001 
3.827765e-001 
3.679345e-001 
3.493671e-001 
3.300227e-001 
3.125346e-001 
2.977941e-001 
2.822656e-001 
2.635667e-001 
2.417206e-001 
2.182925e-001 
1.950002e-001 
1.720832e-001 
1.491442e-001 
1.253855e-001 
1.003084e-001 
7.391542e-002 
4.895991e-002 
2.392209e-002 
3.116070e-004 
-2.219748e-002 
-4.581976e-002 
-6.950528e-002 
-9.208428e-002 
-1.131535e-001 
-1.311938e-001 
-1.491045e-001 
-1.693568e-001 
-1.878668e-001 
-2.045857e-001 
-2.184348e-001 
-2.297287e-001 
-2.420695e-001 
-2.541767e-001 
-2.639351e-001 
-2.734904e-001 
-2.817174e-001 
-2.869928e-001 
-2.894285e-001 
-2.903721e-001 
-2.939883e-001 
-2.993519e-001 
-3.009849e-001 
-3.001119e-001 
-3.006288e-001 
-3.023155e-001 
-3.040125e-001 
-3.038611e-001 
-3.022853e-001 
-3.005319e-001 
-2.973684e-001 
-2.932294e-001 
-2.908002e-001 
-2.886157e-001 
-2.869244e-001 
-2.862967e-001 
-2.836431e-001 
-2.802301e-001 
-2.773199e-001 
-2.735490e-001 
-2.697295e-001 
-2.656372e-001 
-2.616922e-001 
-2.607717e-001 
-2.580342e-001 
-2.516536e-001 
-2.455793e-001 
-2.411892e-001 
-2.398655e-001 
-2.415265e-001 
-2.426152e-001 
-2.420124e-001 
-2.379177e-001 
-2.303947e-001 
-2.249262e-001 
-2.229669e-001 
-2.246211e-001 
-2.270095e-001 
-2.268554e-001 
-2.230985e-001 
-2.192401e-001 
-2.165244e-001 
-2.170051e-001 
-2.202657e-001 
-2.242658e-001 
-2.270798e-001 
-2.274380e-001 
-2.269618e-001 
-2.268371e-001 
-2.281227e-001 
-2.295401e-001 
-2.320929e-001 
-2.367835e-001 
-2.418429e-001 
-2.440022e-001 
-2.455136e-001 
-2.468304e-001 
-2.483013e-001 
-2.512234e-001 
-2.549471e-001 
-2.583421e-001 
-2.604301e-001 
-2.588145e-001 
-2.565698e-001 
-2.590010e-001 
-2.642153e-001 
-2.696114e-001 
-2.743304e-001 
-2.765565e-001 
-2.761129e-001 
-2.763775e-001 
-2.789625e-001 
-2.864983e-001 
-2.954956e-001 
-2.995626e-001 
-2.993165e-001 
-2.999587e-001 
-3.012258e-001 
-3.038467e-001 
-3.083746e-001 
-3.134053e-001 
-3.173424e-001 
-3.175538e-001 
-3.158435e-001 
-3.152303e-001 
-3.161849e-001 
-3.160602e-001 
-3.161465e-001 
-3.166324e-001 
-3.175284e-001 
-3.174456e-001 
-3.170648e-001 
-3.158257e-001 
-3.144863e-001 
-3.148418e-001 
-3.160256e-001 
-3.174542e-001 
-3.179601e-001 
-3.164711e-001 
-3.148233e-001 
-3.140329e-001 
-3.125045e-001 
-3.129127e-001 
-3.127586e-001 
-3.106411e-001 
-3.083250e-001 
-3.061030e-001 
-3.048080e-001 
-3.055872e-001 
-3.046946e-001 
-3.023886e-001 
-3.010185e-001 
-2.993962e-001 
-2.999690e-001 
-3.012338e-001 
-3.014354e-001 
-3.007058e-001 
-2.999938e-001 
-2.988198e-001 
-2.992095e-001 
-3.007293e-001 
-3.018642e-001 
-3.017693e-001 
-2.995534e-001 
-2.970693e-001 
-2.951009e-001 
-2.946969e-001 
-2.950017e-001 
-2.948331e-001 
-2.937903e-001 
-2.931121e-001 
-2.934695e-001 
-2.940275e-001 
-2.931227e-001 
-2.911221e-001 
-2.904512e-001 
-2.895864e-001 
-2.866509e-001 
-2.853719e-001 
-2.857219e-001 
-2.835715e-001 
-2.789006e-001 
-2.753549e-001 
-2.735333e-001 
-2.719089e-001 
-2.669102e-001 
-2.596444e-001 
-2.536803e-001 
-2.458288e-001 
-2.351229e-001 
-2.258761e-001 
-2.167355e-001 
-2.058840e-001 
-1.953994e-001 
-1.856463e-001 
-1.780057e-001 
-1.715545e-001 
-1.626529e-001 
-1.545042e-001 
-1.496560e-001 
-1.470504e-001 
-1.483020e-001 
-1.506074e-001 
-1.519593e-001 
-1.535792e-001 
-1.543518e-001 
-1.562411e-001 
-1.635212e-001 
-1.739320e-001 
-1.858362e-001 
-1.962830e-001 
-2.025769e-001 
-2.088286e-001 
-2.181676e-001 
-2.286917e-001 
-2.393130e-001 
-2.488487e-001 
-2.565759e-001 
-2.630484e-001 
-2.675428e-001 
-2.715983e-001 
-2.774022e-001 
-2.836822e-001 
-2.879964e-001 
-2.927355e-001 
-2.990131e-001 
-3.066867e-001 
-3.126359e-001 
-3.159052e-001 
-3.176916e-001 
-3.194586e-001 
-3.216713e-001 
-3.245064e-001 
-3.276744e-001 
-3.289093e-001 
-3.281530e-001 
-3.259357e-001 
-3.246212e-001 
-3.241926e-001 
-3.255040e-001 
-3.258400e-001 
-3.249531e-001 
-3.235657e-001 
-3.215171e-001 
-3.193659e-001 
-3.175554e-001 
-3.155302e-001 
-3.142994e-001 
-3.145141e-001 
-3.134932e-001 
-3.125974e-001 
-3.114600e-001 
-3.104001e-001 
-3.130888e-001 
-3.237795e-001 
-3.451292e-001 
-3.785767e-001 
-4.222164e-001 
-4.788881e-001 
-5.563212e-001 
-6.616591e-001 
-7.980034e-001 
-9.571148e-001 
-1.123924e+000 
-1.287691e+000 
-1.447286e+000 
-1.605460e+000 
-1.768244e+000 
-1.935800e+000 
-2.102943e+000 
-2.259298e+000 
-2.390410e+000 
-2.493689e+000 
-2.577389e+000 
-2.645714e+000 
-2.696235e+000 
-2.725021e+000 
-2.725540e+000 
-2.697145e+000 
-2.640642e+000 
-2.560619e+000 
-2.466074e+000 
-2.360352e+000 
-2.243942e+000 
-2.122629e+000 
-2.000960e+000 
-1.878403e+000 
-1.753212e+000 
-1.624196e+000 
-1.489568e+000 
-1.347518e+000 
-1.199563e+000 
-1.051152e+000 
-9.082593e-001 
-7.688682e-001 
-6.300787e-001 
-4.941584e-001 
-3.660287e-001 
-2.434326e-001 
-1.275420e-001 
-1.955817e-002 
7.927728e-002 
1.673803e-001 
2.455997e-001 
3.139580e-001 
3.712680e-001 
4.192353e-001 
4.631484e-001 
4.998586e-001 
5.298819e-001 
5.550061e-001 
5.763688e-001 
5.938770e-001 
6.077171e-001 
6.165463e-001 
6.239826e-001 
6.326866e-001 
6.390953e-001 
6.460104e-001 
6.535754e-001 
6.602727e-001 
6.636959e-001 
6.643773e-001 
6.651327e-001 
6.694543e-001 
6.761489e-001 
6.805992e-001 
6.823818e-001 
6.827739e-001 
6.832855e-001 
6.824990e-001 
6.829844e-001 
6.846342e-001 
6.863554e-001 
6.865897e-001 
6.838431e-001 
6.813921e-001 
6.816905e-001 
6.816224e-001 
6.801350e-001 
6.803750e-001 
6.807871e-001 
6.807706e-001 
6.801634e-001 
6.787391e-001 
6.782596e-001 
6.777830e-001 
6.763041e-001 
6.766160e-001 
6.772321e-001 
6.757694e-001 
6.721010e-001 
6.682150e-001 
6.654313e-001 
6.629944e-001 
6.595086e-001 
6.556228e-001 
6.504888e-001 
6.444750e-001 
6.383949e-001 
6.316166e-001 
6.261277e-001 
6.192107e-001 
6.090958e-001 
6.002955e-001 
5.930287e-001 
5.856111e-001 
5.788328e-001 
5.694155e-001 
5.566528e-001 
5.426166e-001 
5.270912e-001 
5.134366e-001 
5.031488e-001 
4.901406e-001 
4.735900e-001 
4.557604e-001 
4.367347e-001 
4.176559e-001 
4.009097e-001 
3.840712e-001 
3.654646e-001 
3.443944e-001 
3.217560e-001 
3.002666e-001 
2.806887e-001 
2.610103e-001 
2.403519e-001 
2.193227e-001 
1.964337e-001 
1.735076e-001 
1.533013e-001 
1.347870e-001 
1.151145e-001 
9.655447e-002 
7.807593e-002 
5.931932e-002 
4.125833e-002 
2.360331e-002 
9.269136e-003 
-2.015264e-003 
-1.405681e-002 
-2.501835e-002 
-3.223744e-002 
-4.005237e-002 
-4.809195e-002 
-5.464681e-002 
-5.894524e-002 
-5.981481e-002 
-6.021887e-002 
-6.201499e-002 
-6.338865e-002 
-6.359106e-002 
-6.488852e-002 
-6.461574e-002 
-6.270324e-002 
-6.052184e-002 
-5.790876e-002 
-5.613144e-002 
-5.374714e-002 
-4.813082e-002 
-4.092343e-002 
-3.605847e-002 
-3.285159e-002 
-3.042669e-002 
-2.618453e-002 
-2.049964e-002 
-1.408771e-002 
-6.614034e-003 
-2.908393e-004 
3.968720e-003 
6.967729e-003 
1.236720e-002 
2.043320e-002 
2.766420e-002 
3.119660e-002 
3.327284e-002 
3.499081e-002 
3.813676e-002 
4.231071e-002 
4.589477e-002 
5.058300e-002 
5.330211e-002 
5.324467e-002 
5.321591e-002 
5.505003e-002 
5.938031e-002 
6.328745e-002 
6.335650e-002 
6.181852e-002 
6.196793e-002 
6.203964e-002 
6.121188e-002 
5.968827e-002 
5.894494e-002 
5.857141e-002 
5.512668e-002 
5.101210e-002 
4.811345e-002 
4.591487e-002 
4.144839e-002 
3.605312e-002 
3.206108e-002 
3.043454e-002 
2.784137e-002 
2.283444e-002 
1.978859e-002 
1.763499e-002 
1.472252e-002 
1.186188e-002 
8.755486e-003 
4.026870e-003 
1.246412e-004 
-3.502316e-003 
-4.917573e-003 
-2.955179e-003 
-2.739805e-003 
-4.372789e-003 
-7.640900e-003 
-1.332205e-002 
-1.723638e-002 
-1.712252e-002 
-1.671566e-002 
-1.756919e-002 
-1.960913e-002 
-2.266894e-002 
-2.653624e-002 
-3.095034e-002 
-3.397888e-002 
-3.464988e-002 
-3.483334e-002 
-3.690067e-002 
-4.004385e-002 
-4.246214e-002 
-4.628668e-002 
-5.250113e-002 
-5.794855e-002 
-6.006559e-002 
-5.997674e-002 
-5.976558e-002 
-6.019359e-002 
-6.174040e-002 
-6.409225e-002 
-6.712760e-002 
-6.999580e-002 
-7.056467e-002 
-6.878945e-002 
-6.876501e-002 
-7.047196e-002 
-7.221052e-002 
-7.507505e-002 
-7.629284e-002 
-7.658445e-002 
-7.860641e-002 
-8.037308e-002 
-8.008947e-002 
-8.040319e-002 
-8.044850e-002 
-8.094501e-002 
-8.346029e-002 
-8.307870e-002 
-8.148485e-002 
-8.155817e-002 
-8.093642e-002 
-7.915513e-002 
-7.950374e-002 
-7.999136e-002 
-8.091460e-002 
-8.059162e-002 
-7.629704e-002 
-7.421775e-002 
-7.737334e-002 
-7.989271e-002 
-7.843484e-002 
-7.460177e-002 
-6.963674e-002 
-6.507030e-002 
-6.041388e-002 
-5.491575e-002 
-4.996317e-002 
-4.407315e-002 
-3.238531e-002 
-1.714308e-002 
-4.621055e-003 
4.051676e-003 
9.714261e-003 
1.474125e-002 
2.226744e-002 
2.929616e-002 
3.375736e-002 
3.704298e-002 
3.749293e-002 
3.415016e-002 
2.983846e-002 
2.545819e-002 
2.229295e-002 
1.983555e-002 
1.402171e-002 
5.550001e-003 
-2.851864e-003 
-1.226364e-002 
-2.223544e-002 
-3.011653e-002 
-3.790809e-002 
-4.541895e-002 
-5.267784e-002 
-6.275869e-002 
-7.251253e-002 
-7.993999e-002 
-8.689481e-002 
-9.255240e-002 
-9.808859e-002 
-1.063190e-001 
-1.146153e-001 
-1.232718e-001 
-1.323834e-001 
-1.377858e-001 
-1.406105e-001 
-1.446177e-001 
-1.504645e-001 
-1.556444e-001 
-1.590429e-001 
-1.610920e-001 
-1.619202e-001 
-1.619849e-001 
-1.612678e-001 
-1.604293e-001 
-1.625471e-001 
-1.653814e-001 
-1.668136e-001 
-1.694140e-001 
-1.735143e-001 
-1.767158e-001 
-1.789445e-001 
-1.786896e-001 
-1.765411e-001 
-1.767951e-001 
-1.785586e-001 
-1.812705e-001 
-1.824578e-001 
-1.819749e-001 
-1.835913e-001 
-1.898693e-001 
-2.026209e-001 
-2.255017e-001 
-2.608265e-001 
-3.075922e-001 
-3.665847e-001 
-4.431841e-001 
-5.505755e-001 
-6.902099e-001 
-8.481522e-001 
-1.013991e+000 
-1.180935e+000 
-1.344889e+000 
-1.506918e+000 
-1.669836e+000 
-1.836737e+000 
-2.005123e+000 
-2.159044e+000 
-2.286623e+000 
-2.390020e+000 
-2.471577e+000 
-2.534425e+000 
-2.580387e+000 
-2.604964e+000 
-2.603712e+000 
-2.573892e+000 
-2.513642e+000 
-2.428701e+000 
-2.327714e+000 
-2.214149e+000 
-2.094283e+000 
-1.971860e+000 
-1.846964e+000 
-1.720988e+000 
-1.593145e+000 
-1.461340e+000 
-1.325898e+000 
-1.185248e+000 
-1.039593e+000 
-8.936293e-001 
-7.498567e-001 
-6.099037e-001 
-4.742482e-001 
-3.440356e-001 
-2.204934e-001 
-1.036811e-001 
7.821563e-003 
1.137236e-001 
2.090215e-001 
2.899359e-001 
3.589088e-001 
4.205106e-001 
4.749132e-001 
5.224757e-001 
5.624961e-001 
5.966325e-001 
6.253305e-001 
6.451257e-001 
6.590095e-001 
6.724181e-001 
6.859458e-001 
6.963490e-001 
7.042528e-001 
7.089186e-001 
7.125289e-001 
7.173263e-001 
7.212660e-001 
7.248067e-001 
7.286468e-001 
7.323941e-001 
7.352949e-001 
7.373910e-001 
7.369597e-001 
7.374459e-001 
7.400114e-001 
7.402984e-001 
7.406254e-001 
7.425491e-001 
7.445359e-001 
7.439561e-001 
7.416519e-001 
7.411669e-001 
7.428448e-001 
7.430288e-001 
7.415998e-001 
7.412414e-001 
7.402174e-001 
7.375457e-001 
7.332881e-001 
7.315318e-001 
7.312602e-001 
7.274967e-001 
7.236957e-001 
7.228031e-001 
7.217167e-001 
7.189249e-001 
7.149542e-001 
7.111435e-001 
7.094142e-001 
7.059021e-001 
7.002250e-001 
6.967973e-001 
6.923675e-001 
6.851741e-001 
6.775331e-001 
6.704550e-001 
6.645453e-001 
6.578289e-001 
6.477797e-001 
6.354689e-001 
6.239726e-001 
6.135694e-001 
6.032610e-001 
5.929258e-001 
5.823851e-001 
5.696843e-001 
5.545011e-001 
5.387422e-001 
5.241503e-001 
5.113586e-001 
4.967389e-001 
4.779150e-001 
4.587647e-001 
4.401046e-001 
4.201956e-001 
4.010072e-001 
3.818500e-001 
3.604940e-001 
3.372334e-001 
3.128554e-001 
2.891570e-001 
2.685817e-001 
2.477495e-001 
2.261764e-001 
2.057434e-001 
1.852408e-001 
1.658927e-001 
1.489976e-001 
1.331890e-001 
1.172515e-001 
1.020122e-001 
8.733484e-002 
7.544784e-002 
6.581170e-002 
5.614090e-002 
4.661426e-002 
3.824238e-002 
3.112419e-002 
2.505695e-002 
2.171994e-002 
1.962960e-002 
1.690282e-002 
1.303117e-002 
8.588311e-003 
7.584721e-003 
9.361910e-003 
9.258243e-003 
7.881877e-003 
7.769949e-003 
8.626909e-003 
1.100981e-002 
1.436174e-002 
1.768355e-002 
2.169478e-002 
2.293115e-002 
2.239789e-002 
2.384974e-002 
2.858156e-002 
3.470634e-002 
3.962832e-002 
4.283910e-002 
4.492905e-002 
4.782425e-002 
5.141540e-002 
5.576706e-002 
6.037750e-002 
6.599701e-002 
7.110936e-002 
7.501367e-002 
7.931132e-002 
8.327366e-002 
8.752154e-002 
9.102991e-002 
9.354928e-002 
9.727859e-002 
1.016497e-001 
1.028726e-001 
1.019047e-001 
1.019853e-001 
1.031367e-001 
1.052370e-001 
1.064262e-001 
1.072535e-001 
1.064842e-001 
1.034484e-001 
1.001354e-001 
9.923576e-002 
1.007845e-001 
1.011083e-001 
9.865476e-002 
9.484148e-002 
9.124438e-002 
8.830806e-002 
8.710083e-002 
8.608279e-002 
8.466255e-002 
8.237400e-002 
7.903310e-002 
7.440601e-002 
6.966147e-002 
6.602942e-002 
6.181343e-002 
5.589100e-002 
5.131389e-002 
4.757198e-002 
4.513063e-002 
4.366877e-002 
3.850220e-002 
3.264874e-002 
2.731512e-002 
2.140498e-002 
1.808992e-002 
1.627753e-002 
1.159739e-002 
8.322045e-003 
4.296046e-003 
-1.738153e-003 
-6.077243e-003 
-9.176133e-003 
-1.098257e-002 
-1.130162e-002 
-1.291265e-002 
-1.524384e-002 
-1.740134e-002 
-2.064516e-002 
-2.314467e-002 
-2.437898e-002 
-2.319693e-002 
-2.006544e-002 
-1.607309e-002 
-1.406025e-002 
-1.555015e-002 
-1.753794e-002 
-1.613489e-002 
-1.587386e-002 
-1.655978e-002 
-1.614736e-002 
-1.721275e-002 
-1.916494e-002 
-2.299725e-002 
-2.709019e-002 
-2.699958e-002 
-2.700294e-002 
-3.101735e-002 
-3.205747e-002 
-3.105524e-002 
-3.080824e-002 
-3.031475e-002 
-3.230457e-002 
-3.499702e-002 
-3.648487e-002 
-3.881282e-002 
-3.904305e-002 
-3.522758e-002 
-3.314646e-002 
-3.430686e-002 
-3.694046e-002 
-3.953062e-002 
-3.973876e-002 
-3.864475e-002 
-3.892155e-002 
-4.000784e-002 
-4.124097e-002 
-4.326299e-002 
-4.472872e-002 
-4.490503e-002 
-4.478604e-002 
-4.599772e-002 
-4.762569e-002 
-4.904991e-002 
-4.836525e-002 
-4.578642e-002 
-4.306327e-002 
-4.116157e-002 
-4.063761e-002 
-4.002086e-002 
-3.639751e-002 
-3.001717e-002 
-2.277392e-002 
-1.490718e-002 
-7.220374e-003 
2.361963e-003 
1.353379e-002 
2.529296e-002 
3.776679e-002 
4.890808e-002 
5.625377e-002 
6.295539e-002 
6.986735e-002 
7.716504e-002 
8.426834e-002 
8.766306e-002 
8.697767e-002 
8.341973e-002 
7.872887e-002 
7.411996e-002 
7.076897e-002 
6.597941e-002 
5.936592e-002 
5.075403e-002 
4.051707e-002 
3.020491e-002 
2.079982e-002 
1.315163e-002 
5.722429e-003 
-8.879292e-004 
-8.634612e-003 
-1.544196e-002 
-2.216435e-002 
-2.972490e-002 
-3.546680e-002 
-3.979600e-002 
-4.385712e-002 
-5.066272e-002 
-5.888078e-002 
-6.726922e-002 
-7.297183e-002 
-7.965979e-002 
-8.576129e-002 
-8.982101e-002 
-9.520722e-002 
-1.024595e-001 
-1.099364e-001 
-1.132163e-001 
-1.127182e-001 
-1.106106e-001 
-1.115819e-001 
-1.142109e-001 
-1.174851e-001 
-1.201971e-001 
-1.203762e-001 
-1.186556e-001 
-1.161674e-001 
-1.150977e-001 
-1.160111e-001 
-1.185050e-001 
-1.202016e-001 
-1.193248e-001 
-1.174686e-001 
-1.165561e-001 
-1.158134e-001 
-1.141219e-001 
-1.132871e-001 
-1.139944e-001 
-1.194877e-001 
-1.331902e-001 
-1.552818e-001 
-1.864088e-001 
-2.269792e-001 
-2.833660e-001 
-3.644896e-001 
-4.741066e-001 
-6.087002e-001 
-7.601980e-001 
-9.181253e-001 
-1.073595e+000 
-1.225075e+000 
-1.379009e+000 
-1.540452e+000 
-1.704375e+000 
-1.864024e+000 
-2.009071e+000 
-2.130375e+000 
-2.229061e+000 
-2.307624e+000 
-2.368859e+000 
-2.413673e+000 
-2.435984e+000 
-2.430954e+000 
-2.399455e+000 
-2.341131e+000 
-2.262016e+000 
-2.172118e+000 
-2.072326e+000 
-1.963911e+000 
-1.850841e+000 
-1.735609e+000 
-1.619352e+000 
-1.501776e+000 
-1.380649e+000 
-1.256887e+000 
-1.128813e+000 
-9.934250e-001 
-8.551586e-001 
-7.198594e-001 
-5.888088e-001 
-4.612167e-001 
-3.386361e-001 
-2.198192e-001 
-1.042536e-001 
7.193172e-003 
1.125149e-001 
2.075155e-001 
2.901801e-001 
3.635272e-001 
4.266426e-001 
4.818778e-001 
5.337145e-001 
5.780620e-001 
6.147260e-001 
6.459511e-001 
6.699100e-001 
6.896168e-001 
7.056707e-001 
7.174059e-001 
7.294634e-001 
7.397375e-001 
7.470151e-001 
7.539748e-001 
7.588422e-001 
7.635323e-001 
7.689475e-001 
7.734258e-001 
7.789743e-001 
7.840515e-001 
7.879344e-001 
7.913869e-001 
7.910504e-001 
7.924779e-001 
7.970969e-001 
7.997120e-001 
8.031500e-001 
8.057939e-001 
8.057212e-001 
8.065122e-001 
8.066586e-001 
8.077325e-001 
8.141204e-001 
8.169551e-001 
8.168699e-001 
8.183019e-001 
8.179869e-001 
8.165837e-001 
8.156944e-001 
8.140102e-001 
8.139431e-001 
8.126606e-001 
8.091647e-001 
8.080028e-001 
8.065260e-001 
8.017932e-001 
7.955872e-001 
7.902578e-001 
7.863446e-001 
7.827806e-001 
7.776905e-001 
7.726128e-001 
7.653691e-001 
7.562959e-001 
7.481613e-001 
7.422117e-001 
7.372163e-001 
7.313140e-001 
7.217956e-001 
7.105948e-001 
6.985847e-001 
6.863197e-001 
6.757700e-001 
6.644566e-001 
6.501346e-001 
6.345498e-001 
6.176308e-001 
5.992201e-001 
5.821073e-001 
5.632031e-001 
5.427213e-001 
5.216484e-001 
4.991163e-001 
4.766911e-001 
4.555232e-001 
4.328221e-001 
4.087731e-001 
3.848537e-001 
3.602158e-001 
3.379069e-001 
3.165966e-001 
2.939211e-001 
2.712495e-001 
2.480778e-001 
2.257221e-001 
2.046385e-001 
1.869964e-001 
1.718156e-001 
1.569195e-001 
1.407300e-001 
1.252847e-001 
1.126293e-001 
1.015112e-001 
9.134807e-002 
8.106325e-002 
7.403694e-002 
6.852825e-002 
6.394122e-002 
6.045677e-002 
5.757888e-002 
5.471487e-002 
5.210998e-002 
5.024694e-002 
5.014707e-002 
5.292472e-002 
5.489675e-002 
5.613129e-002 
5.687508e-002 
5.773808e-002 
6.153727e-002 
6.738171e-002 
7.304141e-002 
7.788398e-002 
8.139531e-002 
8.420758e-002 
8.849039e-002 
9.228349e-002 
9.594916e-002 
1.003625e-001 
1.040757e-001 
1.073749e-001 
1.104986e-001 
1.134372e-001 
1.182582e-001 
1.229869e-001 
1.259483e-001 
1.308533e-001 
1.360766e-001 
1.406273e-001 
1.432840e-001 
1.434623e-001 
1.439533e-001 
1.473324e-001 
1.495258e-001 
1.521114e-001 
1.546001e-001 
1.533453e-001 
1.514913e-001 
1.496921e-001 
1.484536e-001 
1.484020e-001 
1.476069e-001 
1.442919e-001 
1.410278e-001 
1.359164e-001 
1.315590e-001 
1.298458e-001 
1.269980e-001 
1.223733e-001 
1.177741e-001 
1.152206e-001 
1.135755e-001 
1.106038e-001 
1.068513e-001 
1.026682e-001 
9.632691e-002 
9.041221e-002 
8.573052e-002 
8.268386e-002 
7.993419e-002 
7.389541e-002 
6.734060e-002 
6.330858e-002 
5.995369e-002 
5.814509e-002 
5.845501e-002 
5.527680e-002 
5.019413e-002 
4.565618e-002 
4.216421e-002 
4.174202e-002 
4.219615e-002 
4.030811e-002 
3.801884e-002 
3.597922e-002 
3.120197e-002 
2.912965e-002 
2.941178e-002 
2.878851e-002 
2.834138e-002 
2.698720e-002 
2.411381e-002 
2.295210e-002 
2.198527e-002 
1.966217e-002 
2.033304e-002 
2.038559e-002 
2.073827e-002 
2.276181e-002 
2.235758e-002 
1.937931e-002 
1.751438e-002 
1.668247e-002 
1.690749e-002 
1.765951e-002 
1.598637e-002 
1.385622e-002 
1.020928e-002 
5.480030e-003 
2.658365e-003 
3.763128e-003 
5.134737e-003 
3.154499e-003 
-8.234677e-004 
-3.554263e-003 
-4.793000e-003 
-5.102402e-003 
-4.165219e-003 
-3.801450e-003 
-3.686034e-003 
-4.983016e-003 
-6.777053e-003 
-5.883966e-003 
-3.229459e-003 
-2.078947e-003 
-5.010214e-004 
2.479289e-003 
6.549237e-003 
1.313779e-002 
2.039589e-002 
2.647551e-002 
3.452916e-002 
4.381791e-002 
5.327035e-002 
6.497257e-002 
7.723484e-002 
8.736398e-002 
9.443459e-002 
9.884920e-002 
1.034168e-001 
1.099863e-001 
1.138407e-001 
1.145134e-001 
1.142940e-001 
1.126705e-001 
1.082899e-001 
1.030243e-001 
9.887193e-002 
9.424979e-002 
8.667500e-002 
7.697923e-002 
6.747648e-002 
5.969586e-002 
5.246232e-002 
4.322624e-002 
3.385455e-002 
2.567944e-002 
1.689164e-002 
8.200797e-003 
6.496678e-004 
-6.618468e-003 
-1.305690e-002 
-1.936129e-002 
-2.739271e-002 
-3.524941e-002 
-4.295656e-002 
-5.197624e-002 
-5.958474e-002 
-6.460881e-002 
-6.827639e-002 
-7.124548e-002 
-7.402377e-002 
-7.893814e-002 
-8.315028e-002 
-8.660520e-002 
-8.752938e-002 
-8.580470e-002 
-8.499044e-002 
-8.591861e-002 
-8.792318e-002 
-9.004945e-002 
-9.241272e-002 
-9.370168e-002 
-9.542549e-002 
-9.626532e-002 
-9.859641e-002 
-1.006904e-001 
-1.016898e-001 
-1.025013e-001 
-1.015230e-001 
-1.005699e-001 
-1.006873e-001 
-1.018280e-001 
-1.072124e-001 
-1.213469e-001 
-1.444206e-001 
-1.831604e-001 
-2.378623e-001 
-3.089422e-001 
-4.060146e-001 
-5.328245e-001 
-6.851357e-001 
-8.533025e-001 
-1.022847e+000 
-1.188553e+000 
-1.353159e+000 
-1.514403e+000 
-1.678140e+000 
-1.848919e+000 
-2.014403e+000 
-2.158390e+000 
-2.272742e+000 
-2.360532e+000 
-2.431031e+000 
-2.484600e+000 
-2.516218e+000 
-2.523590e+000 
-2.500930e+000 
-2.443804e+000 
-2.356072e+000 
-2.247104e+000 
-2.127384e+000 
-2.001612e+000 
-1.869248e+000 
-1.732183e+000 
-1.594671e+000 
-1.458154e+000 
-1.318069e+000 
-1.171560e+000 
-1.019182e+000 
-8.635579e-001 
-7.092589e-001 
-5.593320e-001 
-4.160731e-001 
-2.796452e-001 
-1.483499e-001 
-2.127025e-002 
9.683580e-002 
2.033898e-001 
2.986167e-001 
3.824233e-001 
4.569751e-001 
5.237077e-001 
5.818001e-001 
6.292402e-001 
6.685472e-001 
7.007602e-001 
7.264273e-001 
7.491602e-001 
7.689256e-001 
7.843833e-001 
7.971537e-001 
8.069873e-001 
8.137878e-001 
8.217381e-001 
8.280434e-001 
8.333583e-001 
8.413240e-001 
8.476664e-001 
8.521516e-001 
8.561832e-001 
8.572795e-001 
8.585616e-001 
8.619670e-001 
8.650302e-001 
8.699952e-001 
8.754806e-001 
8.780809e-001 
8.793618e-001 
8.794443e-001 
8.808215e-001 
8.847620e-001 
8.874806e-001 
8.889890e-001 
8.896139e-001 
8.893100e-001 
8.893969e-001 
8.906890e-001 
8.922544e-001 
8.921797e-001 
8.887360e-001 
8.848830e-001 
8.821143e-001 
8.794131e-001 
8.773369e-001 
8.747630e-001 
8.708216e-001 
8.639956e-001 
8.560944e-001 
8.499604e-001 
8.449875e-001 
8.384337e-001 
8.297846e-001 
8.198374e-001 
8.093315e-001 
7.990071e-001 
7.880268e-001 
7.759865e-001 
7.614683e-001 
7.452355e-001 
7.283517e-001 
7.116103e-001 
6.952538e-001 
6.778138e-001 
6.588741e-001 
6.368719e-001 
6.114294e-001 
5.869960e-001 
5.651106e-001 
5.428473e-001 
5.192789e-001 
4.939378e-001 
4.675523e-001 
4.414803e-001 
4.131397e-001 
3.850766e-001 
3.609293e-001 
3.379016e-001 
3.145344e-001 
2.924933e-001 
2.703780e-001 
2.477741e-001 
2.254806e-001 
2.042963e-001 
1.873722e-001 
1.737396e-001 
1.605118e-001 
1.482193e-001 
1.364468e-001 
1.232502e-001 
1.124877e-001 
1.062059e-001 
1.021557e-001 
9.834865e-002 
9.462269e-002 
9.081287e-002 
8.896823e-002 
8.869960e-002 
9.007027e-002 
9.301333e-002 
9.542911e-002 
9.607137e-002 
9.751560e-002 
1.013161e-001 
1.066060e-001 
1.128491e-001 
1.169903e-001 
1.189549e-001 
1.201113e-001 
1.228169e-001 
1.262226e-001 
1.314948e-001 
1.361427e-001 
1.400275e-001 
1.440653e-001 
1.480207e-001 
1.530319e-001 
1.578699e-001 
1.607088e-001 
1.620137e-001 
1.646167e-001 
1.664574e-001 
1.704357e-001 
1.750163e-001 
1.771361e-001 
1.768458e-001 
1.745759e-001 
1.731115e-001 
1.741107e-001 
1.763124e-001 
1.772505e-001 
1.770697e-001 
1.742850e-001 
1.703870e-001 
1.669576e-001 
1.649833e-001 
1.635837e-001 
1.607592e-001 
1.552149e-001 
1.442091e-001 
1.294321e-001 
1.123786e-001 
9.163679e-002 
6.696459e-002 
3.955555e-002 
1.082874e-002 
-2.070301e-002 
-5.665969e-002 
-9.441310e-002 
-1.296442e-001 
-1.616785e-001 
-1.904380e-001 
-2.148323e-001 
-2.323014e-001 
-2.433907e-001 
-2.498490e-001 
-2.494151e-001 
-2.395730e-001 
-2.203181e-001 
-1.918042e-001 
-1.533914e-001 
-1.016788e-001 
-3.627689e-002 
3.948110e-002 
1.232552e-001 
2.098410e-001 
2.987656e-001 
3.925015e-001 
4.903675e-001 
5.909682e-001 
6.902034e-001 
7.783347e-001 
8.515176e-001 
9.101302e-001 
9.542323e-001 
9.894662e-001 
1.016010e+000 
1.025376e+000 
1.013130e+000 
9.808747e-001 
9.321031e-001 
8.739079e-001 
8.095047e-001 
7.367784e-001 
6.584925e-001 
5.730918e-001 
4.808305e-001 
3.888133e-001 
3.052362e-001 
2.302398e-001 
1.610655e-001 
9.654868e-002 
3.932484e-002 
-8.460012e-003 
-4.794420e-002 
-7.830378e-002 
-1.015876e-001 
-1.183995e-001 
-1.326829e-001 
-1.458123e-001 
-1.562467e-001 
-1.646007e-001 
-1.750035e-001 
-1.862267e-001 
-1.972859e-001 
-2.091692e-001 
-2.183401e-001 
-2.254138e-001 
-2.325773e-001 
-2.407127e-001 
-2.496389e-001 
-2.588368e-001 
-2.665818e-001 
-2.747300e-001 
-2.825972e-001 
-2.879433e-001 
-2.939158e-001 
-3.002713e-001 
-3.043057e-001 
-3.073955e-001 
-3.116085e-001 
-3.157516e-001 
-3.183341e-001 
-3.177651e-001 
-3.176140e-001 
-3.207178e-001 
-3.219235e-001 
-3.217424e-001 
-3.250652e-001 
-3.298103e-001 
-3.334270e-001 
-3.377896e-001 
-3.450054e-001 
-3.573207e-001 
-3.706612e-001 
-3.820945e-001 
-3.977688e-001 
-4.184885e-001 
-4.389116e-001 
-4.590808e-001 
-4.793191e-001 
-5.007566e-001 
-5.239131e-001 
-5.473914e-001 
-5.732729e-001 
-6.001856e-001 
-6.243746e-001 
-6.451695e-001 
-6.652278e-001 
-6.849996e-001 
-7.060828e-001 
-7.261505e-001 
-7.434204e-001 
-7.571661e-001 
-7.657804e-001 
-7.739757e-001 
-7.826876e-001 
-7.914704e-001 
-7.999100e-001 
-8.046304e-001 
-8.035229e-001 
-8.005953e-001 
-7.947673e-001 
-7.865310e-001 
-7.781512e-001 
-7.652483e-001 
-7.503378e-001 
-7.327041e-001 
-7.087148e-001 
-6.831522e-001 
-6.566845e-001 
-6.259237e-001 
-5.946090e-001 
-5.624945e-001 
-5.285703e-001 
-4.950703e-001 
-4.586594e-001 
-4.189062e-001 
-3.808920e-001 
-3.439267e-001 
-3.075601e-001 
-2.719762e-001 
-2.365139e-001 
-2.006329e-001 
-1.647212e-001 
-1.304022e-001 
-9.884309e-002 
-7.175371e-002 
-4.563953e-002 
-1.848744e-002 
7.194972e-003 
3.059196e-002 
5.359147e-002 
7.341404e-002 
8.870557e-002 
1.034712e-001 
1.168538e-001 
1.296043e-001 
1.410455e-001 
1.507498e-001 
1.594912e-001 
1.679633e-001 
1.724252e-001 
1.750820e-001 
1.798549e-001 
1.826972e-001 
1.866887e-001 
1.924841e-001 
1.980895e-001 
2.012805e-001 
2.020126e-001 
2.005356e-001 
2.020179e-001 
2.056542e-001 
2.088580e-001 
2.128548e-001 
2.153192e-001 
2.158385e-001 
2.151160e-001 
2.154545e-001 
2.174244e-001 
2.182720e-001 
2.183223e-001 
2.178179e-001 
2.164990e-001 
2.162745e-001 
2.177473e-001 
2.193143e-001 
2.203054e-001 
2.188472e-001 
2.163694e-001 
2.177939e-001 
2.186343e-001 
2.174637e-001 
2.160600e-001 
2.138379e-001 
2.104691e-001 
2.071534e-001 
2.049391e-001 
2.047321e-001 
2.043611e-001 
1.996017e-001 
1.949355e-001 
1.928652e-001 
1.916377e-001 
1.908272e-001 
1.901201e-001 
1.902171e-001 
1.897620e-001 
1.871097e-001 
1.859698e-001 
1.879206e-001 
1.892636e-001 
1.904268e-001 
1.904851e-001 
1.906312e-001 
1.915112e-001 
1.894537e-001 
1.868214e-001 
1.862554e-001 
1.841210e-001 
1.831402e-001 
1.823995e-001 
1.792459e-001 
1.767190e-001 
1.726783e-001 
1.677788e-001 
1.661391e-001 
1.658316e-001 
1.652260e-001 
1.650077e-001 
1.619642e-001 
1.598996e-001 
1.592198e-001 
1.576834e-001 
1.563264e-001 
1.555405e-001 
1.535736e-001 
1.506671e-001 
1.483917e-001 
1.470188e-001 
1.464374e-001 
1.439653e-001 
1.410148e-001 
1.383143e-001 
1.377559e-001 
1.371126e-001 
1.360253e-001 
1.353861e-001 
1.332942e-001 
1.300358e-001 
1.274276e-001 
1.256053e-001 
1.248701e-001 
1.258099e-001 
1.255306e-001 
1.250831e-001 
1.247049e-001 
1.244781e-001 
1.245530e-001 
1.234694e-001 
1.228109e-001 
1.239806e-001 
1.249183e-001 
1.247241e-001 
1.240069e-001 
1.242563e-001 
1.254378e-001 
1.261352e-001 
1.278552e-001 
1.326521e-001 
1.354336e-001 
1.355986e-001 
1.364670e-001 
1.388435e-001 
1.418912e-001 
1.428963e-001 
1.419040e-001 
1.410069e-001 
1.394823e-001 
1.368718e-001 
1.373461e-001 
1.398677e-001 
1.411778e-001 
1.392919e-001 
1.352889e-001 
1.322401e-001 
1.314535e-001 
1.313306e-001 
1.317498e-001 
1.309920e-001 
1.289952e-001 
1.272057e-001 
1.252257e-001 
1.249035e-001 
1.262797e-001 
1.278485e-001 
1.282071e-001 
1.271630e-001 
1.257699e-001 
1.263326e-001 
1.256336e-001 
1.243622e-001 
1.234575e-001 
1.239125e-001 
1.253880e-001 
1.240609e-001 
1.220152e-001 
1.214731e-001 
1.214455e-001 
1.213392e-001 
1.224146e-001 
1.233100e-001 
1.250704e-001 
1.231042e-001 
1.194000e-001 
1.199791e-001 
1.225751e-001 
1.244111e-001 
1.247644e-001 
1.232779e-001 
1.212757e-001 
1.198156e-001 
1.185408e-001 
1.210649e-001 
1.231751e-001 
1.226509e-001 
1.201414e-001 
1.176492e-001 
1.169967e-001 
1.181251e-001 
1.196812e-001 
1.207723e-001 
1.200965e-001 
1.177620e-001 
1.174495e-001 
1.174848e-001 
1.174588e-001 
1.174097e-001 
1.168230e-001 
1.142283e-001 
1.112799e-001 
1.075680e-001 
1.041215e-001 
1.012715e-001 
9.748559e-002 
9.420654e-002 
9.196239e-002 
8.866128e-002 
8.365813e-002 
7.987614e-002 
7.630090e-002 
7.356937e-002 
7.252407e-002 
7.167696e-002 
6.893065e-002 
6.534111e-002 
6.165525e-002 
5.903410e-002 
5.862706e-002 
5.896325e-002 
5.919931e-002 
5.859229e-002 
5.588182e-002 
5.120765e-002 
4.959575e-002 
4.951496e-002 
4.822339e-002 
4.668866e-002 
4.515960e-002 
4.398318e-002 
4.475643e-002 
4.394781e-002 
4.330249e-002 
4.531775e-002 
4.562592e-002 
4.474313e-002 
4.386779e-002 
4.390436e-002 
4.409138e-002 
4.273800e-002 
3.875259e-002 
3.763329e-002 
3.728473e-002 
3.556284e-002 
3.331894e-002 
3.140392e-002 
3.093717e-002 
2.999241e-002 
2.888549e-002 
2.853508e-002 
2.706088e-002 
2.330139e-002 
2.223291e-002 
2.258614e-002 
2.398518e-002 
2.557273e-002 
2.481943e-002 
2.398855e-002 
2.205390e-002 
1.868572e-002 
1.957888e-002 
2.278637e-002 
2.220909e-002 
2.034443e-002 
1.829034e-002 
1.625949e-002 
1.536762e-002 
1.299487e-002 
1.138571e-002 
1.119257e-002 
9.845831e-003 
8.194358e-003 
7.269346e-003 
7.771104e-003 
7.252797e-003 
4.040473e-003 
1.382066e-003 
1.307176e-003 
2.723832e-003 
5.360936e-003 
3.514082e-003 
-7.676784e-004 
-3.819052e-003 
-6.586291e-003 
-5.531564e-003 
-1.945794e-004 
4.856668e-003 
9.206150e-003 
1.277698e-002 
1.564561e-002 
2.348688e-002 
3.472426e-002 
4.694625e-002 
5.829092e-002 
6.624550e-002 
7.151388e-002 
7.859715e-002 
8.561978e-002 
8.986779e-002 
9.223456e-002 
9.206456e-002 
9.087212e-002 
8.840469e-002 
8.418152e-002 
8.037612e-002 
7.741933e-002 
7.106834e-002 
6.175560e-002 
5.340796e-002 
4.576811e-002 
3.851582e-002 
2.987457e-002 
2.140200e-002 
1.411694e-002 
6.913335e-003 
-1.024274e-003 
-8.652270e-003 
-1.521988e-002 
-2.221071e-002 
-2.942121e-002 
-3.627405e-002 
-4.319069e-002 
-5.307578e-002 
-6.456087e-002 
-7.705707e-002 
-8.842635e-002 
-9.736113e-002 
-1.035713e-001 
-1.090041e-001 
-1.159649e-001 
-1.248217e-001 
-1.333430e-001 
-1.403451e-001 
-1.454058e-001 
-1.478999e-001 
-1.494720e-001 
-1.506555e-001 
-1.534905e-001 
-1.571810e-001 
-1.601179e-001 
-1.632876e-001 
-1.668995e-001 
-1.683552e-001 
-1.677424e-001 
-1.659780e-001 
-1.653973e-001 
-1.682505e-001 
-1.746156e-001 
-1.862414e-001 
-2.045983e-001 
-2.293030e-001 
-2.627323e-001 
-3.114650e-001 
-3.835652e-001 
-4.854087e-001 
-6.150248e-001 
-7.640847e-001 
-9.212039e-001 
-1.078630e+000 
-1.233259e+000 
-1.387021e+000 
-1.544655e+000 
-1.706645e+000 
-1.868857e+000 
-2.021274e+000 
-2.153092e+000 
-2.259485e+000 
-2.344001e+000 
-2.409166e+000 
-2.458622e+000 
-2.490231e+000 
-2.498632e+000 
-2.479226e+000 
-2.430556e+000 
-2.356013e+000 
-2.264112e+000 
-2.164791e+000 
-2.061925e+000 
-1.956792e+000 
-1.848926e+000 
-1.738802e+000 
-1.624931e+000 
-1.509040e+000 
-1.388509e+000 
-1.264135e+000 
-1.135805e+000 
-1.002507e+000 
-8.690767e-001 
-7.381614e-001 
-6.084147e-001 
-4.803356e-001 
-3.557102e-001 
-2.332385e-001 
-1.157008e-001 
-3.494963e-003 
9.940880e-002 
1.919788e-001 
2.775651e-001 
3.558297e-001 
4.250860e-001 
4.853968e-001 
5.379817e-001 
5.825741e-001 
6.214887e-001 
6.548933e-001 
6.850045e-001 
7.101551e-001 
7.285580e-001 
7.419549e-001 
7.530400e-001 
7.639213e-001 
7.725896e-001 
7.801689e-001 
7.866982e-001 
7.929637e-001 
7.973456e-001 
8.013275e-001 
8.048746e-001 
8.084893e-001 
8.110390e-001 
8.109770e-001 
8.120796e-001 
8.135713e-001 
8.132927e-001 
8.106758e-001 
8.073700e-001 
8.048158e-001 
8.043360e-001 
8.033261e-001 
8.016523e-001 
8.002658e-001 
7.977066e-001 
7.947032e-001 
7.923956e-001 
7.919240e-001 
7.922140e-001 
7.887093e-001 
7.834413e-001 
7.786231e-001 
7.756150e-001 
7.748113e-001 
7.737522e-001 
7.719568e-001 
7.680017e-001 
7.615279e-001 
7.555647e-001 
7.527208e-001 
7.487142e-001 
7.446810e-001 
7.393405e-001 
7.322530e-001 
7.254688e-001 
7.191324e-001 
7.151046e-001 
7.106442e-001 
7.042753e-001 
6.971181e-001 
6.915025e-001 
6.859762e-001 
6.806353e-001 
6.735444e-001 
6.652797e-001 
6.551387e-001 
6.443097e-001 
6.364709e-001 
6.302484e-001 
6.225345e-001 
6.126936e-001 
6.020491e-001 
5.898439e-001 
5.780531e-001 
5.659263e-001 
5.544384e-001 
5.431132e-001 
5.308289e-001 
5.161562e-001 
5.022215e-001 
4.892171e-001 
4.742308e-001 
4.587173e-001 
4.428635e-001 
4.275843e-001 
4.134122e-001 
3.970641e-001 
3.773275e-001 
3.589340e-001 
3.397038e-001 
3.197554e-001 
3.021499e-001 
2.844771e-001 
2.661980e-001 
2.472666e-001 
2.263857e-001 
2.084753e-001 
1.932562e-001 
1.767195e-001 
1.612557e-001 
1.448285e-001 
1.269211e-001 
1.118688e-001 
9.947950e-002 
8.831173e-002 
7.871007e-002 
6.692305e-002 
5.547148e-002 
4.592395e-002 
3.662645e-002 
3.040282e-002 
2.617898e-002 
2.201258e-002 
1.721329e-002 
1.326258e-002 
1.030569e-002 
9.638905e-003 
9.909164e-003 
1.118984e-002 
1.358302e-002 
1.670383e-002 
2.089887e-002 
2.493527e-002 
2.950700e-002 
3.363029e-002 
3.823735e-002 
4.494108e-002 
5.339228e-002 
6.055046e-002 
6.606806e-002 
7.057517e-002 
7.525267e-002 
8.141950e-002 
8.872836e-002 
9.761739e-002 
1.064410e-001 
1.120145e-001 
1.155517e-001 
1.209806e-001 
1.287031e-001 
1.373237e-001 
1.456045e-001 
1.519164e-001 
1.564370e-001 
1.598187e-001 
1.638326e-001 
1.688252e-001 
1.730066e-001 
1.763589e-001 
1.798091e-001 
1.822528e-001 
1.838965e-001 
1.855629e-001 
1.873524e-001 
1.882704e-001 
1.864020e-001 
1.852652e-001 
1.864434e-001 
1.867831e-001 
1.857404e-001 
1.839511e-001 
1.809717e-001 
1.787314e-001 
1.767655e-001 
1.751902e-001 
1.729627e-001 
1.677908e-001 
1.620342e-001 
1.567975e-001 
1.516281e-001 
1.469831e-001 
1.422883e-001 
1.359958e-001 
1.283362e-001 
1.190342e-001 
1.118773e-001 
1.071907e-001 
1.022923e-001 
9.666121e-002 
9.001591e-002 
8.308069e-002 
7.671077e-002 
7.147949e-002 
6.574893e-002 
6.118467e-002 
5.844862e-002 
5.541987e-002 
5.136387e-002 
4.759692e-002 
4.373889e-002 
4.017870e-002 
3.680484e-002 
3.311199e-002 
3.317785e-002 
3.304019e-002 
2.864955e-002 
2.386261e-002 
1.982115e-002 
1.741222e-002 
1.733863e-002 
1.703004e-002 
1.782833e-002 
1.856667e-002 
1.583628e-002 
1.256378e-002 
1.201293e-002 
1.201965e-002 
1.226988e-002 
1.130983e-002 
9.448887e-003 
9.272914e-003 
9.725453e-003 
9.245404e-003 
7.421371e-003 
6.277332e-003 
4.572279e-003 
3.422735e-003 
2.296843e-003 
6.944361e-004 
-1.600657e-003 
-4.914399e-003 
-1.037496e-002 
-1.387476e-002 
-1.338903e-002 
-1.380677e-002 
-1.514806e-002 
-1.831332e-002 
-2.309951e-002 
-2.720057e-002 
-2.940706e-002 
-3.056237e-002 
-3.107938e-002 
-3.451890e-002 
-3.962590e-002 
-4.313122e-002 
-4.581496e-002 
-4.653651e-002 
-4.588522e-002 
-4.572557e-002 
-4.715595e-002 
-4.973448e-002 
-5.212925e-002 
-5.225399e-002 
-5.265222e-002 
-5.262622e-002 
-5.051940e-002 
-4.923752e-002 
-4.761044e-002 
-4.393832e-002 
-4.019713e-002 
-3.618682e-002 
-3.098524e-002 
-2.390338e-002 
-1.299025e-002 
-1.892577e-003 
6.095888e-003 
1.462571e-002 
2.260550e-002 
2.867776e-002 
3.618439e-002 
4.396392e-002 
5.072520e-002 
5.526205e-002 
5.506439e-002 
5.317161e-002 
5.195179e-002 
4.834529e-002 
4.351993e-002 
3.918288e-002 
3.296083e-002 
2.551827e-002 
1.760763e-002 
8.583087e-003 
-7.481077e-004 
-1.008751e-002 
-1.887353e-002 
-2.475398e-002 
-2.864098e-002 
-3.419673e-002 
-4.053517e-002 
-4.781943e-002 
-5.567100e-002 
-6.144980e-002 
-6.483777e-002 
-6.762310e-002 
-7.116683e-002 
-7.721883e-002 
-8.459942e-002 
-9.176331e-002 
-9.871023e-002 
-1.034570e-001 
-1.079273e-001 
-1.140168e-001 
-1.202630e-001 
-1.248268e-001 
-1.276423e-001 
-1.299768e-001 
-1.335179e-001 
-1.358540e-001 
-1.373381e-001 
-1.392110e-001 
-1.390927e-001 
-1.374759e-001 
-1.371102e-001 
-1.394485e-001 
-1.424751e-001 
-1.436811e-001 
-1.428931e-001 
-1.434575e-001 
-1.437807e-001 
-1.445692e-001 
-1.475358e-001 
-1.506966e-001 
-1.512754e-001 
-1.496925e-001 
-1.488076e-001 
-1.510689e-001 
-1.554243e-001 
-1.627254e-001 
-1.768077e-001 
-1.983296e-001 
-2.298620e-001 
-2.737924e-001 
-3.342797e-001 
-4.163248e-001 
-5.241492e-001 
-6.602675e-001 
-8.203906e-001 
-9.906840e-001 
-1.161288e+000 
-1.329758e+000 
-1.496151e+000 
-1.664154e+000 
-1.836264e+000 
-2.010650e+000 
-2.176187e+000 
-2.317819e+000 
-2.430066e+000 
-2.519628e+000 
-2.593826e+000 
-2.652440e+000 
-2.691644e+000 
-2.705445e+000 
-2.688111e+000 
-2.638606e+000 
-2.564527e+000 
-2.475528e+000 
-2.379967e+000 
-2.278743e+000 
-2.169148e+000 
-2.053686e+000 
-1.934412e+000 
-1.813762e+000 
-1.692294e+000 
-1.565552e+000 
-1.431347e+000 
-1.291546e+000 
-1.146422e+000 
-9.998926e-001 
-8.546445e-001 
-7.113891e-001 
-5.702157e-001 
-4.320839e-001 
-2.980292e-001 
-1.709204e-001 
-5.087017e-002 
6.177396e-002 
1.662073e-001 
2.620593e-001 
3.469980e-001 
4.205900e-001 
4.827812e-001 
5.371720e-001 
5.847538e-001 
6.262947e-001 
6.611054e-001 
6.900996e-001 
7.128928e-001 
7.298305e-001 
7.435702e-001 
7.549083e-001 
7.649671e-001 
7.729988e-001 
7.799737e-001 
7.862230e-001 
7.929454e-001 
7.993164e-001 
8.047260e-001 
8.095472e-001 
8.125452e-001 
8.160928e-001 
8.200677e-001 
8.235062e-001 
8.258337e-001 
8.272667e-001 
8.273839e-001 
8.285663e-001 
8.304019e-001 
8.306029e-001 
8.294892e-001 
8.273281e-001 
8.252488e-001 
8.232011e-001 
8.229130e-001 
8.241541e-001 
8.241680e-001 
8.219887e-001 
8.180662e-001 
8.164105e-001 
8.182602e-001 
8.196051e-001 
8.198603e-001 
8.211365e-001 
8.200931e-001 
8.171631e-001 
8.158879e-001 
8.155392e-001 
8.162804e-001 
8.155635e-001 
8.118451e-001 
8.081253e-001 
8.059310e-001 
8.025594e-001 
7.983414e-001 
7.939069e-001 
7.884419e-001 
7.829961e-001 
7.777128e-001 
7.718869e-001 
7.665471e-001 
7.615836e-001 
7.550468e-001 
7.483892e-001 
7.431953e-001 
7.372306e-001 
7.296043e-001 
7.202450e-001 
7.100543e-001 
7.002757e-001 
6.907212e-001 
6.799047e-001 
6.682077e-001 
6.549153e-001 
6.403507e-001 
6.261516e-001 
6.121707e-001 
5.976144e-001 
5.814740e-001 
5.631539e-001 
5.433550e-001 
5.240624e-001 
5.061959e-001 
4.890616e-001 
4.696735e-001 
4.479741e-001 
4.258656e-001 
4.044085e-001 
3.836673e-001 
3.631808e-001 
3.417245e-001 
3.188173e-001 
2.946780e-001 
2.703795e-001 
2.482365e-001 
2.279028e-001 
2.080907e-001 
1.878508e-001 
1.675878e-001 
1.483110e-001 
1.325910e-001 
1.192660e-001 
1.056498e-001 
9.214383e-002 
8.052371e-002 
7.063346e-002 
6.377954e-002 
5.879805e-002 
5.353010e-002 
4.974564e-002 
4.468040e-002 
3.939570e-002 
3.807069e-002 
3.852313e-002 
3.800817e-002 
3.800791e-002 
3.612809e-002 
3.600087e-002 
3.782471e-002 
3.935982e-002 
4.274138e-002 
4.661620e-002 
4.833334e-002 
5.128524e-002 
5.550881e-002 
5.998125e-002 
6.599830e-002 
7.000841e-002 
7.463502e-002 
8.044254e-002 
8.581365e-002 
9.159994e-002 
9.741725e-002 
1.008801e-001 
1.051432e-001 
1.105284e-001 
1.157756e-001 
1.205319e-001 
1.234404e-001 
1.261837e-001 
1.292878e-001 
1.323193e-001 
1.358966e-001 
1.407929e-001 
1.441588e-001 
1.453156e-001 
1.451679e-001 
1.465396e-001 
1.500914e-001 
1.524481e-001 
1.532506e-001 
1.524273e-001 
1.498044e-001 
1.481898e-001 
1.480150e-001 
1.481539e-001 
1.480756e-001 
1.458158e-001 
1.419505e-001 
1.380437e-001 
1.347536e-001 
1.331065e-001 
1.327336e-001 
1.300636e-001 
1.258100e-001 
1.214741e-001 
1.176717e-001 
1.139626e-001 
1.101310e-001 
1.064600e-001 
1.023043e-001 
9.832560e-002 
9.408978e-002 
8.988901e-002 
8.422769e-002 
7.756042e-002 
7.140105e-002 
6.622629e-002 
6.234034e-002 
5.947188e-002 
5.598704e-002 
5.118796e-002 
4.684803e-002 
4.260062e-002 
4.076198e-002 
3.964645e-002 
3.730128e-002 
3.497917e-002 
3.077001e-002 
2.579795e-002 
2.329734e-002 
2.216529e-002 
2.006664e-002 
1.830491e-002 
1.543807e-002 
1.371559e-002 
1.281804e-002 
1.086253e-002 
9.659834e-003 
8.906049e-003 
7.588252e-003 
5.801034e-003 
5.631879e-003 
6.290502e-003 
7.000397e-003 
4.998861e-003 
3.298455e-003 
4.725055e-003 
7.153649e-003 
8.270849e-003 
7.603060e-003 
6.533374e-003 
4.616518e-003 
2.083660e-003 
-1.044514e-003 
-1.129017e-003 
-1.149208e-003 
-4.533586e-003 
-8.694559e-003 
-1.174779e-002 
-1.256841e-002 
-1.229070e-002 
-1.349354e-002 
-1.539784e-002 
-1.540729e-002 
-1.646606e-002 
-1.789645e-002 
-1.825315e-002 
-1.908343e-002 
-1.895515e-002 
-1.941803e-002 
-2.041071e-002 
-1.922537e-002 
-1.730226e-002 
-1.863589e-002 
-2.052137e-002 
-2.248066e-002 
-2.285409e-002 
-2.101289e-002 
-1.984214e-002 
-1.973864e-002 
-2.043256e-002 
-2.253050e-002 
-2.389839e-002 
-2.210838e-002 
-2.110257e-002 
-1.970404e-002 
-1.844128e-002 
-1.885676e-002 
-1.987046e-002 
-1.905165e-002 
-1.795161e-002 
-1.708713e-002 
-1.835227e-002 
-2.031737e-002 
-1.874167e-002 
-1.677439e-002 
-1.666863e-002 
-1.457536e-002 
-1.077475e-002 
-8.301624e-003 
-4.548694e-003 
2.423974e-003 
1.245794e-002 
2.212059e-002 
2.905427e-002 
3.692501e-002 
4.822966e-002 
5.873006e-002 
6.719781e-002 
7.462566e-002 
8.117303e-002 
8.476771e-002 
8.494343e-002 
8.586654e-002 
8.743910e-002 
8.624176e-002 
8.132780e-002 
7.410291e-002 
6.693050e-002 
6.150513e-002 
5.372438e-002 
4.355551e-002 
3.456207e-002 
2.449330e-002 
1.344799e-002 
4.707985e-003 
-1.732512e-003 
-8.794024e-003 
-1.718681e-002 
-2.740322e-002 
-3.637154e-002 
-4.213577e-002 
-4.868389e-002 
-5.674082e-002 
-6.324869e-002 
-7.093753e-002 
-8.193382e-002 
-9.145388e-002 
-9.886454e-002 
-1.054304e-001 
-1.110764e-001 
-1.176223e-001 
-1.219382e-001 
-1.227480e-001 
-1.255210e-001 
-1.303354e-001 
-1.329316e-001 
-1.347670e-001 
-1.359212e-001 
-1.354652e-001 
-1.352569e-001 
-1.344516e-001 
-1.351767e-001 
-1.387782e-001 
-1.411912e-001 
-1.409191e-001 
-1.414820e-001 
-1.425358e-001 
-1.447636e-001 
-1.488457e-001 
-1.523481e-001 
-1.544231e-001 
-1.561509e-001 
-1.569079e-001 
-1.573034e-001 
-1.582534e-001 
-1.593511e-001 
-1.626698e-001 
-1.712508e-001 
-1.880796e-001 
-2.159141e-001 
-2.577241e-001 
-3.125644e-001 
-3.848799e-001 
-4.822254e-001 
-6.099584e-001 
-7.658363e-001 
-9.403585e-001 
-1.120491e+000 
-1.297003e+000 
-1.470090e+000 
-1.643507e+000 
-1.821232e+000 
-2.001669e+000 
-2.177010e+000 
-2.334774e+000 
-2.465953e+000 
-2.569336e+000 
-2.651199e+000 
-2.717298e+000 
-2.765295e+000 
-2.787960e+000 
-2.780194e+000 
-2.740286e+000 
-2.671347e+000 
-2.580422e+000 
-2.477459e+000 
-2.367022e+000 
-2.251062e+000 
-2.130172e+000 
-2.004072e+000 
-1.874002e+000 
-1.739833e+000 
-1.602753e+000 
-1.462667e+000 
-1.318856e+000 
-1.168161e+000 
-1.015157e+000 
-8.626054e-001 
-7.115815e-001 
-5.636152e-001 
-4.213449e-001 
-2.873531e-001 
-1.609251e-001 
-3.986701e-002 
7.658230e-002 
1.834919e-001 
2.785867e-001 
3.615800e-001 
4.341654e-001 
4.968950e-001 
5.508222e-001 
5.984400e-001 
6.400330e-001 
6.752751e-001 
7.039157e-001 
7.267892e-001 
7.468447e-001 
7.634753e-001 
7.756812e-001 
7.857076e-001 
7.949575e-001 
8.023262e-001 
8.100867e-001 
8.167390e-001 
8.220066e-001 
8.270913e-001 
8.301533e-001 
8.336461e-001 
8.388191e-001 
8.428767e-001 
8.453915e-001 
8.469472e-001 
8.464147e-001 
8.481443e-001 
8.519458e-001 
8.540975e-001 
8.554827e-001 
8.559795e-001 
8.554599e-001 
8.552053e-001 
8.554580e-001 
8.556859e-001 
8.575342e-001 
8.576559e-001 
8.545342e-001 
8.517213e-001 
8.498628e-001 
8.485428e-001 
8.467136e-001 
8.439996e-001 
8.411155e-001 
8.396045e-001 
8.377933e-001 
8.353441e-001 
8.321203e-001 
8.283644e-001 
8.238934e-001 
8.183813e-001 
8.139751e-001 
8.099423e-001 
8.055342e-001 
7.998299e-001 
7.919961e-001 
7.835883e-001 
7.764715e-001 
7.692134e-001 
7.608312e-001 
7.524321e-001 
7.431836e-001 
7.338343e-001 
7.238557e-001 
7.122818e-001 
6.992946e-001 
6.845065e-001 
6.686120e-001 
6.527200e-001 
6.366766e-001 
6.191050e-001 
6.003381e-001 
5.792984e-001 
5.561769e-001 
5.320643e-001 
5.081606e-001 
4.849092e-001 
4.598263e-001 
4.330300e-001 
4.079514e-001 
3.835399e-001 
3.584636e-001 
3.342920e-001 
3.101948e-001 
2.867076e-001 
2.645429e-001 
2.433903e-001 
2.255185e-001 
2.098241e-001 
1.921953e-001 
1.754340e-001 
1.594028e-001 
1.443992e-001 
1.327335e-001 
1.237358e-001 
1.139528e-001 
1.055809e-001 
9.849585e-002 
9.230597e-002 
8.859491e-002 
8.547264e-002 
8.232841e-002 
7.954321e-002 
7.782340e-002 
7.600705e-002 
7.765559e-002 
8.013619e-002 
8.069885e-002 
8.075690e-002 
8.127446e-002 
8.241423e-002 
8.637178e-002 
9.118242e-002 
9.339882e-002 
9.638530e-002 
9.848267e-002 
9.965749e-002 
1.035246e-001 
1.081647e-001 
1.118536e-001 
1.155886e-001 
1.188374e-001 
1.230602e-001 
1.289818e-001 
1.340835e-001 
1.390727e-001 
1.432603e-001 
1.456632e-001 
1.479996e-001 
1.516459e-001 
1.560017e-001 
1.582245e-001 
1.580419e-001 
1.577900e-001 
1.575798e-001 
1.588383e-001 
1.604210e-001 
1.612048e-001 
1.609684e-001 
1.595393e-001 
1.576606e-001 
1.565393e-001 
1.550203e-001 
1.525500e-001 
1.498406e-001 
1.461060e-001 
1.424775e-001 
1.388468e-001 
1.361540e-001 
1.329389e-001 
1.275458e-001 
1.211443e-001 
1.168188e-001 
1.142026e-001 
1.113790e-001 
1.063405e-001 
1.005426e-001 
9.558359e-002 
9.087356e-002 
8.675051e-002 
8.411875e-002 
8.222290e-002 
7.903487e-002 
7.492623e-002 
7.161006e-002 
6.995859e-002 
6.900496e-002 
6.660731e-002 
6.309852e-002 
5.984592e-002 
5.677786e-002 
5.471921e-002 
5.419434e-002 
5.326880e-002 
5.091847e-002 
4.808452e-002 
4.529094e-002 
4.434712e-002 
4.426324e-002 
4.257854e-002 
4.025133e-002 
3.859631e-002 
3.646303e-002 
3.457527e-002 
3.432634e-002 
3.300792e-002 
3.060443e-002 
2.829425e-002 
2.590241e-002 
2.570786e-002 
2.646959e-002 
2.504148e-002 
2.330725e-002 
2.275650e-002 
2.159244e-002 
2.240288e-002 
2.446982e-002 
2.622044e-002 
2.747702e-002 
2.623953e-002 
2.511537e-002 
2.712750e-002 
3.050493e-002 
3.183290e-002 
3.119688e-002 
3.080503e-002 
3.043834e-002 
2.898914e-002 
2.742749e-002 
2.742037e-002 
2.746532e-002 
2.661991e-002 
2.401310e-002 
2.301542e-002 
2.386533e-002 
2.327912e-002 
2.264428e-002 
2.239654e-002 
2.237418e-002 
2.330042e-002 
2.443095e-002 
2.360361e-002 
2.291177e-002 
2.154933e-002 
2.064179e-002 
2.072651e-002 
2.000352e-002 
1.936730e-002 
1.838846e-002 
1.579747e-002 
1.258591e-002 
1.082802e-002 
9.551388e-003 
7.706573e-003 
4.592330e-003 
1.859742e-003 
2.221143e-004 
-1.570268e-003 
-3.105858e-003 
-4.951925e-003 
-6.717340e-003 
-8.625000e-003 
-1.084532e-002 
-1.143578e-002 
-1.010399e-002 
-1.052718e-002 
-1.234248e-002 
-1.467393e-002 
-1.648545e-002 
-1.600621e-002 
-1.570349e-002 
-1.474647e-002 
-1.216256e-002 
-8.984042e-003 
-5.828549e-003 
-9.495805e-004 
6.112574e-003 
1.437493e-002 
2.181532e-002 
3.013906e-002 
4.077176e-002 
5.170581e-002 
6.247755e-002 
6.970955e-002 
7.386729e-002 
7.744663e-002 
7.999411e-002 
8.288591e-002 
8.731677e-002 
8.917555e-002 
8.799321e-002 
8.428447e-002 
7.675242e-002 
7.035250e-002 
6.611106e-002 
5.958973e-002 
5.172380e-002 
4.282444e-002 
3.282627e-002 
2.378608e-002 
1.451832e-002 
4.338801e-003 
-4.244240e-003 
-1.284142e-002 
-2.240784e-002 
-2.985261e-002 
-3.682733e-002 
-4.273921e-002 
-4.991344e-002 
-5.978527e-002 
-6.897293e-002 
-7.475370e-002 
-8.010412e-002 
-8.622774e-002 
-9.235196e-002 
-9.898252e-002 
-1.036100e-001 
-1.091319e-001 
-1.125794e-001 
-1.132367e-001 
-1.138371e-001 
-1.167878e-001 
-1.196953e-001 
-1.212650e-001 
-1.230529e-001 
-1.237474e-001 
-1.247145e-001 
-1.245841e-001 
-1.252042e-001 
-1.267266e-001 
-1.285833e-001 
-1.295545e-001 
-1.310602e-001 
-1.325095e-001 
-1.303258e-001 
-1.272882e-001 
-1.260593e-001 
-1.304467e-001 
-1.422339e-001 
-1.617536e-001 
-1.912424e-001 
-2.335270e-001 
-2.918976e-001 
-3.732395e-001 
-4.860386e-001 
-6.279773e-001 
-7.891677e-001 
-9.551363e-001 
-1.119091e+000 
-1.282681e+000 
-1.446444e+000 
-1.613546e+000 
-1.783947e+000 
-1.951716e+000 
-2.105792e+000 
-2.235352e+000 
-2.338189e+000 
-2.420217e+000 
-2.485253e+000 
-2.531820e+000 
-2.554828e+000 
-2.548396e+000 
-2.511419e+000 
-2.444166e+000 
-2.349133e+000 
-2.234701e+000 
-2.110175e+000 
-1.982456e+000 
-1.851525e+000 
-1.717118e+000 
-1.580828e+000 
-1.443425e+000 
-1.302332e+000 
-1.156484e+000 
-1.006819e+000 
-8.568730e-001 
-7.096084e-001 
-5.657299e-001 
-4.266046e-001 
-2.926093e-001 
-1.658951e-001 
-4.754195e-002 
6.280274e-002 
1.662935e-001 
2.591597e-001 
3.391464e-001 
4.080380e-001 
4.682951e-001 
5.214944e-001 
5.680328e-001 
6.073156e-001 
6.405124e-001 
6.676403e-001 
6.880829e-001 
7.041184e-001 
7.176054e-001 
7.296081e-001 
7.397843e-001 
7.467021e-001 
7.516509e-001 
7.560134e-001 
7.610796e-001 
7.663065e-001 
7.700022e-001 
7.727294e-001 
7.753195e-001 
7.765949e-001 
7.778142e-001 
7.787343e-001 
7.779516e-001 
7.781231e-001 
7.778140e-001 
7.773638e-001 
7.780840e-001 
7.789974e-001 
7.781815e-001 
7.762784e-001 
7.729391e-001 
7.706695e-001 
7.708807e-001 
7.702952e-001 
7.687005e-001 
7.660611e-001 
7.628059e-001 
7.592413e-001 
7.574148e-001 
7.559983e-001 
7.538810e-001 
7.516785e-001 
7.489045e-001 
7.461744e-001 
7.435763e-001 
7.409808e-001 
7.379860e-001 
7.354661e-001 
7.305726e-001 
7.251904e-001 
7.217954e-001 
7.172989e-001 
7.102117e-001 
7.014328e-001 
6.931195e-001 
6.866604e-001 
6.806823e-001 
6.722335e-001 
6.630148e-001 
6.532480e-001 
6.426796e-001 
6.313710e-001 
6.210420e-001 
6.120373e-001 
6.026050e-001 
5.905341e-001 
5.762087e-001 
5.622710e-001 
5.499476e-001 
5.377571e-001 
5.226735e-001 
5.066097e-001 
4.903535e-001 
4.735172e-001 
4.551422e-001 
4.367922e-001 
4.170504e-001 
3.961931e-001 
3.743864e-001 
3.533133e-001 
3.345153e-001 
3.162085e-001 
2.963751e-001 
2.743180e-001 
2.534247e-001 
2.336240e-001 
2.152018e-001 
1.975204e-001 
1.816490e-001 
1.650683e-001 
1.492951e-001 
1.341900e-001 
1.204687e-001 
1.096257e-001 
9.728787e-002 
8.382777e-002 
7.339003e-002 
6.543210e-002 
5.825751e-002 
5.348957e-002 
4.782661e-002 
4.157690e-002 
3.478233e-002 
2.924767e-002 
2.909181e-002 
3.086276e-002 
3.056475e-002 
2.963727e-002 
2.947502e-002 
2.847886e-002 
2.768624e-002 
2.859943e-002 
3.226018e-002 
3.589838e-002 
3.713370e-002 
3.846384e-002 
4.229062e-002 
4.705428e-002 
4.892056e-002 
5.137975e-002 
5.608724e-002 
6.159962e-002 
6.633950e-002 
7.017449e-002 
7.315429e-002 
7.615415e-002 
7.822271e-002 
8.037533e-002 
8.503510e-002 
8.954309e-002 
9.219852e-002 
9.258167e-002 
9.305761e-002 
9.376893e-002 
9.505540e-002 
9.730731e-002 
9.826102e-002 
9.696557e-002 
9.546987e-002 
9.547766e-002 
9.631908e-002 
9.832681e-002 
9.785747e-002 
9.668643e-002 
9.656789e-002 
9.462580e-002 
9.327516e-002 
9.432749e-002 
9.431481e-002 
9.205770e-002 
8.900963e-002 
8.429076e-002 
8.222876e-002 
8.069393e-002 
7.653779e-002 
7.269839e-002 
7.004677e-002 
6.713783e-002 
6.473127e-002 
6.127335e-002 
5.769511e-002 
5.639896e-002 
5.336644e-002 
4.996105e-002 
4.859334e-002 
4.775162e-002 
4.606942e-002 
4.357309e-002 
4.089502e-002 
3.962736e-002 
3.897321e-002 
3.764548e-002 
3.630992e-002 
3.412213e-002 
3.295816e-002 
3.270534e-002 
3.301393e-002 
3.285459e-002 
3.210080e-002 
3.158882e-002 
3.141676e-002 
3.232053e-002 
3.508346e-002 
3.859558e-002 
3.909088e-002 
3.875063e-002 
3.948052e-002 
4.201878e-002 
4.580250e-002 
5.027139e-002 
5.286208e-002 
5.293358e-002 
5.143096e-002 
5.072193e-002 
5.293621e-002 
5.671871e-002 
5.879751e-002 
5.937429e-002 
5.844276e-002 
5.660042e-002 
5.741672e-002 
5.998789e-002 
6.263987e-002 
6.536153e-002 
6.729926e-002 
6.714162e-002 
6.722287e-002 
6.792322e-002 
7.058664e-002 
7.322159e-002 
7.459887e-002 
7.679057e-002 
8.201759e-002 
8.786640e-002 
9.275849e-002 
9.830128e-002 
1.051069e-001 
1.136823e-001 
1.224599e-001 
1.285072e-001 
1.295283e-001 
1.280219e-001 
1.248179e-001 
1.226422e-001 
1.231604e-001 
1.261407e-001 
1.293803e-001 
1.278431e-001 
1.195901e-001 
1.098666e-001 
1.055517e-001 
1.049484e-001 
1.041485e-001 
1.027971e-001 
1.011199e-001 
9.660914e-002 
9.092929e-002 
8.731095e-002 
8.851046e-002 
9.574132e-002 
1.031591e-001 
1.086225e-001 
1.151764e-001 
1.206104e-001 
1.231920e-001 
1.247362e-001 
1.253983e-001 
1.284819e-001 
1.331316e-001 
1.347747e-001 
1.349699e-001 
1.357125e-001 
1.347405e-001 
1.337191e-001 
1.334885e-001 
1.345104e-001 
1.371000e-001 
1.358375e-001 
1.325631e-001 
1.327989e-001 
1.347234e-001 
1.363753e-001 
1.387896e-001 
1.400495e-001 
1.419339e-001 
1.446514e-001 
1.454584e-001 
1.493804e-001 
1.536753e-001 
1.545881e-001 
1.556590e-001 
1.572592e-001 
1.591108e-001 
1.622228e-001 
1.649821e-001 
1.671388e-001 
1.719957e-001 
1.760828e-001 
1.797349e-001 
1.845565e-001 
1.902663e-001 
1.976946e-001 
2.054771e-001 
2.118579e-001 
2.167011e-001 
2.213922e-001 
2.238653e-001 
2.263457e-001 
2.329511e-001 
2.432670e-001 
2.552935e-001 
2.645686e-001 
2.695112e-001 
2.724216e-001 
2.753673e-001 
2.774043e-001 
2.802015e-001 
2.835783e-001 
2.836715e-001 
2.803852e-001 
2.742910e-001 
2.696380e-001 
2.684694e-001 
2.687957e-001 
2.682664e-001 
2.679231e-001 
2.686206e-001 
2.690816e-001 
2.669261e-001 
2.590918e-001 
2.477889e-001 
2.351242e-001 
2.239175e-001 
2.152329e-001 
2.101817e-001 
2.074929e-001 
2.005912e-001 
1.872261e-001 
1.733697e-001 
1.638949e-001 
1.581615e-001 
1.536137e-001 
1.448531e-001 
1.331035e-001 
1.202604e-001 
1.074942e-001 
9.982598e-002 
9.952651e-002 
1.021669e-001 
1.029727e-001 
9.896352e-002 
9.064462e-002 
8.620147e-002 
8.563001e-002 
8.402665e-002 
8.193155e-002 
8.155466e-002 
7.917113e-002 
7.432540e-002 
6.946205e-002 
6.780317e-002 
6.781443e-002 
6.274912e-002 
5.539677e-002 
5.240971e-002 
4.995440e-002 
4.313510e-002 
3.677289e-002 
3.225771e-002 
2.655831e-002 
1.271400e-002 
-1.010683e-002 
-3.933874e-002 
-7.900713e-002 
-1.389660e-001 
-2.253165e-001 
-3.442290e-001 
-4.935122e-001 
-6.613920e-001 
-8.340080e-001 
-1.000840e+000 
-1.161035e+000 
-1.320384e+000 
-1.486306e+000 
-1.660767e+000 
-1.834996e+000 
-1.989451e+000 
-2.113724e+000 
-2.208666e+000 
-2.282825e+000 
-2.343085e+000 
-2.387946e+000 
-2.409741e+000 
-2.399671e+000 
-2.350606e+000 
-2.263280e+000 
-2.146384e+000 
-2.014187e+000 
-1.880151e+000 
-1.744910e+000 
-1.604290e+000 
-1.459400e+000 
-1.314146e+000 
-1.166677e+000 
-1.013799e+000 
-8.574345e-001 
-7.062563e-001 
-5.618545e-001 
-4.180358e-001 
-2.728908e-001 
-1.339384e-001 
-6.286979e-003 
1.121561e-001 
2.207917e-001 
3.172321e-001 
4.007892e-001 
4.770721e-001 
5.505932e-001 
6.178199e-001 
6.684492e-001 
7.047826e-001 
7.365311e-001 
7.671337e-001 
7.940023e-001 
8.162278e-001 
8.350744e-001 
8.488130e-001 
8.545930e-001 
8.542868e-001 
8.563886e-001 
8.643120e-001 
8.741307e-001 
8.803116e-001 
8.851232e-001 
8.885873e-001 
8.883992e-001 
8.880855e-001 
8.908722e-001 
8.945286e-001 
8.966557e-001 
8.965935e-001 
8.949889e-001 
8.952999e-001 
8.948739e-001 
8.935995e-001 
8.947786e-001 
8.956886e-001 
8.932307e-001 
8.904100e-001 
8.880933e-001 
8.860953e-001 
8.847761e-001 
8.816982e-001 
8.782446e-001 
8.741174e-001 
8.670040e-001 
8.601081e-001 
8.553911e-001 
8.507192e-001 
8.465250e-001 
8.422708e-001 
8.363083e-001 
8.296396e-001 
8.210910e-001 
8.124016e-001 
8.070463e-001 
8.022983e-001 
7.964211e-001 
7.887689e-001 
7.800737e-001 
7.716346e-001 
7.638592e-001 
7.549781e-001 
7.462516e-001 
7.370563e-001 
7.262253e-001 
7.139744e-001 
7.014578e-001 
6.912509e-001 
6.801589e-001 
6.662203e-001 
6.495082e-001 
6.330689e-001 
6.175689e-001 
6.014203e-001 
5.837038e-001 
5.645729e-001 
5.433958e-001 
5.209045e-001 
4.998497e-001 
4.802496e-001 
4.616514e-001 
4.399570e-001 
4.153648e-001 
3.905779e-001 
3.663411e-001 
3.429372e-001 
3.221383e-001 
3.015711e-001 
2.809564e-001 
2.604631e-001 
2.402108e-001 
2.237743e-001 
2.081926e-001 
1.897979e-001 
1.702182e-001 
1.531610e-001 
1.383831e-001 
1.274051e-001 
1.159088e-001 
1.046192e-001 
9.412752e-002 
8.213508e-002 
7.191104e-002 
6.706052e-002 
6.581758e-002 
6.340116e-002 
5.843538e-002 
4.968375e-002 
4.357912e-002 
4.065330e-002 
3.950240e-002 
4.021611e-002 
4.189448e-002 
4.268900e-002 
4.319121e-002 
4.575700e-002 
4.917435e-002 
5.430180e-002 
5.880610e-002 
6.118977e-002 
6.271006e-002 
6.443167e-002 
6.666278e-002 
6.944782e-002 
7.184322e-002 
7.432865e-002 
7.891421e-002 
8.375999e-002 
8.771859e-002 
8.974454e-002 
9.157891e-002 
9.452914e-002 
9.645989e-002 
9.902871e-002 
1.033539e-001 
1.076497e-001 
1.098270e-001 
1.101030e-001 
1.100225e-001 
1.135113e-001 
1.180547e-001 
1.201045e-001 
1.211242e-001 
1.220026e-001 
1.218796e-001 
1.208074e-001 
1.181799e-001 
1.154312e-001 
1.132629e-001 
1.096029e-001 
1.047308e-001 
1.005583e-001 
9.599124e-002 
9.049857e-002 
8.465316e-002 
7.701553e-002 
7.090217e-002 
6.695898e-002 
6.272069e-002 
5.692270e-002 
4.999210e-002 
4.363656e-002 
3.948386e-002 
3.480375e-002 
2.862549e-002 
2.421737e-002 
1.977818e-002 
1.371410e-002 
7.401843e-003 
2.976405e-003 
1.705504e-004 
-3.981425e-003 
-8.960570e-003 
-1.351582e-002 
-1.721502e-002 
-2.123543e-002 
-2.478820e-002 
-2.859439e-002 
-3.228064e-002 
-3.610423e-002 
-3.964251e-002 
-4.067243e-002 
-4.272183e-002 
-4.558124e-002 
-4.754271e-002 
-4.925338e-002 
-5.129798e-002 
-5.137611e-002 
-5.124272e-002 
-5.263723e-002 
-5.448990e-002 
-5.837286e-002 
-6.080723e-002 
-6.124050e-002 
-6.175480e-002 
-6.358393e-002 
-6.519713e-002 
-6.859728e-002 
-7.107185e-002 
-7.110153e-002 
-7.236303e-002 
-7.240720e-002 
-7.240317e-002 
-7.259208e-002 
-7.291026e-002 
-7.104571e-002 
-6.827672e-002 
-6.565164e-002 
-6.599181e-002 
-6.715338e-002 
-6.472404e-002 
-6.211987e-002 
-6.035566e-002 
-5.909358e-002 
-5.663138e-002 
-5.618264e-002 
-5.825763e-002 
-5.917881e-002 
-5.583449e-002 
-5.246993e-002 
-5.374055e-002 
-5.613973e-002 
-5.812252e-002 
-6.163610e-002 
-6.764014e-002 
-7.161246e-002 
-7.266318e-002 
-7.260116e-002 
-7.526663e-002 
-8.009414e-002 
-8.387292e-002 
-8.804069e-002 
-9.316657e-002 
-9.573699e-002 
-9.601367e-002 
-9.591615e-002 
-9.676504e-002 
-1.016991e-001 
-1.069913e-001 
-1.079013e-001 
-1.064745e-001 
-1.043434e-001 
-1.012905e-001 
-1.007530e-001 
-1.017784e-001 
-1.043805e-001 
-1.068673e-001 
-1.056977e-001 
-1.025337e-001 
-1.041715e-001 
-1.076217e-001 
-1.093932e-001 
-1.111126e-001 
-1.114850e-001 
-1.113364e-001 
-1.113578e-001 
-1.117787e-001 
-1.126910e-001 
-1.142937e-001 
-1.107939e-001 
-1.052246e-001 
-1.013318e-001 
-9.643929e-002 
-9.025914e-002 
-8.293154e-002 
-7.391289e-002 
-6.359659e-002 
-5.310993e-002 
-4.235027e-002 
-3.562834e-002 
-2.951539e-002 
-2.163714e-002 
-1.479728e-002 
-9.919003e-003 
-6.590306e-003 
-4.421643e-003 
-3.489610e-003 
-3.293359e-003 
-5.555496e-003 
-7.722731e-003 
-1.160008e-002 
-1.766497e-002 
-2.501929e-002 
-3.248885e-002 
-4.077399e-002 
-5.004967e-002 
-5.975304e-002 
-7.060639e-002 
-8.009346e-002 
-8.835589e-002 
-9.589181e-002 
-1.040895e-001 
-1.116038e-001 
-1.185050e-001 
-1.241764e-001 
-1.289185e-001 
-1.346809e-001 
-1.406276e-001 
-1.462010e-001 
-1.524436e-001 
-1.573967e-001 
-1.596564e-001 
-1.613168e-001 
-1.637736e-001 
-1.672662e-001 
-1.702492e-001 
-1.708520e-001 
-1.709940e-001 
-1.708030e-001 
-1.693356e-001 
-1.706133e-001 
-1.730693e-001 
-1.761196e-001 
-1.776300e-001 
-1.764475e-001 
-1.770838e-001 
-1.789864e-001 
-1.790257e-001 
-1.798265e-001 
-1.813214e-001 
-1.812470e-001 
-1.832443e-001 
-1.894282e-001 
-2.046820e-001 
-2.320591e-001 
-2.708077e-001 
-3.259393e-001 
-4.028938e-001 
-5.056683e-001 
-6.382341e-001 
-7.990871e-001 
-9.771688e-001 
-1.158308e+000 
-1.337124e+000 
-1.514670e+000 
-1.692439e+000 
-1.869434e+000 
-2.045497e+000 
-2.217875e+000 
-2.374441e+000 
-2.500388e+000 
-2.595609e+000 
-2.669311e+000 
-2.723976e+000 
-2.756454e+000 
-2.760270e+000 
-2.735726e+000 
-2.680977e+000 
-2.590693e+000 
-2.470980e+000 
-2.336841e+000 
-2.198544e+000 
-2.058615e+000 
-1.915801e+000 
-1.771309e+000 
-1.629406e+000 
-1.485310e+000 
-1.335127e+000 
-1.180626e+000 
-1.025427e+000 
-8.713831e-001 
-7.192280e-001 
-5.722873e-001 
-4.326933e-001 
-2.998094e-001 
-1.728283e-001 
-5.448289e-002 
5.391132e-002 
1.518968e-001 
2.396564e-001 
3.161334e-001 
3.818006e-001 
4.398258e-001 
4.906161e-001 
5.321719e-001 
5.645303e-001 
5.914969e-001 
6.144803e-001 
6.320718e-001 
6.449238e-001 
6.550563e-001 
6.627732e-001 
6.680365e-001 
6.721919e-001 
6.784372e-001 
6.885104e-001 
6.989008e-001 
7.065546e-001 
7.127702e-001 
7.176837e-001 
7.208832e-001 
7.248252e-001 
7.296618e-001 
7.343149e-001 
7.387986e-001 
7.420266e-001 
7.438227e-001 
7.465608e-001 
7.491425e-001 
7.509505e-001 
7.525080e-001 
7.518791e-001 
7.510062e-001 
7.515245e-001 
7.505716e-001 
7.481506e-001 
7.474972e-001 
7.462033e-001 
7.445300e-001 
7.437872e-001 
7.429303e-001 
7.418235e-001 
7.402032e-001 
7.370567e-001 
7.344825e-001 
7.327532e-001 
7.291360e-001 
7.248342e-001 
7.207226e-001 
7.147660e-001 
7.085897e-001 
7.045975e-001 
6.990643e-001 
6.918374e-001 
6.843871e-001 
6.754176e-001 
6.667351e-001 
6.588890e-001 
6.505922e-001 
6.433695e-001 
6.363549e-001 
6.282895e-001 
6.205916e-001 
6.124837e-001 
6.034486e-001 
5.951059e-001 
5.855956e-001 
5.732278e-001 
5.597130e-001 
5.474437e-001 
5.343956e-001 
5.177510e-001 
5.001124e-001 
4.835081e-001 
4.664371e-001 
4.479772e-001 
4.284162e-001 
4.096530e-001 
3.914495e-001 
3.712961e-001 
3.496712e-001 
3.286096e-001 
3.054604e-001 
2.807079e-001 
2.563165e-001 
2.331225e-001 
2.118052e-001 
1.919468e-001 
1.713460e-001 
1.484769e-001 
1.252372e-001 
1.019020e-001 
8.149215e-002 
6.363367e-002 
4.602134e-002 
2.711023e-002 
8.845655e-003 
-7.720967e-003 
-2.251269e-002 
-3.419105e-002 
-4.250179e-002 
-4.511571e-002 
-4.585507e-002 
-4.983627e-002 
-5.558634e-002 
-5.953404e-002 
-6.391129e-002 
-6.936983e-002 
-7.379306e-002 
-7.471791e-002 
-7.291569e-002 
-7.433067e-002 
-7.921717e-002 
-8.464342e-002 
-8.910011e-002 
-9.192144e-002 
-9.300283e-002 
-9.251881e-002 
-9.081916e-002 
-8.989250e-002 
-8.580358e-002 
-7.854634e-002 
-7.334109e-002 
-7.116126e-002 
-7.043718e-002 
-7.050175e-002 
-6.786540e-002 
-6.383081e-002 
-5.734857e-002 
-4.751948e-002 
-4.599016e-002 
-5.441562e-002 
-6.311492e-002 
-6.454677e-002 
-5.931312e-002 
-5.084847e-002 
-4.610460e-002 
-4.562445e-002 
-5.010401e-002 
-5.956965e-002 
-6.733624e-002 
-6.760520e-002 
-6.129041e-002 
-5.501683e-002 
-5.134673e-002 
-5.138666e-002 
-5.192783e-002 
-5.118425e-002 
-5.107411e-002 
-5.243700e-002 
-4.975421e-002 
-4.269532e-002 
-3.659471e-002 
-3.598251e-002 
-4.296763e-002 
-5.384491e-002 
-6.371275e-002 
-7.181154e-002 
-7.500291e-002 
-7.225842e-002 
-7.163672e-002 
-7.948951e-002 
-9.528294e-002 
-1.104299e-001 
-1.180748e-001 
-1.202525e-001 
-1.223862e-001 
-1.263782e-001 
-1.348093e-001 
-1.472560e-001 
-1.602492e-001 
-1.684666e-001 
-1.696121e-001 
-1.693625e-001 
-1.716907e-001 
-1.744821e-001 
-1.769941e-001 
-1.780547e-001 
-1.793344e-001 
-1.827620e-001 
-1.877164e-001 
-1.956660e-001 
-2.043357e-001 
-2.088461e-001 
-2.113363e-001 
-2.164399e-001 
-2.237919e-001 
-2.347333e-001 
-2.447262e-001 
-2.530753e-001 
-2.607646e-001 
-2.660568e-001 
-2.711696e-001 
-2.789264e-001 
-2.867577e-001 
-2.924660e-001 
-2.974421e-001 
-3.002984e-001 
-3.024862e-001 
-3.047483e-001 
-3.066403e-001 
-3.092050e-001 
-3.113852e-001 
-3.116654e-001 
-3.119976e-001 
-3.131763e-001 
-3.137001e-001 
-3.141733e-001 
-3.152876e-001 
-3.177442e-001 
-3.213868e-001 
-3.236528e-001 
-3.252950e-001 
-3.276274e-001 
-3.299914e-001 
-3.335588e-001 
-3.375429e-001 
-3.409902e-001 
-3.441703e-001 
-3.456832e-001 
-3.458593e-001 
-3.475120e-001 
-3.489614e-001 
-3.496077e-001 
-3.493801e-001 
-3.470110e-001 
-3.448960e-001 
-3.437317e-001 
-3.439073e-001 
-3.436637e-001 
-3.429974e-001 
-3.415986e-001 
-3.395901e-001 
-3.377252e-001 
-3.378979e-001 
-3.382490e-001 
-3.384767e-001 
-3.379598e-001 
-3.358256e-001 
-3.349064e-001 
-3.340225e-001 
-3.325769e-001 
-3.316867e-001 
-3.300090e-001 
-3.278736e-001 
-3.271992e-001 
-3.255594e-001 
-3.232663e-001 
-3.211636e-001 
-3.191045e-001 
-3.173389e-001 
-3.165210e-001 
-3.169137e-001 
-3.171422e-001 
-3.146361e-001 
-3.103410e-001 
-3.078010e-001 
-3.074745e-001 
-3.068623e-001 
-3.055288e-001 
-3.041170e-001 
-3.013298e-001 
-2.964984e-001 
-2.926051e-001 
-2.904492e-001 
-2.894264e-001 
-2.873860e-001 
-2.843667e-001 
-2.810786e-001 
-2.774233e-001 
-2.740286e-001 
-2.722183e-001 
-2.708082e-001 
-2.689053e-001 
-2.678600e-001 
-2.679830e-001 
-2.684957e-001 
-2.666253e-001 
-2.643238e-001 
-2.628045e-001 
-2.613097e-001 
-2.591732e-001 
-2.575610e-001 
-2.549026e-001 
-2.500416e-001 
-2.412287e-001 
-2.309786e-001 
-2.226296e-001 
-2.144446e-001 
-2.059913e-001 
-1.965985e-001 
-1.860629e-001 
-1.734682e-001 
-1.614231e-001 
-1.513415e-001 
-1.434442e-001 
-1.360993e-001 
-1.291908e-001 
-1.239198e-001 
-1.194773e-001 
-1.163820e-001 
-1.129876e-001 
-1.122481e-001 
-1.133501e-001 
-1.145105e-001 
-1.169104e-001 
-1.201345e-001 
-1.232127e-001 
-1.262975e-001 
-1.299977e-001 
-1.346852e-001 
-1.412902e-001 
-1.466399e-001 
-1.523151e-001 
-1.581076e-001 
-1.637144e-001 
-1.704565e-001 
-1.782031e-001 
-1.873963e-001 
-1.953707e-001 
-2.009232e-001 
-2.066194e-001 
-2.141736e-001 
-2.221090e-001 
-2.310591e-001 
-2.381112e-001 
-2.422623e-001 
-2.460011e-001 
-2.480105e-001 
-2.507747e-001 
-2.549120e-001 
-2.577217e-001 
-2.588462e-001 
-2.583205e-001 
-2.558178e-001 
-2.561247e-001 
-2.584093e-001 
-2.585568e-001 
-2.583259e-001 
-2.576892e-001 
-2.562017e-001 
-2.553900e-001 
-2.563837e-001 
-2.581431e-001 
-2.600140e-001 
-2.585133e-001 
-2.559860e-001 
-2.561944e-001 
-2.567661e-001 
-2.562871e-001 
-2.575192e-001 
-2.579521e-001 
-2.566073e-001 
-2.553745e-001 
-2.543315e-001 
-2.587300e-001 
-2.706287e-001 
-2.907509e-001 
-3.231565e-001 
-3.712177e-001 
-4.340685e-001 
-5.176252e-001 
-6.249580e-001 
-7.595637e-001 
-9.232997e-001 
-1.106902e+000 
-1.297091e+000 
-1.485683e+000 
-1.671513e+000 
-1.855269e+000 
-2.041168e+000 
-2.227340e+000 
-2.408536e+000 
-2.572749e+000 
-2.709402e+000 
-2.815209e+000 
-2.897158e+000 
-2.960682e+000 
-3.003890e+000 
-3.022545e+000 
-3.010434e+000 
-2.965304e+000 
-2.889777e+000 
-2.794260e+000 
-2.687938e+000 
-2.577467e+000 
-2.462663e+000 
-2.341119e+000 
-2.213910e+000 
-2.084179e+000 
-1.951294e+000 
-1.815932e+000 
-1.678897e+000 
-1.537590e+000 
-1.392055e+000 
-1.240708e+000 
-1.084737e+000 
-9.305604e-001 
-7.791616e-001 
-6.276655e-001 
-4.807452e-001 
-3.407409e-001 
-2.077835e-001 
-8.070030e-002 
4.349991e-002 
1.616867e-001 
2.693245e-001 
3.678610e-001 
4.542111e-001 
5.229162e-001 
5.788195e-001 
6.270894e-001 
6.723527e-001 
7.149273e-001 
7.516504e-001 
7.815914e-001 
8.034171e-001 
8.140878e-001 
8.189887e-001 
8.252441e-001 
8.350190e-001 
8.478765e-001 
8.574754e-001 
8.634623e-001 
8.673780e-001 
8.680355e-001 
8.693747e-001 
8.770069e-001 
8.907649e-001 
9.072689e-001 
9.169466e-001 
9.168172e-001 
9.165368e-001 
9.184596e-001 
9.203488e-001 
9.243660e-001 
9.309826e-001 
9.383275e-001 
9.406933e-001 
9.341391e-001 
9.268467e-001 
9.252195e-001 
9.246324e-001 
9.214089e-001 
9.184167e-001 
9.161627e-001 
9.110011e-001 
9.009685e-001 
8.891185e-001 
8.817395e-001 
8.807604e-001 
8.822267e-001 
8.839481e-001 
8.863054e-001 
8.835223e-001 
8.728463e-001 
8.587044e-001 
8.451032e-001 
8.369738e-001 
8.340817e-001 
8.310634e-001 
8.239615e-001 
8.134600e-001 
7.982183e-001 
7.824805e-001 
7.689773e-001 
7.557679e-001 
7.440930e-001 
7.314756e-001 
7.142586e-001 
6.943553e-001 
6.754040e-001 
6.554524e-001 
6.362987e-001 
6.172828e-001 
5.982781e-001 
5.798817e-001 
5.589548e-001 
5.340839e-001 
5.079332e-001 
4.806737e-001 
4.516564e-001 
4.220557e-001 
3.919428e-001 
3.610413e-001 
3.281157e-001 
2.936133e-001 
2.590877e-001 
2.264534e-001 
1.949585e-001 
1.626260e-001 
1.291423e-001 
9.726044e-002 
6.641509e-002 
3.680940e-002 
1.044311e-002 
-1.396243e-002 
-3.761401e-002 
-6.048764e-002 
-8.182480e-002 
-9.976031e-002 
-1.136636e-001 
-1.278523e-001 
-1.411814e-001 
-1.524686e-001 
-1.625926e-001 
-1.699361e-001 
-1.743342e-001 
-1.769312e-001 
-1.780978e-001 
-1.796178e-001 
-1.825731e-001 
-1.827993e-001 
-1.802218e-001 
-1.766500e-001 
-1.736635e-001 
-1.705051e-001 
-1.673665e-001 
-1.639253e-001 
-1.605021e-001 
-1.570758e-001 
-1.518947e-001 
-1.460329e-001 
-1.411686e-001 
-1.354048e-001 
-1.275754e-001 
-1.211724e-001 
-1.153019e-001 
-1.099616e-001 
-1.029106e-001 
-9.165503e-002 
-7.900020e-002 
-6.805317e-002 
-5.710084e-002 
-4.640501e-002 
-3.623663e-002 
-2.451270e-002 
-1.069837e-002 
6.196871e-003 
2.286808e-002 
3.675095e-002 
5.050151e-002 
6.639897e-002 
8.384319e-002 
1.016964e-001 
1.194960e-001 
1.371839e-001 
1.550584e-001 
1.722917e-001 
1.902345e-001 
2.083094e-001 
2.251088e-001 
2.399942e-001 
2.542322e-001 
2.690019e-001 
2.832916e-001 
2.971181e-001 
3.091749e-001 
3.193396e-001 
3.292818e-001 
3.400950e-001 
3.510902e-001 
3.636518e-001 
3.746017e-001 
3.831737e-001 
3.922361e-001 
4.023054e-001 
4.122775e-001 
4.237928e-001 
4.342171e-001 
4.439480e-001 
4.541675e-001 
4.628562e-001 
4.722771e-001 
4.823466e-001 
4.897014e-001 
4.943469e-001 
4.994409e-001 
5.038943e-001 
5.087020e-001 
5.115632e-001 
5.127387e-001 
5.136811e-001 
5.135774e-001 
5.123976e-001 
5.124347e-001 
5.133967e-001 
5.130729e-001 
5.112020e-001 
5.085927e-001 
5.081844e-001 
5.083249e-001 
5.078254e-001 
5.064092e-001 
5.050542e-001 
5.038923e-001 
5.025334e-001 
5.016253e-001 
5.011649e-001 
4.996878e-001 
4.959570e-001 
4.926979e-001 
4.905791e-001 
4.899390e-001 
4.893684e-001 
4.870117e-001 
4.843519e-001 
4.819339e-001 
4.794546e-001 
4.785513e-001 
4.799648e-001 
4.796897e-001 
4.791617e-001 
4.796336e-001 
4.797453e-001 
4.819835e-001 
4.843334e-001 
4.860084e-001 
4.874990e-001 
4.888961e-001 
4.895372e-001 
4.920143e-001 
4.928815e-001 
4.909695e-001 
4.902749e-001 
4.895259e-001 
4.888214e-001 
4.886224e-001 
4.892039e-001 
4.862675e-001 
4.810050e-001 
4.748609e-001 
4.702423e-001 
4.691509e-001 
4.680824e-001 
4.653576e-001 
4.622773e-001 
4.583267e-001 
4.530945e-001 
4.509994e-001 
4.494974e-001 
4.473340e-001 
4.457890e-001 
4.429578e-001 
4.394483e-001 
4.364036e-001 
4.336213e-001 
4.299863e-001 
4.263576e-001 
4.221413e-001 
4.189245e-001 
4.178253e-001 
4.159050e-001 
4.112628e-001 
4.058530e-001 
4.013460e-001 
3.972586e-001 
3.954163e-001 
3.937375e-001 
3.909456e-001 
3.871744e-001 
3.814422e-001 
3.759432e-001 
3.735496e-001 
3.717145e-001 
3.678134e-001 
3.644169e-001 
3.602312e-001 
3.548469e-001 
3.518092e-001 
3.502521e-001 
3.478559e-001 
3.455975e-001 
3.412465e-001 
3.370374e-001 
3.364373e-001 
3.339404e-001 
3.312251e-001 
3.311518e-001 
3.287595e-001 
3.271665e-001 
3.275443e-001 
3.248887e-001 
3.222982e-001 
3.204442e-001 
3.170923e-001 
3.153171e-001 
3.134742e-001 
3.111133e-001 
3.100748e-001 
3.066852e-001 
3.034566e-001 
3.042649e-001 
3.072186e-001 
3.101447e-001 
3.120329e-001 
3.146546e-001 
3.190109e-001 
3.243681e-001 
3.320280e-001 
3.415994e-001 
3.500890e-001 
3.572430e-001 
3.614001e-001 
3.656333e-001 
3.722278e-001 
3.760391e-001 
3.779558e-001 
3.776028e-001 
3.747034e-001 
3.717295e-001 
3.679298e-001 
3.616575e-001 
3.561374e-001 
3.482436e-001 
3.373750e-001 
3.272383e-001 
3.167684e-001 
3.077771e-001 
2.977244e-001 
2.852684e-001 
2.718700e-001 
2.586272e-001 
2.464274e-001 
2.353245e-001 
2.237975e-001 
2.136533e-001 
2.034210e-001 
1.909254e-001 
1.785171e-001 
1.651064e-001 
1.526685e-001 
1.424189e-001 
1.321528e-001 
1.238949e-001 
1.178718e-001 
1.101651e-001 
1.020589e-001 
9.504165e-002 
8.980799e-002 
8.734524e-002 
8.606612e-002 
8.498062e-002 
8.275667e-002 
7.953944e-002 
7.595791e-002 
7.281502e-002 
7.182352e-002 
7.161403e-002 
6.965930e-002 
6.692247e-002 
6.305853e-002 
5.883446e-002 
5.671251e-002 
5.270979e-002 
4.801562e-002 
4.575789e-002 
4.326890e-002 
4.015385e-002 
3.502760e-002 
2.338298e-002 
3.205318e-003 
-2.766482e-002 
-7.085343e-002 
-1.252600e-001 
-1.975456e-001 
-2.963652e-001 
-4.249551e-001 
-5.821022e-001 
-7.568841e-001 
-9.353848e-001 
-1.110054e+000 
-1.280902e+000 
-1.453152e+000 
-1.630369e+000 
-1.808873e+000 
-1.980994e+000 
-2.134834e+000 
-2.260950e+000 
-2.359108e+000 
-2.434998e+000 
-2.494189e+000 
-2.535357e+000 
-2.551518e+000 
-2.537304e+000 
-2.491766e+000 
-2.418286e+000 
-2.323294e+000 
-2.211456e+000 
-2.091147e+000 
-1.967255e+000 
-1.840306e+000 
-1.710792e+000 
-1.578637e+000 
-1.444285e+000 
-1.307591e+000 
-1.164922e+000 
-1.015980e+000 
-8.677275e-001 
-7.211460e-001 
-5.774544e-001 
-4.370284e-001 
-3.008415e-001 
-1.706111e-001 
-4.742778e-002 
6.899125e-002 
1.777865e-001 
2.741738e-001 
3.597036e-001 
4.340178e-001 
4.973590e-001 
5.516006e-001 
5.988172e-001 
6.374944e-001 
6.692635e-001 
6.940720e-001 
7.108715e-001 
7.247730e-001 
7.354746e-001 
7.444116e-001 
7.520752e-001 
7.579975e-001 
7.616366e-001 
7.651707e-001 
7.680356e-001 
7.714568e-001 
7.756098e-001 
