80
2.8646
341.5000
3.8795
3.877611e-003 
1.092227e-002 
1.921418e-002 
2.899828e-002 
3.900631e-002 
5.079015e-002 
6.390200e-002 
7.699973e-002 
9.367558e-002 
1.154187e-001 
1.361859e-001 
1.561867e-001 
1.744974e-001 
1.914385e-001 
2.101288e-001 
2.264589e-001 
2.414361e-001 
2.561071e-001 
2.669942e-001 
2.724355e-001 
2.711931e-001 
2.641076e-001 
2.552023e-001 
2.433289e-001 
2.269992e-001 
2.100562e-001 
1.914892e-001 
1.719753e-001 
1.490922e-001 
1.239978e-001 
1.013836e-001 
7.946717e-002 
5.880719e-002 
4.268143e-002 
3.019840e-002 
1.946067e-002 
1.036706e-002 
3.495175e-003 
-8.403054e-004 
-5.636503e-003 
-1.005979e-002 
-1.084221e-002 
-1.042281e-002 
-1.197210e-002 
-1.601917e-002 
-2.208999e-002 
-3.093406e-002 
-4.517011e-002 
-5.979414e-002 
-7.225028e-002 
-8.142139e-002 
-8.625239e-002 
-8.465225e-002 
-7.991857e-002 
-9.195449e-002 
-1.510530e-001 
-2.295760e-001 
-2.927385e-001 
-3.342405e-001 
-3.465985e-001 
-3.415882e-001 
-3.338419e-001 
-3.396466e-001 
-3.889634e-001 
-4.558984e-001 
-4.697439e-001 
-4.458830e-001 
-4.100198e-001 
-3.775751e-001 
-3.701427e-001 
-3.831787e-001 
-4.042607e-001 
-4.164392e-001 
-3.849445e-001 
-3.176403e-001 
-2.537943e-001 
-2.040709e-001 
-1.762905e-001 
-1.647202e-001 
-1.552744e-001 
-1.438174e-001 
-1.300184e-001 
-1.170798e-001 
-1.078601e-001 
-9.938341e-002 
-9.120610e-002 
-8.477351e-002 
-8.216789e-002 
-8.234907e-002 
-8.569902e-002 
-9.202993e-002 
-1.028149e-001 
-1.164355e-001 
-1.304094e-001 
-1.443027e-001 
-1.612864e-001 
-1.804189e-001 
-1.979312e-001 
-2.153655e-001 
-2.327611e-001 
-2.482003e-001 
-2.583938e-001 
-2.645037e-001 
-2.692158e-001 
-2.720294e-001 
-2.704955e-001 
-2.671039e-001 
-2.650920e-001 
-2.613599e-001 
-2.538332e-001 
-2.457945e-001 
-2.413329e-001 
-2.388468e-001 
-2.378222e-001 
-2.409004e-001 
-2.492140e-001 
-2.583550e-001 
-2.636492e-001 
-2.694599e-001 
-2.764077e-001 
-2.755271e-001 
-2.637213e-001 
-2.620874e-001 
-3.016594e-001 
-3.836731e-001 
-4.631382e-001 
-5.109920e-001 
-5.301662e-001 
-5.264791e-001 
-5.100517e-001 
-5.005033e-001 
-5.312935e-001 
-6.017445e-001 
-6.472583e-001 
-6.232552e-001 
-5.677583e-001 
-5.206104e-001 
-4.977418e-001 
-4.976199e-001 
-5.097325e-001 
-5.224607e-001 
-5.037889e-001 
-4.322388e-001 
-3.407869e-001 
-2.710404e-001 
-2.292049e-001 
-2.066029e-001 
-1.871524e-001 
-1.655456e-001 
-1.448628e-001 
-1.244017e-001 
-1.036203e-001 
-8.499815e-002 
-6.774074e-002 
-5.326857e-002 
-4.338697e-002 
-3.817702e-002 
-3.828339e-002 
-4.386753e-002 
-5.190775e-002 
-6.139664e-002 
-7.358322e-002 
-8.883565e-002 
-1.083995e-001 
-1.301884e-001 
-1.515331e-001 
-1.739751e-001 
-1.955808e-001 
-2.130909e-001 
-2.263794e-001 
-2.368166e-001 
-2.456234e-001 
-2.518428e-001 
-2.517997e-001 
-2.484732e-001 
-2.465092e-001 
-2.418506e-001 
-2.331712e-001 
-2.232759e-001 
-2.148272e-001 
-2.085362e-001 
-2.033803e-001 
-1.992777e-001 
-2.019955e-001 
-2.082186e-001 
-2.110447e-001 
-2.138780e-001 
-2.179444e-001 
-2.186060e-001 
-2.092060e-001 
-1.985676e-001 
-2.101947e-001 
-2.733281e-001 
-3.549593e-001 
-4.151611e-001 
-4.461928e-001 
-4.472234e-001 
-4.312721e-001 
-4.131358e-001 
-4.170568e-001 
-4.659068e-001 
-5.298062e-001 
-5.311805e-001 
-4.835843e-001 
-4.240185e-001 
-3.798115e-001 
-3.653306e-001 
-3.691175e-001 
-3.774792e-001 
-3.716959e-001 
-3.189215e-001 
-2.268692e-001 
-1.424136e-001 
-8.025488e-002 
-4.721211e-002 
-2.707021e-002 
-3.388525e-003 
2.373685e-002 
4.962325e-002 
7.360396e-002 
9.592721e-002 
1.194517e-001 
1.401705e-001 
1.544970e-001 
1.652045e-001 
1.729566e-001 
1.745699e-001 
1.700363e-001 
1.640486e-001 
1.564503e-001 
1.454367e-001 
1.295565e-001 
1.099905e-001 
8.975224e-002 
7.032383e-002 
5.004802e-002 
3.175110e-002 
1.805788e-002 
5.938760e-003 
-4.069089e-003 
-1.068894e-002 
-1.373854e-002 
-1.179434e-002 
-8.416263e-003 
-5.474830e-003 
8.957863e-004 
8.643327e-003 
1.461058e-002 
2.008975e-002 
2.378551e-002 
2.531147e-002 
2.263828e-002 
1.497147e-002 
9.157365e-003 
5.074371e-003 
6.960813e-004 
8.057181e-004 
9.216752e-003 
1.335251e-002 
-5.997142e-003 
-7.312736e-002 
-1.530033e-001 
-2.090069e-001 
-2.393145e-001 
-2.411185e-001 
-2.255426e-001 
-2.117178e-001 
-2.207553e-001 
-2.678656e-001 
-3.224661e-001 
-3.158431e-001 
-2.711548e-001 
-2.214022e-001 
-1.827572e-001 
-1.693453e-001 
-1.749242e-001 
-1.826804e-001 
-1.730058e-001 
-1.191030e-001 
-3.298686e-002 
4.141448e-002 
9.471285e-002 
1.252736e-001 
1.430953e-001 
1.584488e-001 
1.767658e-001 
1.958404e-001 
2.122352e-001 
2.268883e-001 
2.422510e-001 
2.558769e-001 
2.681935e-001 
2.758364e-001 
2.781614e-001 
2.767660e-001 
2.694005e-001 
2.582038e-001 
2.470994e-001 
2.335374e-001 
2.170475e-001 
1.990791e-001 
1.773996e-001 
1.551641e-001 
1.328228e-001 
1.122827e-001 
9.732675e-002 
8.517088e-002 
7.410084e-002 
6.707248e-002 
6.206350e-002 
5.726690e-002 
5.379403e-002 
5.319209e-002 
5.670818e-002 
6.020608e-002 
6.170914e-002 
6.253177e-002 
6.105831e-002 
5.462335e-002 
4.367801e-002 
3.455847e-002 
2.809241e-002 
2.330696e-002 
2.476918e-002 
3.319466e-002 
4.173832e-002 
3.339277e-002 
-1.879365e-002 
-8.910746e-002 
-1.449643e-001 
-1.839781e-001 
-1.941025e-001 
-1.841674e-001 
-1.748688e-001 
-1.775219e-001 
-2.176498e-001 
-2.753859e-001 
-2.831042e-001 
-2.560211e-001 
-2.185956e-001 
-1.799978e-001 
-1.652896e-001 
-1.723635e-001 
-1.853160e-001 
-1.906973e-001 
-1.570070e-001 
-8.707373e-002 
-1.866759e-002 
3.635603e-002 
7.150223e-002 
9.084157e-002 
1.053698e-001 
1.208098e-001 
1.374986e-001 
1.531112e-001 
1.677508e-001 
1.813843e-001 
1.921979e-001 
2.028350e-001 
2.103334e-001 
2.139927e-001 
2.164255e-001 
2.153785e-001 
2.091885e-001 
2.015279e-001 
1.930995e-001 
1.830364e-001 
1.697199e-001 
1.544060e-001 
1.414549e-001 
1.291284e-001 
1.160754e-001 
1.060853e-001 
1.003826e-001 
9.662455e-002 
9.272197e-002 
9.113557e-002 
9.446254e-002 
9.879381e-002 
1.030422e-001 
1.096490e-001 
1.184347e-001 
1.249935e-001 
1.300345e-001 
1.333029e-001 
1.355990e-001 
1.336921e-001 
1.274807e-001 
1.224629e-001 
1.181339e-001 
1.125360e-001 
1.097770e-001 
1.165027e-001 
1.299794e-001 
1.326138e-001 
9.984523e-002 
3.533034e-002 
-2.735234e-002 
-6.864551e-002 
-8.404572e-002 
-7.660973e-002 
-5.938548e-002 
-5.316267e-002 
-8.164399e-002 
-1.374693e-001 
-1.700010e-001 
-1.511593e-001 
-1.087663e-001 
-6.805146e-002 
-4.768686e-002 
-5.199027e-002 
-6.937292e-002 
-8.203134e-002 
-6.465869e-002 
-6.348762e-003 
6.635231e-002 
1.253182e-001 
1.633849e-001 
1.810486e-001 
1.943113e-001 
2.108460e-001 
2.276962e-001 
2.435990e-001 
2.578708e-001 
2.712814e-001 
2.846331e-001 
2.941125e-001 
3.009516e-001 
3.061982e-001 
3.069699e-001 
3.040391e-001 
2.982319e-001 
2.900144e-001 
2.812950e-001 
2.705922e-001 
2.572333e-001 
2.427006e-001 
2.280054e-001 
2.140097e-001 
2.009351e-001 
1.904674e-001 
1.849696e-001 
1.827607e-001 
1.812296e-001 
1.811600e-001 
1.836867e-001 
1.875287e-001 
1.895290e-001 
1.933603e-001 
2.006241e-001 
2.073242e-001 
2.105708e-001 
2.120872e-001 
2.109354e-001 
2.061266e-001 
1.976141e-001 
1.895791e-001 
1.838523e-001 
1.794408e-001 
1.783829e-001 
1.883304e-001 
1.946852e-001 
1.746161e-001 
1.077593e-001 
2.689856e-002 
-2.858257e-002 
-5.362240e-002 
-4.979718e-002 
-3.112984e-002 
-1.585928e-002 
-2.871674e-002 
-7.946682e-002 
-1.378236e-001 
-1.330913e-001 
-8.465626e-002 
-3.062948e-002 
5.251643e-003 
1.138628e-002 
1.052110e-004 
-1.072095e-002 
-1.444503e-003 
5.271594e-002 
1.409880e-001 
2.182195e-001 
2.722458e-001 
2.994691e-001 
3.170845e-001 
3.370179e-001 
3.591199e-001 
3.812155e-001 
4.006284e-001 
4.183676e-001 
4.372403e-001 
4.520811e-001 
4.618266e-001 
4.658404e-001 
4.641191e-001 
4.597285e-001 
4.512370e-001 
4.388172e-001 
4.248219e-001 
4.077196e-001 
3.863727e-001 
3.624386e-001 
3.371874e-001 
3.149566e-001 
2.951641e-001 
2.772372e-001 
2.633502e-001 
2.517125e-001 
2.423919e-001 
2.362766e-001 
2.326906e-001 
2.313949e-001 
2.333253e-001 
2.366798e-001 
2.411330e-001 
2.452591e-001 
2.471111e-001 
2.474482e-001 
2.438218e-001 
2.355718e-001 
2.271951e-001 
2.210114e-001 
2.127503e-001 
2.067469e-001 
2.044619e-001 
2.092477e-001 
2.128176e-001 
1.960902e-001 
1.343190e-001 
5.395881e-002 
-8.336819e-003 
-4.305424e-002 
-4.628026e-002 
-3.424008e-002 
-2.134938e-002 
-2.756872e-002 
-7.218719e-002 
-1.338154e-001 
-1.392789e-001 
-9.788153e-002 
-4.574873e-002 
-7.285270e-003 
3.174398e-003 
-3.605863e-003 
-1.437616e-002 
-1.198418e-002 
3.262387e-002 
1.175154e-001 
1.960743e-001 
2.521427e-001 
2.805750e-001 
2.965000e-001 
3.138050e-001 
3.315175e-001 
3.504201e-001 
3.697394e-001 
3.858169e-001 
4.002092e-001 
4.133789e-001 
4.231041e-001 
4.309575e-001 
4.338200e-001 
4.309350e-001 
4.255109e-001 
4.147500e-001 
3.994880e-001 
3.837315e-001 
3.676312e-001 
3.484614e-001 
3.262798e-001 
3.028868e-001 
2.802597e-001 
2.587356e-001 
2.388978e-001 
2.235301e-001 
2.133900e-001 
2.066015e-001 
1.995718e-001 
1.961552e-001 
1.953862e-001 
1.949816e-001 
1.969081e-001 
2.010639e-001 
2.057039e-001 
2.084974e-001 
2.072774e-001 
2.030608e-001 
1.960679e-001 
1.852454e-001 
1.759683e-001 
1.682739e-001 
1.635115e-001 
1.650704e-001 
1.712429e-001 
1.772750e-001 
1.677198e-001 
1.138077e-001 
4.259916e-002 
-1.261872e-002 
-4.632002e-002 
-5.084961e-002 
-4.096554e-002 
-3.336769e-002 
-3.772076e-002 
-7.831689e-002 
-1.370504e-001 
-1.439027e-001 
-1.126935e-001 
-7.224416e-002 
-3.891974e-002 
-3.166380e-002 
-4.228712e-002 
-5.552856e-002 
-6.004054e-002 
-2.560757e-002 
4.542351e-002 
1.128372e-001 
1.649833e-001 
1.946181e-001 
2.112156e-001 
2.279437e-001 
2.457529e-001 
2.616391e-001 
2.769971e-001 
2.918041e-001 
3.065757e-001 
3.174186e-001 
3.256159e-001 
3.328646e-001 
3.365582e-001 
3.356409e-001 
3.321014e-001 
3.273132e-001 
3.199318e-001 
3.094660e-001 
2.970060e-001 
2.845535e-001 
2.691730e-001 
2.540075e-001 
2.412177e-001 
2.297364e-001 
2.195661e-001 
2.126690e-001 
2.090729e-001 
2.077969e-001 
2.076066e-001 
2.083231e-001 
2.106545e-001 
2.138602e-001 
2.164305e-001 
2.203454e-001 
2.257084e-001 
2.285269e-001 
2.271443e-001 
2.222945e-001 
2.141283e-001 
2.047636e-001 
1.960021e-001 
1.858690e-001 
1.776871e-001 
1.723740e-001 
1.755822e-001 
1.811774e-001 
1.718871e-001 
1.161827e-001 
3.298370e-002 
-3.553603e-002 
-7.304175e-002 
-7.888422e-002 
-6.706017e-002 
-5.150532e-002 
-5.230904e-002 
-9.380979e-002 
-1.619691e-001 
-1.787474e-001 
-1.392876e-001 
-8.292975e-002 
-4.082812e-002 
-2.806986e-002 
-3.441220e-002 
-4.632104e-002 
-5.021941e-002 
-1.452512e-002 
6.690272e-002 
1.491138e-001 
2.064682e-001 
2.355922e-001 
2.528048e-001 
2.714266e-001 
2.906856e-001 
3.090543e-001 
3.262201e-001 
3.435023e-001 
3.591730e-001 
3.712133e-001 
3.824178e-001 
3.909633e-001 
3.915900e-001 
3.872579e-001 
3.799633e-001 
3.684969e-001 
3.555694e-001 
3.389454e-001 
3.201286e-001 
3.004791e-001 
2.768337e-001 
2.508050e-001 
2.279165e-001 
2.058474e-001 
1.855553e-001 
1.698656e-001 
1.574837e-001 
1.503107e-001 
1.451303e-001 
1.423612e-001 
1.443463e-001 
1.472770e-001 
1.490411e-001 
1.536867e-001 
1.595648e-001 
1.643122e-001 
1.666232e-001 
1.642751e-001 
1.597773e-001 
1.519731e-001 
1.410654e-001 
1.314256e-001 
1.232366e-001 
1.148167e-001 
1.152495e-001 
1.243083e-001 
1.195563e-001 
6.749172e-002 
-1.977651e-002 
-9.629588e-002 
-1.388864e-001 
-1.514982e-001 
-1.459668e-001 
-1.284538e-001 
-1.213960e-001 
-1.610895e-001 
-2.349208e-001 
-2.643651e-001 
-2.281692e-001 
-1.684669e-001 
-1.251373e-001 
-1.073726e-001 
-1.064209e-001 
-1.171002e-001 
-1.257837e-001 
-9.504453e-002 
-1.234696e-002 
7.902151e-002 
1.434918e-001 
1.781012e-001 
2.002074e-001 
2.217174e-001 
2.437645e-001 
2.655066e-001 
2.880805e-001 
3.103845e-001 
3.294781e-001 
3.443292e-001 
3.566918e-001 
3.646075e-001 
3.660562e-001 
3.622034e-001 
3.553469e-001 
3.454078e-001 
3.321894e-001 
3.153394e-001 
2.964122e-001 
2.747374e-001 
2.484048e-001 
2.209689e-001 
1.948133e-001 
1.706450e-001 
1.484344e-001 
1.288758e-001 
1.120557e-001 
9.919774e-002 
8.797876e-002 
8.055522e-002 
7.944471e-002 
8.192480e-002 
8.482260e-002 
8.736807e-002 
9.117651e-002 
9.331345e-002 
9.328399e-002 
9.218844e-002 
9.048690e-002 
8.615586e-002 
7.730483e-002 
6.672320e-002 
5.925402e-002 
5.198977e-002 
4.360444e-002 
4.188307e-002 
5.035565e-002 
5.135295e-002 
2.302596e-002 
-4.969884e-002 
-1.293309e-001 
-1.836426e-001 
-2.112801e-001 
-2.103837e-001 
-1.924834e-001 
-1.797473e-001 
-1.965871e-001 
-2.491285e-001 
-3.007602e-001 
-2.892878e-001 
-2.415548e-001 
-1.909821e-001 
-1.552252e-001 
-1.475627e-001 
-1.583632e-001 
-1.669069e-001 
-1.531922e-001 
-9.564392e-002 
-7.180161e-003 
6.689933e-002 
1.170355e-001 
1.426868e-001 
1.568120e-001 
1.727492e-001 
1.915532e-001 
2.089097e-001 
2.244299e-001 
2.396703e-001 
2.540070e-001 
2.652093e-001 
2.737474e-001 
2.781504e-001 
2.783796e-001 
2.746682e-001 
2.653335e-001 
2.522059e-001 
2.387592e-001 
2.222885e-001 
2.018762e-001 
1.801781e-001 
1.560328e-001 
1.322389e-001 
1.083978e-001 
8.405587e-002 
6.473045e-002 
4.954795e-002 
3.521482e-002 
2.386468e-002 
1.562586e-002 
1.128917e-002 
1.066225e-002 
9.849242e-003 
1.084269e-002 
1.546099e-002 
1.917790e-002 
2.097259e-002 
2.122972e-002 
2.044018e-002 
1.784062e-002 
1.040608e-002 
1.083927e-003 
-7.586230e-003 
-1.610491e-002 
-2.518548e-002 
-3.099990e-002 
-3.105518e-002 
-2.711526e-002 
-3.921709e-002 
-9.059787e-002 
-1.704405e-001 
-2.439055e-001 
-2.895717e-001 
-3.033076e-001 
-2.948828e-001 
-2.824131e-001 
-2.818343e-001 
-3.175776e-001 
-3.760464e-001 
-4.002545e-001 
-3.720123e-001 
-3.194995e-001 
-2.716107e-001 
-2.510760e-001 
-2.538425e-001 
-2.630714e-001 
-2.633407e-001 
-2.272076e-001 
-1.516230e-001 
-6.725444e-002 
-8.078468e-004 
3.655230e-002 
5.378680e-002 
6.896963e-002 
8.625132e-002 
1.048746e-001 
1.212909e-001 
1.345496e-001 
1.495674e-001 
1.621992e-001 
1.715531e-001 
1.792363e-001 
1.818808e-001 
1.803460e-001 
1.754677e-001 
1.651395e-001 
1.524851e-001 
1.373682e-001 
1.187023e-001 
9.917579e-002 
7.705956e-002 
5.455905e-002 
3.352446e-002 
1.295205e-002 
-7.286877e-003 
-2.503857e-002 
-3.889802e-002 
-4.853984e-002 
-5.602193e-002 
-6.069803e-002 
-6.169658e-002 
-6.319308e-002 
-6.419363e-002 
-6.307525e-002 
-5.974452e-002 
-5.629786e-002 
-5.383982e-002 
-5.379166e-002 
-5.702335e-002 
-6.400637e-002 
-7.388753e-002 
-8.198942e-002 
-8.868461e-002 
-9.197884e-002 
-8.867206e-002 
-7.731977e-002 
-7.166135e-002 
-8.761058e-002 
-1.462390e-001 
-2.161465e-001 
-2.663710e-001 
-2.956993e-001 
-2.973075e-001 
-2.849523e-001 
-2.777949e-001 
-2.911712e-001 
-3.388896e-001 
-3.931471e-001 
-3.894370e-001 
-3.568475e-001 
-3.208654e-001 
-2.904134e-001 
-2.855887e-001 
-2.993338e-001 
-3.138482e-001 
-3.132886e-001 
-2.724693e-001 
-2.010257e-001 
-1.400578e-001 
-9.322943e-002 
-6.442303e-002 
-4.890002e-002 
-3.535717e-002 
-2.048243e-002 
-6.150487e-003 
8.432884e-003 
2.387152e-002 
3.761381e-002 
4.916449e-002 
5.981981e-002 
6.599214e-002 
6.847484e-002 
6.788449e-002 
6.671754e-002 
6.462594e-002 
5.922132e-002 
5.022875e-002 
3.881950e-002 
2.608147e-002 
1.152961e-002 
-2.813522e-003 
-1.552474e-002 
-2.522806e-002 
-3.428187e-002 
-4.089830e-002 
-4.658248e-002 
-4.977860e-002 
-4.949110e-002 
-4.593761e-002 
-4.030134e-002 
-3.500477e-002 
-2.941269e-002 
-2.240867e-002 
-1.602650e-002 
-1.192682e-002 
-7.963940e-003 
-5.106265e-003 
-5.967716e-003 
-1.180391e-002 
-1.944464e-002 
-2.561894e-002 
-3.143928e-002 
-3.582901e-002 
-3.369665e-002 
-2.313375e-002 
-2.377479e-002 
-6.177921e-002 
-1.320505e-001 
-1.993414e-001 
-2.416882e-001 
-2.555264e-001 
-2.478396e-001 
-2.328484e-001 
-2.253498e-001 
-2.528039e-001 
-3.081702e-001 
-3.385933e-001 
-3.155316e-001 
-2.675491e-001 
-2.229026e-001 
-2.008506e-001 
-2.018420e-001 
-2.109427e-001 
-2.160306e-001 
-1.934313e-001 
-1.304394e-001 
-5.281747e-002 
7.454102e-003 
4.526112e-002 
6.448968e-002 
7.960932e-002 
9.854225e-002 
1.151036e-001 
1.289389e-001 
1.427320e-001 
1.558942e-001 
1.678385e-001 
1.780249e-001 
1.827983e-001 
1.835489e-001 
1.815395e-001 
1.744160e-001 
1.641275e-001 
1.510976e-001 
1.378028e-001 
1.228739e-001 
1.043373e-001 
8.353731e-002 
6.514526e-002 
4.761584e-002 
2.941846e-002 
1.336274e-002 
2.556976e-003 
-2.871969e-003 
-7.026287e-003 
-8.245121e-003 
-5.294070e-003 
1.626465e-003 
8.360378e-003 
1.458341e-002 
2.371828e-002 
3.547370e-002 
4.489942e-002 
5.258934e-002 
5.872759e-002 
6.115984e-002 
5.956596e-002 
5.292105e-002 
4.544367e-002 
4.085077e-002 
3.573614e-002 
3.167427e-002 
3.992468e-002 
5.041019e-002 
3.804672e-002 
-2.915658e-002 
-1.197050e-001 
-1.855697e-001 
-2.170426e-001 
-2.214270e-001 
-2.089604e-001 
-1.918297e-001 
-1.966840e-001 
-2.513226e-001 
-3.266598e-001 
-3.354913e-001 
-2.878455e-001 
-2.305837e-001 
-1.923597e-001 
-1.822944e-001 
-1.913756e-001 
-2.064766e-001 
-2.102369e-001 
-1.656925e-001 
-7.548785e-002 
8.695123e-003 
6.586841e-002 
9.466435e-002 
1.110440e-001 
1.291789e-001 
1.501888e-001 
1.707164e-001 
1.922103e-001 
2.131811e-001 
2.332289e-001 
2.496790e-001 
2.608838e-001 
2.660706e-001 
2.662446e-001 
2.616130e-001 
2.542565e-001 
2.444534e-001 
2.309698e-001 
2.142358e-001 
1.922419e-001 
1.655491e-001 
1.377046e-001 
1.107435e-001 
8.495302e-002 
6.122581e-002 
3.934801e-002 
2.079377e-002 
4.503964e-003 
-9.674666e-003 
-1.792155e-002 
-2.096890e-002 
-2.349319e-002 
-2.508644e-002 
-2.502824e-002 
-2.315258e-002 
-2.064529e-002 
-2.059524e-002 
-2.143530e-002 
-2.350029e-002 
-3.144075e-002 
-4.372714e-002 
-5.488207e-002 
-6.510272e-002 
-7.480444e-002 
-8.409186e-002 
-8.733823e-002 
-8.385735e-002 
-9.494889e-002 
-1.471672e-001 
-2.329909e-001 
-3.130354e-001 
-3.632492e-001 
-3.822834e-001 
-3.777534e-001 
-3.624965e-001 
-3.589873e-001 
-3.941659e-001 
-4.575396e-001 
-4.907226e-001 
-4.635707e-001 
-4.091521e-001 
-3.608078e-001 
-3.352988e-001 
-3.341139e-001 
-3.432829e-001 
-3.454858e-001 
-3.141637e-001 
-2.390862e-001 
-1.496126e-001 
-8.090056e-002 
-3.935880e-002 
-1.840101e-002 
-2.566662e-003 
1.607201e-002 
3.405918e-002 
5.094584e-002 
6.782029e-002 
8.472258e-002 
9.998944e-002 
1.121883e-001 
1.205234e-001 
1.243952e-001 
1.223293e-001 
1.160401e-001 
1.065486e-001 
9.393568e-002 
7.864017e-002 
6.078712e-002 
3.971380e-002 
1.613568e-002 
-9.915868e-003 
-3.584933e-002 
-5.965871e-002 
-8.060690e-002 
-9.821803e-002 
-1.131930e-001 
-1.253926e-001 
-1.359539e-001 
-1.446855e-001 
-1.524870e-001 
-1.587811e-001 
-1.629445e-001 
-1.660014e-001 
-1.692701e-001 
-1.729756e-001 
-1.793636e-001 
-1.894244e-001 
-2.015396e-001 
-2.167787e-001 
-2.318064e-001 
-2.442610e-001 
-2.518745e-001 
-2.502218e-001 
-2.428126e-001 
-2.470072e-001 
-2.770280e-001 
-3.439026e-001 
-4.157764e-001 
-4.653060e-001 
-4.898456e-001 
-4.866516e-001 
-4.709284e-001 
-4.651908e-001 
-4.870148e-001 
-5.367197e-001 
-5.787269e-001 
-5.661551e-001 
-5.287911e-001 
-4.877700e-001 
-4.576025e-001 
-4.535842e-001 
-4.662346e-001 
-4.775993e-001 
-4.652041e-001 
-4.113404e-001 
-3.344831e-001 
-2.698429e-001 
-2.207218e-001 
-1.931419e-001 
-1.760050e-001 
-1.589173e-001 
-1.403717e-001 
-1.201130e-001 
-1.014064e-001 
-8.345982e-002 
-6.653809e-002 
-5.269727e-002 
-4.146769e-002 
-3.218804e-002 
-2.644475e-002 
-2.512330e-002 
-2.760786e-002 
-3.204219e-002 
-3.782083e-002 
-4.729437e-002 
-5.905431e-002 
-7.142687e-002 
-8.461986e-002 
-9.865332e-002 
-1.127762e-001 
-1.219933e-001 
-1.267841e-001 
-1.315218e-001 
-1.352971e-001 
-1.368279e-001 
-1.346954e-001 
-1.294144e-001 
-1.255429e-001 
-1.206549e-001 
-1.106485e-001 
-1.029823e-001 
-9.762638e-002 
-9.311460e-002 
-9.126180e-002 
-8.974065e-002 
-9.354901e-002 
-1.021304e-001 
-1.073172e-001 
-1.109165e-001 
-1.131384e-001 
-1.053575e-001 
-9.201070e-002 
-9.226077e-002 
-1.365636e-001 
-2.124678e-001 
-2.786780e-001 
-3.181296e-001 
-3.289625e-001 
-3.191754e-001 
-3.023161e-001 
-2.966214e-001 
-3.331815e-001 
-3.977163e-001 
-4.188752e-001 
-3.890829e-001 
-3.400241e-001 
-2.972789e-001 
-2.794381e-001 
-2.817935e-001 
-2.937249e-001 
-3.030738e-001 
-2.731662e-001 
-1.986923e-001 
-1.201229e-001 
-5.945701e-002 
-2.330845e-002 
-2.975951e-003 
1.455125e-002 
3.198353e-002 
4.785952e-002 
6.485155e-002 
8.054095e-002 
9.375860e-002 
1.062152e-001 
1.177257e-001 
1.255541e-001 
1.288592e-001 
1.277912e-001 
1.235440e-001 
1.179286e-001 
1.074635e-001 
9.436327e-002 
8.181046e-002 
6.734016e-002 
5.067947e-002 
3.478228e-002 
1.959860e-002 
6.650927e-003 
-4.504422e-003 
-1.318035e-002 
-1.634827e-002 
-1.685885e-002 
-1.556158e-002 
-1.201674e-002 
-8.933717e-003 
-5.055931e-003 
1.345109e-003 
9.308758e-003 
1.965224e-002 
2.894271e-002 
3.442293e-002 
3.704583e-002 
3.502259e-002 
3.044160e-002 
2.735582e-002 
2.419400e-002 
2.239732e-002 
2.518998e-002 
3.518961e-002 
3.956070e-002 
1.515820e-002 
-5.621105e-002 
-1.384600e-001 
-1.934763e-001 
-2.173202e-001 
-2.160024e-001 
-2.026657e-001 
-1.930690e-001 
-2.115164e-001 
-2.700129e-001 
-3.282990e-001 
-3.198963e-001 
-2.683607e-001 
-2.159997e-001 
-1.847825e-001 
-1.801192e-001 
-1.887748e-001 
-1.970887e-001 
-1.846936e-001 
-1.245714e-001 
-3.287974e-002 
4.407867e-002 
9.393509e-002 
1.186730e-001 
1.359997e-001 
1.574442e-001 
1.785726e-001 
1.986402e-001 
2.188158e-001 
2.378228e-001 
2.549419e-001 
2.679265e-001 
2.765862e-001 
2.815964e-001 
2.827294e-001 
2.796520e-001 
2.742797e-001 
2.663170e-001 
2.539990e-001 
2.380729e-001 
2.195762e-001 
1.984622e-001 
1.768366e-001 
1.563224e-001 
1.366179e-001 
1.186238e-001 
1.033287e-001 
9.117944e-002 
8.214749e-002 
7.603889e-002 
7.332434e-002 
7.402804e-002 
7.539156e-002 
7.783017e-002 
8.192700e-002 
8.651846e-002 
9.042452e-002 
9.230038e-002 
9.152327e-002 
8.818166e-002 
8.189357e-002 
7.296550e-002 
6.510222e-002 
5.664185e-002 
4.976043e-002 
4.731652e-002 
5.152243e-002 
5.412985e-002 
3.778200e-002 
-2.600591e-002 
-1.128423e-001 
-1.810259e-001 
-2.176794e-001 
-2.226996e-001 
-2.120888e-001 
-2.016170e-001 
-2.096137e-001 
-2.565592e-001 
-3.219661e-001 
-3.327749e-001 
-2.929968e-001 
-2.389826e-001 
-2.005105e-001 
-1.908883e-001 
-1.989643e-001 
-2.094899e-001 
-2.058093e-001 
-1.593809e-001 
-7.193382e-002 
1.278605e-002 
7.397060e-002 
1.069372e-001 
1.264888e-001 
1.455443e-001 
1.667932e-001 
1.879047e-001 
2.069529e-001 
2.232569e-001 
2.373479e-001 
2.495037e-001 
2.586219e-001 
2.626692e-001 
2.625912e-001 
2.587429e-001 
2.491699e-001 
2.341308e-001 
2.150421e-001 
1.949094e-001 
1.735130e-001 
1.491922e-001 
1.232317e-001 
9.831254e-002 
7.382626e-002 
5.054691e-002 
3.022355e-002 
1.420151e-002 
2.818381e-003 
-5.786534e-003 
-1.212808e-002 
-1.569776e-002 
-1.624780e-002 
-1.610681e-002 
-1.542558e-002 
-1.238087e-002 
-7.889238e-003 
-3.855478e-003 
-1.166275e-003 
-1.117850e-003 
-1.859992e-003 
-3.760617e-003 
-7.262213e-003 
-8.522161e-003 
-3.942792e-003 
5.466249e-003 
1.941747e-002 
2.206811e-002 
-5.348960e-003 
-6.654925e-002 
-1.320473e-001 
-1.749209e-001 
-1.881195e-001 
-1.756222e-001 
-1.551075e-001 
-1.451105e-001 
-1.635432e-001 
-2.076115e-001 
-2.403860e-001 
-2.218074e-001 
-1.742107e-001 
-1.237416e-001 
-9.137319e-002 
-8.714425e-002 
-9.547701e-002 
-9.662985e-002 
-7.342301e-002 
-1.259345e-002 
6.873974e-002 
1.372286e-001 
1.829047e-001 
2.040249e-001 
2.157854e-001 
2.301899e-001 
2.444278e-001 
2.566598e-001 
2.687373e-001 
2.807225e-001 
2.900808e-001 
2.948485e-001 
2.966609e-001 
2.957293e-001 
2.903857e-001 
2.803714e-001 
2.682131e-001 
2.543800e-001 
2.374608e-001 
2.159444e-001 
1.935121e-001 
1.706449e-001 
1.465060e-001 
1.237091e-001 
1.025796e-001 
8.402820e-002 
6.873036e-002 
5.625054e-002 
4.649607e-002 
4.120534e-002 
3.868121e-002 
3.886516e-002 
4.041058e-002 
4.181252e-002 
4.549862e-002 
5.051621e-002 
5.473944e-002 
5.727433e-002 
5.855653e-002 
5.616520e-002 
4.879459e-002 
3.836309e-002 
2.991292e-002 
2.315099e-002 
1.827394e-002 
1.906227e-002 
2.641234e-002 
3.197744e-002 
1.826563e-002 
-3.820635e-002 
-1.093776e-001 
-1.652279e-001 
-2.003410e-001 
-2.055697e-001 
-1.940145e-001 
-1.843792e-001 
-1.906118e-001 
-2.330007e-001 
-2.892156e-001 
-2.941317e-001 
-2.641622e-001 
-2.221579e-001 
-1.851072e-001 
-1.751770e-001 
-1.838165e-001 
-1.959665e-001 
-1.968004e-001 
-1.575390e-001 
-8.326463e-002 
-1.313050e-002 
4.208269e-002 
7.399342e-002 
9.032121e-002 
1.055131e-001 
1.222900e-001 
1.392657e-001 
1.549055e-001 
1.690488e-001 
1.821430e-001 
1.955564e-001 
2.066039e-001 
2.126426e-001 
2.179725e-001 
2.192563e-001 
2.145633e-001 
2.075189e-001 
1.987800e-001 
1.888785e-001 
1.777936e-001 
1.619383e-001 
1.460005e-001 
1.332383e-001 
1.179687e-001 
1.036329e-001 
9.383210e-002 
8.739566e-002 
8.398042e-002 
8.160670e-002 
8.132855e-002 
8.552190e-002 
9.005888e-002 
9.252420e-002 
9.733539e-002 
1.051768e-001 
1.131756e-001 
1.194471e-001 
1.223081e-001 
1.233105e-001 
1.195571e-001 
1.109640e-001 
1.029172e-001 
9.708593e-002 
9.165457e-002 
8.712013e-002 
8.875077e-002 
9.435729e-002 
8.496386e-002 
3.463520e-002 
-4.604661e-002 
-1.193658e-001 
-1.619913e-001 
-1.727255e-001 
-1.628478e-001 
-1.455669e-001 
-1.423721e-001 
-1.766447e-001 
-2.361225e-001 
-2.624150e-001 
-2.307435e-001 
-1.716384e-001 
-1.227177e-001 
-1.008640e-001 
-1.011093e-001 
-1.113401e-001 
-1.118972e-001 
-7.710876e-002 
8.993311e-004 
9.033084e-002 
1.578482e-001 
1.958024e-001 
2.164038e-001 
2.323285e-001 
2.514430e-001 
2.735071e-001 
2.938200e-001 
3.131884e-001 
3.301038e-001 
3.451404e-001 
3.580944e-001 
3.651053e-001 
3.652826e-001 
3.634267e-001 
3.570142e-001 
3.459175e-001 
3.314412e-001 
3.138837e-001 
2.956609e-001 
2.733990e-001 
2.470969e-001 
2.214197e-001 
1.976077e-001 
1.749770e-001 
1.551990e-001 
1.386704e-001 
1.258907e-001 
1.158342e-001 
1.079138e-001 
1.037541e-001 
1.022816e-001 
1.027921e-001 
1.055499e-001 
1.097887e-001 
1.135810e-001 
1.153309e-001 
1.157320e-001 
1.136369e-001 
1.073689e-001 
9.869226e-002 
9.025077e-002 
8.313986e-002 
7.677773e-002 
7.161020e-002 
7.468267e-002 
7.867515e-002 
5.981184e-002 
-8.378486e-003 
-9.595934e-002 
-1.631353e-001 
-1.986858e-001 
-2.048806e-001 
-1.950697e-001 
-1.818633e-001 
-1.885342e-001 
-2.385724e-001 
-3.045849e-001 
-3.112159e-001 
-2.674216e-001 
-2.118200e-001 
-1.711253e-001 
-1.573354e-001 
-1.613815e-001 
-1.688159e-001 
-1.614114e-001 
-1.094350e-001 
-1.703407e-002 
6.936192e-002 
1.298613e-001 
1.633267e-001 
1.836957e-001 
2.043798e-001 
2.287147e-001 
2.523534e-001 
2.740459e-001 
2.949343e-001 
3.157358e-001 
3.328418e-001 
3.468979e-001 
3.575641e-001 
3.632388e-001 
3.622287e-001 
3.564810e-001 
3.478716e-001 
3.361497e-001 
3.215775e-001 
3.021196e-001 
2.824899e-001 
2.619719e-001 
2.379383e-001 
2.140222e-001 
1.928299e-001 
1.724501e-001 
1.546684e-001 
1.407901e-001 
1.293155e-001 
1.238723e-001 
1.204386e-001 
1.173871e-001 
1.166065e-001 
1.175315e-001 
1.193623e-001 
1.225693e-001 
1.244250e-001 
1.249753e-001 
1.246750e-001 
1.178981e-001 
1.085734e-001 
9.998650e-002 
9.358891e-002 
8.739149e-002 
8.584880e-002 
9.191242e-002 
1.026666e-001 
9.779349e-002 
5.464109e-002 
-1.307372e-002 
-7.454261e-002 
-1.136422e-001 
-1.255469e-001 
-1.148228e-001 
-9.987206e-002 
-9.822956e-002 
-1.321053e-001 
-1.867368e-001 
-2.089577e-001 
-1.859380e-001 
-1.433654e-001 
-1.027437e-001 
-8.387992e-002 
-8.874312e-002 
-1.017537e-001 
-1.068340e-001 
-7.873706e-002 
-1.245210e-002 
6.132806e-002 
1.202982e-001 
1.582644e-001 
1.770733e-001 
1.913896e-001 
2.082345e-001 
2.244536e-001 
2.405687e-001 
2.553978e-001 
2.683157e-001 
2.811021e-001 
2.903096e-001 
2.941951e-001 
2.947423e-001 
2.908160e-001 
2.844110e-001 
2.763768e-001 
2.646495e-001 
2.513589e-001 
2.358935e-001 
2.175890e-001 
1.970198e-001 
1.768328e-001 
1.591162e-001 
1.433968e-001 
1.292528e-001 
1.180591e-001 
1.091097e-001 
1.020150e-001 
9.641563e-002 
9.291031e-002 
9.290900e-002 
9.249403e-002 
9.346587e-002 
9.690707e-002 
9.907012e-002 
9.954993e-002 
9.870963e-002 
9.432930e-002 
8.787591e-002 
7.895134e-002 
6.987090e-002 
6.336893e-002 
5.725647e-002 
5.511323e-002 
6.098919e-002 
6.972055e-002 
6.288457e-002 
1.060396e-002 
-6.192876e-002 
-1.203979e-001 
-1.571507e-001 
-1.638398e-001 
-1.527730e-001 
-1.404154e-001 
-1.397796e-001 
-1.805273e-001 
-2.428824e-001 
-2.524043e-001 
-2.219033e-001 
-1.779515e-001 
-1.382236e-001 
-1.248308e-001 
-1.312422e-001 
-1.441603e-001 
-1.491868e-001 
-1.135949e-001 
-3.939656e-002 
3.235084e-002 
8.815527e-002 
1.207270e-001 
1.376352e-001 
1.513684e-001 
1.681117e-001 
1.855678e-001 
1.992474e-001 
2.121839e-001 
2.247643e-001 
2.343989e-001 
2.420512e-001 
2.462983e-001 
2.470058e-001 
2.436168e-001 
2.351866e-001 
2.237059e-001 
2.104422e-001 
1.951640e-001 
1.768817e-001 
1.580467e-001 
1.382423e-001 
1.164209e-001 
9.386834e-002 
7.476767e-002 
5.839703e-002 
4.558195e-002 
3.590726e-002 
2.724154e-002 
2.327750e-002 
2.014256e-002 
1.484923e-002 
1.209348e-002 
1.307382e-002 
1.375558e-002 
1.631702e-002 
1.634038e-002 
1.387144e-002 
9.398296e-003 
-9.592193e-004 
-1.230365e-002 
-2.038158e-002 
-2.908117e-002 
-3.521287e-002 
-3.331062e-002 
-2.748831e-002 
-3.334628e-002 
-7.645097e-002 
-1.561984e-001 
-2.345479e-001 
-2.853896e-001 
-3.051280e-001 
-2.992138e-001 
-2.838422e-001 
-2.801246e-001 
-3.110985e-001 
-3.720969e-001 
-4.111453e-001 
-3.910787e-001 
-3.392240e-001 
-2.904793e-001 
-2.642567e-001 
-2.634596e-001 
-2.751692e-001 
-2.808022e-001 
-2.565625e-001 
-1.879621e-001 
-1.000768e-001 
-2.975527e-002 
1.335810e-002 
3.532133e-002 
5.111161e-002 
6.991320e-002 
8.917800e-002 
1.069991e-001 
1.247251e-001 
1.412083e-001 
1.547210e-001 
1.640077e-001 
1.700581e-001 
1.714039e-001 
1.671146e-001 
1.582454e-001 
1.462056e-001 
1.311268e-001 
1.129052e-001 
9.129684e-002 
6.795417e-002 
4.239854e-002 
1.313817e-002 
-1.592104e-002 
-4.180822e-002 
-6.513623e-002 
-8.482781e-002 
-1.006775e-001 
-1.133968e-001 
-1.221933e-001 
-1.294834e-001 
-1.352767e-001 
-1.380697e-001 
-1.378880e-001 
-1.366826e-001 
-1.353202e-001 
-1.353647e-001 
-1.375353e-001 
-1.434980e-001 
-1.534588e-001 
-1.648323e-001 
-1.749228e-001 
-1.830045e-001 
-1.916997e-001 
-1.988532e-001 
-1.955108e-001 
-1.926778e-001 
-2.133132e-001 
-2.820694e-001 
-3.705886e-001 
-4.383878e-001 
-4.755075e-001 
-4.842204e-001 
-4.737767e-001 
-4.591768e-001 
-4.674737e-001 
-5.184820e-001 
-5.847764e-001 
-5.913114e-001 
-5.486749e-001 
-4.939399e-001 
-4.528570e-001 
-4.406536e-001 
-4.497313e-001 
-4.633735e-001 
-4.618323e-001 
-4.148704e-001 
-3.259025e-001 
-2.429471e-001 
-1.840490e-001 
-1.550602e-001 
-1.426920e-001 
-1.283535e-001 
-1.088953e-001 
-9.010758e-002 
-7.201136e-002 
-5.433419e-002 
-3.872906e-002 
-2.651925e-002 
-1.921449e-002 
-1.409906e-002 
-9.907171e-003 
-1.179928e-002 
-1.922427e-002 
-2.907319e-002 
-4.250498e-002 
-5.961365e-002 
-8.058501e-002 
-1.032858e-001 
-1.255082e-001 
-1.489855e-001 
-1.741791e-001 
-1.953477e-001 
-2.131728e-001 
-2.284965e-001 
-2.416009e-001 
-2.521024e-001 
-2.574978e-001 
-2.590368e-001 
-2.601874e-001 
-2.600983e-001 
-2.569281e-001 
-2.531290e-001 
-2.489654e-001 
-2.466393e-001 
-2.445142e-001 
-2.436939e-001 
-2.481916e-001 
-2.567805e-001 
-2.647710e-001 
-2.733723e-001 
-2.795236e-001 
-2.788830e-001 
-2.729835e-001 
-2.642009e-001 
-2.726596e-001 
-3.275271e-001 
-3.997741e-001 
-4.577783e-001 
-4.959483e-001 
-5.019798e-001 
-4.889991e-001 
-4.770313e-001 
-4.774172e-001 
-5.182798e-001 
-5.771147e-001 
-5.821972e-001 
-5.503303e-001 
-5.081152e-001 
-4.663971e-001 
-4.490148e-001 
-4.533517e-001 
-4.638695e-001 
-4.666593e-001 
-4.290568e-001 
-3.538247e-001 
-2.826576e-001 
-2.256298e-001 
-1.889033e-001 
-1.680538e-001 
-1.511993e-001 
-1.340512e-001 
-1.172206e-001 
-9.997920e-002 
-8.188778e-002 
-6.534178e-002 
-5.180171e-002 
-4.120604e-002 
-3.267741e-002 
-2.817418e-002 
-2.904388e-002 
-3.203622e-002 
-3.441688e-002 
-3.916151e-002 
-4.835044e-002 
-6.045662e-002 
-7.347393e-002 
-8.728003e-002 
-1.029680e-001 
-1.191171e-001 
-1.314820e-001 
-1.401005e-001 
-1.464185e-001 
-1.506455e-001 
-1.531557e-001 
-1.534715e-001 
-1.519630e-001 
-1.505364e-001 
-1.469208e-001 
-1.397586e-001 
-1.320023e-001 
-1.249883e-001 
-1.210260e-001 
-1.201605e-001 
-1.207494e-001 
-1.252471e-001 
-1.317121e-001 
-1.353150e-001 
-1.388988e-001 
-1.413572e-001 
-1.396645e-001 
-1.299338e-001 
-1.198627e-001 
-1.279741e-001 
-1.805394e-001 
-2.513553e-001 
-3.071094e-001 
-3.386883e-001 
-3.409936e-001 
-3.253716e-001 
-3.083932e-001 
-3.104939e-001 
-3.498354e-001 
-4.055845e-001 
-4.097602e-001 
-3.733376e-001 
-3.249655e-001 
-2.843923e-001 
-2.708615e-001 
-2.782026e-001 
-2.890981e-001 
-2.881201e-001 
-2.472011e-001 
-1.684205e-001 
-9.383633e-002 
-3.537952e-002 
-1.509949e-003 
1.613580e-002 
3.410231e-002 
5.393888e-002 
7.295228e-002 
9.215200e-002 
1.097317e-001 
1.270478e-001 
1.428819e-001 
1.556019e-001 
1.662996e-001 
1.731531e-001 
1.757442e-001 
1.748005e-001 
1.696761e-001 
1.616497e-001 
1.508314e-001 
1.370369e-001 
1.234305e-001 
1.081348e-001 
9.166286e-002 
7.618410e-002 
6.146143e-002 
4.986146e-002 
4.194402e-002 
3.575565e-002 
3.355602e-002 
3.483911e-002 
3.597594e-002 
3.745751e-002 
4.054354e-002 
4.657992e-002 
5.365146e-002 
6.009762e-002 
6.532960e-002 
6.897901e-002 
6.899122e-002 
6.461774e-002 
5.781046e-002 
5.204231e-002 
4.634618e-002 
4.076902e-002 
4.135300e-002 
5.266843e-002 
5.687950e-002 
2.765256e-002 
-4.832131e-002 
-1.325830e-001 
-1.850591e-001 
-2.034480e-001 
-1.966337e-001 
-1.764799e-001 
-1.613472e-001 
-1.814686e-001 
-2.397904e-001 
-2.907300e-001 
-2.726503e-001 
-2.119657e-001 
-1.551940e-001 
-1.225789e-001 
-1.160069e-001 
-1.255771e-001 
-1.336053e-001 
-1.133095e-001 
-4.702537e-002 
4.767110e-002 
1.249665e-001 
1.738383e-001 
2.001372e-001 
2.173542e-001 
2.374550e-001 
2.621383e-001 
2.843653e-001 
3.040663e-001 
3.258910e-001 
3.454274e-001 
3.615461e-001 
3.721217e-001 
3.761202e-001 
3.779886e-001 
3.757547e-001 
3.680725e-001 
3.591446e-001 
3.468857e-001 
3.299217e-001 
3.112706e-001 
2.887442e-001 
2.658930e-001 
2.447400e-001 
2.231588e-001 
2.036936e-001 
1.877812e-001 
1.750704e-001 
1.654595e-001 
1.590481e-001 
1.560820e-001 
1.573219e-001 
1.585955e-001 
1.609859e-001 
1.665491e-001 
1.728700e-001 
1.778749e-001 
1.813734e-001 
1.828058e-001 
1.791328e-001 
1.721806e-001 
1.634793e-001 
1.562572e-001 
1.493003e-001 
1.426845e-001 
1.399822e-001 
1.474405e-001 
1.472615e-001 
1.169396e-001 
4.365128e-002 
-3.959671e-002 
-9.712012e-002 
-1.234495e-001 
-1.228078e-001 
-1.086339e-001 
-9.701458e-002 
-1.159002e-001 
-1.714194e-001 
-2.253621e-001 
-2.158669e-001 
-1.657538e-001 
-1.123697e-001 
-7.824098e-002 
-7.130474e-002 
-8.040358e-002 
-8.908355e-002 
-7.378048e-002 
-1.322056e-002 
7.814839e-002 
1.545908e-001 
2.050066e-001 
2.306799e-001 
2.461141e-001 
2.624663e-001 
2.822029e-001 
3.023946e-001 
3.205335e-001 
3.365908e-001 
3.501299e-001 
3.611234e-001 
3.676641e-001 
3.687196e-001 
3.665523e-001 
3.617631e-001 
3.526843e-001 
3.395107e-001 
3.229014e-001 
3.036641e-001 
2.824671e-001 
2.597331e-001 
2.374421e-001 
2.160900e-001 
1.940037e-001 
1.723911e-001 
1.541764e-001 
1.397516e-001 
1.281897e-001 
1.207489e-001 
1.182793e-001 
1.193963e-001 
1.195891e-001 
1.194034e-001 
1.221829e-001 
1.274018e-001 
1.304253e-001 
1.310174e-001 
1.313752e-001 
1.286651e-001 
1.204696e-001 
1.088232e-001 
9.987128e-002 
9.078399e-002 
8.123132e-002 
7.552501e-002 
7.717342e-002 
8.006366e-002 
6.472319e-002 
9.891449e-003 
-6.829437e-002 
-1.382577e-001 
-1.875324e-001 
-2.033136e-001 
-1.941733e-001 
-1.815562e-001 
-1.832846e-001 
-2.205933e-001 
-2.769094e-001 
-2.950211e-001 
-2.694353e-001 
-2.243627e-001 
-1.763835e-001 
-1.520478e-001 
-1.536194e-001 
-1.627814e-001 
-1.622257e-001 
-1.259873e-001 
-5.224221e-002 
2.594060e-002 
8.924791e-002 
1.294366e-001 
1.477521e-001 
1.597966e-001 
1.739612e-001 
1.868286e-001 
1.996617e-001 
2.133654e-001 
2.260384e-001 
2.380627e-001 
2.477370e-001 
2.539993e-001 
2.559557e-001 
2.521037e-001 
2.445078e-001 
2.376908e-001 
2.275733e-001 
2.147311e-001 
2.004170e-001 
1.824682e-001 
1.631517e-001 
1.427709e-001 
1.225798e-001 
1.055618e-001 
9.091874e-002 
7.848459e-002 
6.894474e-002 
5.949807e-002 
5.253195e-002 
5.026421e-002 
4.791373e-002 
4.707287e-002 
4.738543e-002 
4.932157e-002 
5.263197e-002 
5.327435e-002 
5.158025e-002 
4.807925e-002 
4.043407e-002 
2.980626e-002 
2.007389e-002 
1.050409e-002 
7.466336e-003 
1.094242e-002 
2.174177e-002 
2.137930e-002 
-1.158226e-002 
-7.784764e-002 
-1.447713e-001 
-1.927634e-001 
-2.128541e-001 
-2.066657e-001 
-1.932919e-001 
-1.885228e-001 
-2.161627e-001 
-2.685153e-001 
-3.036052e-001 
-2.891072e-001 
-2.505298e-001 
-2.059808e-001 
-1.804140e-001 
-1.819493e-001 
-1.962754e-001 
-2.064854e-001 
-1.891473e-001 
-1.334032e-001 
-6.023633e-002 
1.492584e-003 
4.506697e-002 
6.501240e-002 
7.782709e-002 
9.410798e-002 
1.114546e-001 
1.280508e-001 
1.427678e-001 
1.563063e-001 
1.699063e-001 
1.797187e-001 
1.862611e-001 
1.938307e-001 
1.975885e-001 
1.958441e-001 
1.924859e-001 
1.849485e-001 
1.753131e-001 
1.641704e-001 
1.499145e-001 
1.372962e-001 
1.247019e-001 
1.082811e-001 
9.383272e-002 
8.232994e-002 
7.226642e-002 
6.597581e-002 
6.127506e-002 
5.928718e-002 
6.112850e-002 
6.178845e-002 
6.143452e-002 
6.471567e-002 
7.014362e-002 
7.458572e-002 
7.867932e-002 
8.205720e-002 
8.406247e-002 
8.140994e-002 
7.339940e-002 
6.571929e-002 
6.087897e-002 
5.449906e-002 
5.005350e-002 
5.533490e-002 
6.514890e-002 
6.008800e-002 
1.268362e-002 
-6.809731e-002 
-1.408569e-001 
-1.826815e-001 
-1.940029e-001 
-1.829478e-001 
-1.659528e-001 
-1.619969e-001 
-1.947750e-001 
-2.564604e-001 
-2.850590e-001 
-2.534393e-001 
-1.956811e-001 
-1.478660e-001 
-1.263895e-001 
-1.273809e-001 
-1.361208e-001 
-1.394110e-001 
-1.091700e-001 
-3.399926e-002 
5.331767e-002 
1.204603e-001 
1.593923e-001 
1.797220e-001 
1.972918e-001 
2.158912e-001 
2.337535e-001 
2.515300e-001 
2.688315e-001 
2.872078e-001 
3.041334e-001 
3.155934e-001 
3.216973e-001 
3.233119e-001 
3.204137e-001 
3.137885e-001 
3.038761e-001 
2.929969e-001 
2.797786e-001 
2.613349e-001 
2.386405e-001 
2.145032e-001 
1.910875e-001 
1.679580e-001 
1.456399e-001 
1.280218e-001 
1.151554e-001 
1.032512e-001 
9.307063e-002 
8.749366e-002 
8.532951e-002 
8.353408e-002 
8.293776e-002 
8.563190e-002 
9.154608e-002 
9.626930e-002 
9.913279e-002 
1.019147e-001 
1.015032e-001 
9.417914e-002 
8.430096e-002 
7.710848e-002 
7.138828e-002 
6.637358e-002 
6.253777e-002 
6.910957e-002 
7.506807e-002 
5.507357e-002 
-1.520698e-002 
-1.001048e-001 
-1.612344e-001 
-1.916382e-001 
-1.937232e-001 
-1.810786e-001 
-1.651140e-001 
-1.730158e-001 
-2.259091e-001 
-2.885808e-001 
-2.863498e-001 
-2.385392e-001 
-1.817329e-001 
-1.414090e-001 
-1.297568e-001 
-1.357112e-001 
-1.466488e-001 
-1.400370e-001 
-8.572773e-002 
4.167544e-003 
8.485224e-002 
1.422725e-001 
1.713807e-001 
1.861487e-001 
2.026182e-001 
2.234808e-001 
2.450517e-001 
2.626345e-001 
2.789340e-001 
2.965060e-001 
3.112215e-001 
3.204322e-001 
3.242680e-001 
3.258561e-001 
3.237387e-001 
3.163039e-001 
3.041066e-001 
2.918775e-001 
2.779395e-001 
2.582873e-001 
2.351356e-001 
2.120887e-001 
1.894233e-001 
1.668843e-001 
1.452619e-001 
1.272860e-001 
1.154367e-001 
1.033142e-001 
9.188602e-002 
8.689571e-002 
8.492049e-002 
8.248142e-002 
8.260158e-002 
8.650139e-002 
9.207706e-002 
9.449778e-002 
9.380394e-002 
9.422599e-002 
9.191596e-002 
8.324581e-002 
7.337960e-002 
6.652074e-002 
6.089816e-002 
5.571756e-002 
5.566081e-002 
6.261353e-002 
5.495892e-002 
8.912752e-003 
-6.345211e-002 
-1.291543e-001 
-1.736967e-001 
-1.914566e-001 
-1.872563e-001 
-1.762176e-001 
-1.763737e-001 
-2.105674e-001 
-2.650358e-001 
-2.891273e-001 
-2.684858e-001 
-2.283066e-001 
-1.861039e-001 
-1.642956e-001 
-1.657942e-001 
-1.757099e-001 
-1.786789e-001 
-1.519946e-001 
-8.874856e-002 
-1.599310e-002 
4.356288e-002 
8.192342e-002 
1.006583e-001 
1.153803e-001 
1.310859e-001 
1.460960e-001 
1.601670e-001 
1.748464e-001 
1.894408e-001 
2.027190e-001 
2.129905e-001 
2.220200e-001 
2.259650e-001 
2.240268e-001 
2.195650e-001 
2.131424e-001 
2.054199e-001 
1.958193e-001 
1.837740e-001 
1.700426e-001 
1.531503e-001 
1.336242e-001 
1.163070e-001 
1.005399e-001 
8.696182e-002 
7.724442e-002 
6.959086e-002 
6.328460e-002 
5.858404e-002 
5.588105e-002 
5.771645e-002 
6.021820e-002 
6.200718e-002 
6.714383e-002 
7.259065e-002 
7.609034e-002 
7.814201e-002 
7.735589e-002 
7.384233e-002 
6.731301e-002 
5.757435e-002 
4.936948e-002 
4.402407e-002 
4.177991e-002 
4.742169e-002 
5.686568e-002 
5.056499e-002 
3.486728e-003 
-6.547495e-002 
-1.257173e-001 
-1.634642e-001 
-1.726521e-001 
-1.642468e-001 
-1.519903e-001 
-1.514682e-001 
-1.891075e-001 
-2.463767e-001 
-2.602607e-001 
-2.346121e-001 
-1.929500e-001 
-1.546401e-001 
-1.407254e-001 
-1.459122e-001 
-1.583408e-001 
-1.660327e-001 
-1.368342e-001 
-7.010318e-002 
-3.243739e-003 
4.966465e-002 
8.159318e-002 
9.754083e-002 
1.104185e-001 
1.250891e-001 
1.398464e-001 
1.547666e-001 
1.686022e-001 
1.810489e-001 
1.925469e-001 
2.012326e-001 
2.051869e-001 
2.058256e-001 
2.044079e-001 
1.998060e-001 
1.924295e-001 
1.834801e-001 
1.719954e-001 
1.571615e-001 
1.403209e-001 
1.223022e-001 
1.053957e-001 
8.962785e-002 
7.473931e-002 
6.408232e-002 
5.689548e-002 
4.895235e-002 
4.324644e-002 
4.144627e-002 
4.099973e-002 
4.047394e-002 
4.107386e-002 
4.497712e-002 
4.934555e-002 
5.049803e-002 
4.933242e-002 
4.748755e-002 
4.140961e-002 
3.030322e-002 
1.844686e-002 
9.192133e-003 
-1.941766e-004 
-9.934453e-003 
-1.374772e-002 
-9.194097e-003 
-1.527082e-002 
-6.081541e-002 
-1.449272e-001 
-2.265666e-001 
-2.769765e-001 
-2.959181e-001 
-2.942346e-001 
-2.838366e-001 
-2.801698e-001 
-3.125112e-001 
-3.791400e-001 
-4.222561e-001 
-4.006408e-001 
-3.461817e-001 
-3.003884e-001 
-2.824229e-001 
-2.855170e-001 
-2.972307e-001 
-3.052691e-001 
-2.835072e-001 
-2.150394e-001 
-1.272339e-001 
-6.078611e-002 
-2.327600e-002 
-4.427547e-003 
1.306970e-002 
3.334730e-002 
5.223652e-002 
6.931888e-002 
8.595214e-002 
1.007262e-001 
1.143250e-001 
1.265868e-001 
1.336306e-001 
1.356806e-001 
1.311698e-001 
1.219962e-001 
1.114351e-001 
9.772133e-002 
8.008719e-002 
6.129383e-002 
4.013829e-002 
1.422747e-002 
-1.304756e-002 
-4.025324e-002 
-6.393187e-002 
-8.421910e-002 
-1.034312e-001 
-1.193332e-001 
-1.295315e-001 
-1.369209e-001 
-1.434979e-001 
-1.468446e-001 
-1.473744e-001 
-1.452838e-001 
-1.428426e-001 
-1.411863e-001 
-1.387569e-001 
-1.369705e-001 
-1.405677e-001 
-1.483020e-001 
-1.569016e-001 
-1.650969e-001 
-1.735102e-001 
-1.821005e-001 
-1.872501e-001 
-1.836975e-001 
-1.787627e-001 
-1.931763e-001 
-2.509980e-001 
-3.354490e-001 
-4.075887e-001 
-4.490550e-001 
-4.596477e-001 
-4.505111e-001 
-4.360003e-001 
-4.379806e-001 
-4.802062e-001 
-5.447190e-001 
-5.642647e-001 
-5.279611e-001 
-4.728892e-001 
-4.311142e-001 
-4.138895e-001 
-4.164612e-001 
-4.273353e-001 
-4.288702e-001 
-3.901304e-001 
-3.068890e-001 
-2.191615e-001 
-1.560812e-001 
-1.202284e-001 
-9.828347e-002 
-7.878218e-002 
-5.747246e-002 
-3.485961e-002 
-1.083125e-002 
1.272804e-002 
3.508126e-002 
5.372660e-002 
6.897209e-002 
8.100099e-002 
8.857454e-002 
9.044598e-002 
8.836452e-002 
8.281427e-002 
7.388479e-002 
6.148913e-002 
4.390368e-002 
2.490661e-002 
4.395340e-003 
-1.782305e-002 
-3.964026e-002 
-6.035937e-002 
-7.845169e-002 
-9.288377e-002 
-1.058591e-001 
-1.155472e-001 
-1.209924e-001 
-1.234330e-001 
-1.213493e-001 
-1.193219e-001 
-1.166251e-001 
-1.111510e-001 
-1.063419e-001 
-1.024850e-001 
-1.002085e-001 
-1.011163e-001 
-1.043811e-001 
-1.114290e-001 
-1.211766e-001 
-1.279522e-001 
-1.351283e-001 
-1.394283e-001 
-1.375561e-001 
-1.319554e-001 
-1.409243e-001 
-1.924611e-001 
-2.732079e-001 
-3.434319e-001 
-3.873369e-001 
-4.038324e-001 
-3.972100e-001 
-3.837616e-001 
-3.798301e-001 
-4.155564e-001 
-4.756473e-001 
-4.965729e-001 
-4.653013e-001 
-4.152573e-001 
-3.699603e-001 
-3.459822e-001 
-3.445345e-001 
-3.516190e-001 
-3.523622e-001 
-3.174208e-001 
-2.420637e-001 
-1.583372e-001 
-9.380417e-002 
-5.356756e-002 
-3.147190e-002 
-1.455005e-002 
4.132278e-003 
2.121037e-002 
3.609724e-002 
5.110897e-002 
6.574889e-002 
7.805545e-002 
8.905241e-002 
9.469592e-002 
9.416588e-002 
9.053675e-002 
8.418731e-002 
7.546064e-002 
6.348313e-002 
4.874617e-002 
3.302603e-002 
1.423077e-002 
-9.607164e-003 
-3.288850e-002 
-5.230880e-002 
-7.055100e-002 
-8.826837e-002 
-1.022436e-001 
-1.115498e-001 
-1.185831e-001 
-1.241057e-001 
-1.258668e-001 
-1.252537e-001 
-1.241329e-001 
-1.232123e-001 
-1.212223e-001 
-1.165852e-001 
-1.141808e-001 
-1.161456e-001 
-1.196381e-001 
-1.264684e-001 
-1.378519e-001 
-1.488816e-001 
-1.588208e-001 
-1.640517e-001 
-1.616292e-001 
-1.547549e-001 
-1.562989e-001 
-1.806251e-001 
-2.449311e-001 
-3.175148e-001 
-3.716968e-001 
-4.042107e-001 
-4.078721e-001 
-3.974414e-001 
-3.958993e-001 
-4.173966e-001 
-4.671361e-001 
-5.176177e-001 
-5.154602e-001 
-4.860230e-001 
-4.500304e-001 
-4.207623e-001 
-4.180743e-001 
-4.343262e-001 
-4.477190e-001 
-4.431573e-001 
-4.007656e-001 
-3.311612e-001 
-2.705845e-001 
-2.243663e-001 
-1.992554e-001 
-1.871949e-001 
-1.747893e-001 
-1.606967e-001 
-1.474453e-001 
-1.346102e-001 
-1.227292e-001 
-1.106546e-001 
-1.003421e-001 
-9.287071e-002 
-8.777044e-002 
-8.618965e-002 
-8.829725e-002 
-9.268220e-002 
-1.006339e-001 
-1.111264e-001 
-1.214861e-001 
-1.332483e-001 
-1.476980e-001 
-1.641385e-001 
-1.806126e-001 
-1.943204e-001 
-2.072532e-001 
-2.186817e-001 
-2.261800e-001 
-2.302585e-001 
-2.334638e-001 
-2.366442e-001 
-2.369048e-001 
-2.344640e-001 
-2.314545e-001 
-2.282558e-001 
-2.234500e-001 
-2.192092e-001 
-2.165207e-001 
-2.170679e-001 
-2.206015e-001 
-2.252348e-001 
-2.317138e-001 
-2.389834e-001 
-2.459645e-001 
-2.506649e-001 
-2.500145e-001 
-2.412195e-001 
-2.411318e-001 
-2.692425e-001 
-3.348445e-001 
-4.078461e-001 
-4.582935e-001 
-4.798375e-001 
-4.755546e-001 
-4.598094e-001 
-4.497113e-001 
-4.683623e-001 
-5.176061e-001 
-5.595542e-001 
-5.462249e-001 
-4.997013e-001 
-4.505878e-001 
-4.201042e-001 
-4.146525e-001 
-4.223634e-001 
-4.282313e-001 
-4.106373e-001 
-3.519043e-001 
-2.678544e-001 
-1.966305e-001 
-1.484872e-001 
-1.225650e-001 
-1.035149e-001 
-8.315730e-002 
-6.156405e-002 
-4.092516e-002 
-2.111694e-002 
-4.368946e-004 
1.710953e-002 
3.194318e-002 
4.511644e-002 
5.498472e-002 
5.957284e-002 
6.043667e-002 
5.711444e-002 
5.165809e-002 
4.323681e-002 
3.084496e-002 
1.821084e-002 
4.688561e-003 
-1.081249e-002 
-2.764222e-002 
-4.260016e-002 
-5.530647e-002 
-6.435312e-002 
-7.070697e-002 
-7.463034e-002 
-7.493390e-002 
-7.346048e-002 
-7.247362e-002 
-7.048083e-002 
-6.583297e-002 
-5.944196e-002 
-5.242913e-002 
-4.623831e-002 
-4.159774e-002 
-4.028232e-002 
-4.417907e-002 
-5.010959e-002 
-5.603311e-002 
-6.276272e-002 
-6.888262e-002 
-7.158030e-002 
-6.447856e-002 
-5.486111e-002 
-6.574451e-002 
-1.242244e-001 
-2.062638e-001 
-2.748708e-001 
-3.129727e-001 
-3.179239e-001 
-3.023081e-001 
-2.816772e-001 
-2.806626e-001 
-3.241801e-001 
-3.880114e-001 
-3.989608e-001 
-3.577001e-001 
-2.978944e-001 
-2.491431e-001 
-2.273934e-001 
-2.281870e-001 
-2.375724e-001 
-2.344163e-001 
-1.882315e-001 
-9.859097e-002 
-9.360956e-003 
5.688026e-002 
9.542658e-002 
1.181991e-001 
1.382298e-001 
1.619307e-001 
1.860420e-001 
2.087205e-001 
2.322152e-001 
2.541442e-001 
2.740402e-001 
2.901852e-001 
3.002494e-001 
3.051163e-001 
3.055597e-001 
3.009275e-001 
2.935463e-001 
2.836748e-001 
2.703984e-001 
2.537390e-001 
2.334048e-001 
2.103280e-001 
1.868879e-001 
1.643926e-001 
1.438649e-001 
1.268790e-001 
1.139359e-001 
1.034089e-001 
9.497913e-002 
9.035879e-002 
8.875378e-002 
9.018233e-002 
9.320135e-002 
9.887170e-002 
1.062949e-001 
1.124196e-001 
1.169764e-001 
1.202838e-001 
1.205870e-001 
1.171184e-001 
1.113049e-001 
1.045519e-001 
9.868322e-002 
9.240437e-002 
8.987103e-002 
9.697269e-002 
1.031158e-001 
8.803120e-002 
2.639953e-002 
-5.591641e-002 
-1.206801e-001 
-1.580531e-001 
-1.647016e-001 
-1.496450e-001 
-1.329156e-001 
-1.358255e-001 
-1.790361e-001 
-2.382707e-001 
-2.415211e-001 
-2.001268e-001 
-1.468429e-001 
-1.000689e-001 
-7.904976e-002 
-8.092923e-002 
-8.772927e-002 
-8.119536e-002 
-3.106460e-002 
5.748943e-002 
1.405199e-001 
2.033655e-001 
2.401761e-001 
2.603752e-001 
2.782712e-001 
2.987380e-001 
3.184055e-001 
3.368681e-001 
3.539274e-001 
3.701023e-001 
3.822684e-001 
3.915861e-001 
3.986884e-001 
4.007879e-001 
3.985522e-001 
3.914510e-001 
3.812692e-001 
3.689735e-001 
3.529911e-001 
3.333004e-001 
3.133425e-001 
2.917435e-001 
2.700604e-001 
2.496785e-001 
2.298440e-001 
2.145837e-001 
2.030619e-001 
1.929533e-001 
1.869897e-001 
1.835696e-001 
1.808481e-001 
1.797827e-001 
1.802688e-001 
1.832368e-001 
1.880553e-001 
1.913001e-001 
1.941622e-001 
1.936160e-001 
1.872376e-001 
1.797735e-001 
1.733239e-001 
1.681436e-001 
1.658395e-001 
1.682711e-001 
1.774766e-001 
1.875260e-001 
1.791066e-001 
1.313581e-001 
6.833537e-002 
1.535140e-002 
-2.108895e-002 
-3.044695e-002 
-2.168773e-002 
-1.058627e-002 
-1.173374e-002 
-5.001552e-002 
-1.027858e-001 
-1.093478e-001 
-8.652183e-002 
-5.274857e-002 
-1.608533e-002 
-3.581202e-004 
-4.530993e-003 
-1.705577e-002 
-2.349019e-002 
9.262172e-003 
7.500419e-002 
1.378764e-001 
1.933221e-001 
2.313692e-001 
2.521083e-001 
2.672069e-001 
2.813632e-001 
2.969820e-001 
3.119441e-001 
3.253569e-001 
3.396484e-001 
3.531469e-001 
3.627934e-001 
3.692277e-001 
3.719992e-001 
3.725690e-001 
3.693102e-001 
3.624201e-001 
3.562297e-001 
3.483487e-001 
3.371302e-001 
3.235442e-001 
3.097874e-001 
2.957917e-001 
2.815478e-001 
2.680532e-001 
2.597829e-001 
2.555840e-001 
2.519709e-001 
2.496212e-001 
2.501161e-001 
2.525536e-001 
2.539967e-001 
2.558628e-001 
2.613195e-001 
2.687931e-001 
2.753601e-001 
2.797199e-001 
2.816166e-001 
2.803513e-001 
2.744937e-001 
2.675769e-001 
2.627956e-001 
2.587269e-001 
2.573598e-001 
2.616635e-001 
2.707328e-001 
2.692121e-001 
2.320253e-001 
1.643176e-001 
1.006274e-001 
5.818022e-002 
4.266827e-002 
4.998241e-002 
6.461698e-002 
7.078777e-002 
4.369328e-002 
-1.062923e-002 
-3.985618e-002 
-1.959416e-002 
2.485972e-002 
7.020695e-002 
9.495905e-002 
9.634820e-002 
8.669229e-002 
7.975190e-002 
1.020805e-001 
1.631305e-001 
2.385194e-001 
3.012148e-001 
3.408602e-001 
3.590772e-001 
3.720955e-001 
3.879211e-001 
4.050798e-001 
4.218407e-001 
4.362007e-001 
4.511163e-001 
4.651082e-001 
4.742329e-001 
4.789039e-001 
4.827734e-001 
4.834330e-001 
4.803965e-001 
4.738396e-001 
4.645519e-001 
4.555385e-001 
4.434683e-001 
4.273602e-001 
4.110270e-001 
3.949965e-001 
3.776765e-001 
3.614722e-001 
3.475968e-001 
3.376639e-001 
3.303546e-001 
3.229826e-001 
3.199244e-001 
3.199271e-001 
3.201571e-001 
3.219323e-001 
3.256138e-001 
3.294431e-001 
3.321569e-001 
3.329276e-001 
3.334839e-001 
3.325089e-001 
3.258530e-001 
3.173692e-001 
3.093040e-001 
2.994341e-001 
2.890877e-001 
2.826341e-001 
2.844174e-001 
2.907084e-001 
2.811840e-001 
2.341155e-001 
1.560997e-001 
8.145388e-002 
3.574386e-002 
2.257392e-002 
3.056659e-002 
4.547191e-002 
4.723368e-002 
1.359372e-002 
-4.578976e-002 
-7.721917e-002 
-5.204903e-002 
5.763025e-004 
4.519936e-002 
6.556428e-002 
6.403826e-002 
5.378749e-002 
5.113292e-002 
7.998648e-002 
1.510780e-001 
2.355909e-001 
3.007755e-001 
3.392475e-001 
3.589411e-001 
3.748623e-001 
3.940085e-001 
4.129645e-001 
4.305479e-001 
4.469766e-001 
4.630601e-001 
4.771161e-001 
4.857331e-001 
4.895638e-001 
4.897941e-001 
4.857104e-001 
4.769471e-001 
4.632273e-001 
4.468797e-001 
4.297795e-001 
4.086961e-001 
3.848423e-001 
3.604606e-001 
3.362252e-001 
3.124112e-001 
2.890930e-001 
2.698681e-001 
2.558550e-001 
2.446997e-001 
2.366587e-001 
2.320742e-001 
2.284159e-001 
2.274494e-001 
2.279837e-001 
2.299566e-001 
2.334558e-001 
2.366170e-001 
2.394100e-001 
2.397741e-001 
2.347238e-001 
2.262359e-001 
2.187462e-001 
2.110355e-001 
2.016711e-001 
1.944419e-001 
1.951288e-001 
1.985028e-001 
1.867299e-001 
1.394224e-001 
6.055885e-002 
-1.375960e-002 
-6.132532e-002 
-8.013849e-002 
-7.593740e-002 
-6.514006e-002 
-6.702094e-002 
-1.001729e-001 
-1.586538e-001 
-1.923794e-001 
-1.698918e-001 
-1.206417e-001 
-7.645035e-002 
-5.527708e-002 
-5.608329e-002 
-6.448826e-002 
-6.685769e-002 
-4.005128e-002 
2.761451e-002 
1.094394e-001 
1.729460e-001 
2.104528e-001 
2.276729e-001 
2.411588e-001 
2.566067e-001 
2.717097e-001 
2.865177e-001 
3.011008e-001 
3.155439e-001 
3.277568e-001 
3.353527e-001 
3.383438e-001 
3.383370e-001 
3.333281e-001 
3.239260e-001 
3.129758e-001 
3.002143e-001 
2.831497e-001 
2.635522e-001 
2.417531e-001 
2.185202e-001 
1.951596e-001 
1.714986e-001 
1.503248e-001 
1.330883e-001 
1.175715e-001 
1.042105e-001 
9.525551e-002 
8.825185e-002 
8.375303e-002 
7.981157e-002 
7.817980e-002 
8.059957e-002 
8.367169e-002 
8.607348e-002 
8.688860e-002 
8.494323e-002 
7.976111e-002 
7.049248e-002 
5.973054e-002 
5.289672e-002 
4.537010e-002 
4.083561e-002 
4.406256e-002 
5.091167e-002 
4.674809e-002 
1.284791e-002 
-5.018371e-002 
-1.120471e-001 
-1.564905e-001 
-1.786063e-001 
-1.756198e-001 
-1.661984e-001 
-1.678102e-001 
-1.966744e-001 
-2.473468e-001 
-2.804152e-001 
-2.702520e-001 
-2.386901e-001 
-2.039283e-001 
-1.851545e-001 
-1.912067e-001 
-2.069323e-001 
-2.169041e-001 
-2.023529e-001 
-1.526089e-001 
-8.648934e-002 
-3.063794e-002 
6.038240e-003 
2.395468e-002 
3.588668e-002 
4.913677e-002 
6.143652e-002 
7.370321e-002 
8.670676e-002 
9.808829e-002 
1.063810e-001 
1.125058e-001 
1.183173e-001 
1.205192e-001 
1.183645e-001 
1.148344e-001 
1.100582e-001 
1.001963e-001 
8.655531e-002 
7.376043e-002 
6.133757e-002 
4.660674e-002 
3.033251e-002 
1.620080e-002 
4.296351e-003 
-6.847225e-003 
-1.653768e-002 
-2.071853e-002 
-2.143928e-002 
-2.306345e-002 
-2.309866e-002 
-2.172691e-002 
-1.981558e-002 
-1.631411e-002 
-1.226376e-002 
-7.164234e-003 
-7.312058e-004 
1.570505e-003 
-3.201404e-004 
-4.110360e-003 
-1.233111e-002 
-2.012611e-002 
-2.776872e-002 
-3.465392e-002 
-3.531077e-002 
-2.920983e-002 
-2.105111e-002 
-2.533349e-002 
-6.895684e-002 
-1.415183e-001 
-2.077823e-001 
-2.508983e-001 
-2.604503e-001 
-2.494529e-001 
-2.367300e-001 
-2.359596e-001 
-2.709646e-001 
-3.309364e-001 
-3.571745e-001 
-3.352473e-001 
-2.882338e-001 
-2.431701e-001 
-2.266991e-001 
-2.336774e-001 
-2.477487e-001 
-2.546498e-001 
-2.295686e-001 
-1.641776e-001 
-8.737290e-002 
-2.618222e-002 
9.209142e-003 
2.646404e-002 
4.034330e-002 
5.722667e-002 
7.256348e-002 
8.470689e-002 
9.958989e-002 
1.129339e-001 
1.237295e-001 
1.324570e-001 
1.368450e-001 
1.373481e-001 
1.339491e-001 
1.251152e-001 
1.163144e-001 
1.070126e-001 
9.367509e-002 
7.873589e-002 
6.114810e-002 
4.273891e-002 
2.436642e-002 
5.784336e-003 
-9.256955e-003 
-1.899910e-002 
-2.638231e-002 
-3.238247e-002 
-3.573198e-002 
-3.579461e-002 
-3.479070e-002 
-3.449465e-002 
-3.161884e-002 
-2.514334e-002 
-1.911677e-002 
-1.457700e-002 
-1.240067e-002 
-1.131303e-002 
-1.445078e-002 
-2.356746e-002 
-3.194847e-002 
-3.745866e-002 
-4.440503e-002 
-5.214679e-002 
-5.168297e-002 
-4.267383e-002 
-4.404470e-002 
-8.231006e-002 
-1.580328e-001 
-2.323579e-001 
-2.789412e-001 
-2.965895e-001 
-2.910523e-001 
-2.730664e-001 
-2.653835e-001 
-2.929304e-001 
-3.518607e-001 
-3.919325e-001 
-3.711526e-001 
-3.181090e-001 
-2.703813e-001 
-2.464127e-001 
-2.465094e-001 
-2.592524e-001 
-2.665559e-001 
-2.445968e-001 
-1.791130e-001 
-9.377334e-002 
-2.634637e-002 
1.450556e-002 
3.500001e-002 
5.169045e-002 
7.221783e-002 
9.385824e-002 
1.132928e-001 
1.309725e-001 
1.479533e-001 
1.620170e-001 
1.729811e-001 
1.802766e-001 
1.833040e-001 
1.817595e-001 
1.748425e-001 
1.642030e-001 
1.522347e-001 
1.364170e-001 
1.171169e-001 
9.752524e-002 
7.550424e-002 
5.210887e-002 
2.949590e-002 
8.387926e-003 
-8.609426e-003 
-2.150713e-002 
-3.272657e-002 
-4.048174e-002 
-4.366826e-002 
-4.442738e-002 
-4.311726e-002 
-4.028831e-002 
-3.546632e-002 
-2.911632e-002 
-2.403109e-002 
-2.099472e-002 
-1.913523e-002 
-1.899287e-002 
-2.315706e-002 
-3.089913e-002 
-3.867641e-002 
-4.610736e-002 
-5.394067e-002 
-5.873650e-002 
-5.498127e-002 
-4.975983e-002 
-5.988370e-002 
-1.120501e-001 
-1.913858e-001 
-2.596993e-001 
-3.003020e-001 
-3.111711e-001 
-3.008803e-001 
-2.867592e-001 
-2.883154e-001 
-3.250527e-001 
-3.857030e-001 
-4.061134e-001 
-3.747851e-001 
-3.236159e-001 
-2.804930e-001 
-2.614783e-001 
-2.647209e-001 
-2.742094e-001 
-2.737760e-001 
-2.375424e-001 
-1.604586e-001 
-7.889870e-002 
-1.736546e-002 
1.981324e-002 
4.099437e-002 
5.884666e-002 
7.946415e-002 
1.004775e-001 
1.198444e-001 
1.369255e-001 
1.530585e-001 
1.677572e-001 
1.808538e-001 
1.887129e-001 
1.906719e-001 
1.880873e-001 
1.801868e-001 
1.681408e-001 
1.550671e-001 
1.393724e-001 
1.210385e-001 
1.008201e-001 
7.605814e-002 
4.964752e-002 
2.408168e-002 
5.689502e-004 
-1.727978e-002 
-3.238560e-002 
-4.572492e-002 
-5.553330e-002 
-6.375100e-002 
-6.913668e-002 
-7.034102e-002 
-6.969036e-002 
-6.684835e-002 
-6.361007e-002 
-6.283546e-002 
-6.169135e-002 
-6.256514e-002 
-6.502010e-002 
-6.910906e-002 
-7.659035e-002 
-8.620321e-002 
-9.507444e-002 
-1.034106e-001 
-1.075191e-001 
-1.050385e-001 
-9.903857e-002 
-1.038606e-001 
-1.367353e-001 
-2.009499e-001 
-2.682168e-001 
-3.150020e-001 
-3.362626e-001 
-3.336007e-001 
-3.221082e-001 
-3.199560e-001 
-3.437844e-001 
-3.898405e-001 
-4.251664e-001 
-4.143745e-001 
-3.773053e-001 
-3.368712e-001 
-3.114562e-001 
-3.102756e-001 
-3.214643e-001 
-3.264376e-001 
-3.086531e-001 
-2.558829e-001 
-1.822747e-001 
-1.194719e-001 
-7.622642e-002 
-5.398634e-002 
-3.971142e-002 
-2.355086e-002 
-7.251863e-003 
6.429084e-003 
2.097799e-002 
3.496457e-002 
4.574366e-002 
5.466586e-002 
6.223094e-002 
6.754333e-002 
6.800212e-002 
6.437522e-002 
5.858382e-002 
5.190597e-002 
4.201631e-002 
2.951975e-002 
1.729255e-002 
3.470023e-003 
-1.278603e-002 
-2.860110e-002 
-4.184992e-002 
-5.347289e-002 
-6.258877e-002 
-7.000201e-002 
-7.420412e-002 
-7.518182e-002 
-7.451035e-002 
-7.114069e-002 
-6.660474e-002 
-6.180459e-002 
-5.673167e-002 
-5.179844e-002 
-4.659371e-002 
-4.130827e-002 
-3.840487e-002 
-3.939050e-002 
-4.532732e-002 
-5.384692e-002 
-6.182586e-002 
-7.086636e-002 
-7.547402e-002 
-7.156697e-002 
-5.906111e-002 
-5.226296e-002 
-6.859985e-002 
-1.287431e-001 
-2.020448e-001 
-2.565974e-001 
-2.837610e-001 
-2.810761e-001 
-2.665340e-001 
-2.562680e-001 
-2.688151e-001 
-3.162199e-001 
-3.733467e-001 
-3.731264e-001 
-3.338080e-001 
-2.866835e-001 
-2.551486e-001 
-2.500833e-001 
-2.604004e-001 
-2.728266e-001 
-2.701096e-001 
-2.271865e-001 
-1.485722e-001 
-7.808812e-002 
-2.814427e-002 
-1.219507e-003 
1.730978e-002 
3.558134e-002 
5.375894e-002 
7.099668e-002 
8.668778e-002 
1.040765e-001 
1.194682e-001 
1.318638e-001 
1.427620e-001 
1.503179e-001 
1.528663e-001 
1.518114e-001 
1.465564e-001 
1.399823e-001 
1.331773e-001 
1.220401e-001 
1.102428e-001 
9.693994e-002 
8.160038e-002 
6.634569e-002 
5.162234e-002 
3.863835e-002 
3.062620e-002 
2.564105e-002 
2.174556e-002 
2.080262e-002 
2.146669e-002 
2.272783e-002 
2.327843e-002 
2.501292e-002 
2.960097e-002 
3.498603e-002 
3.990965e-002 
4.291140e-002 
4.301934e-002 
3.857152e-002 
2.952510e-002 
2.027822e-002 
1.342122e-002 
5.578255e-003 
-8.314819e-004 
-5.804417e-004 
7.667049e-003 
7.260734e-003 
-2.260559e-002 
-9.563302e-002 
-1.757385e-001 
-2.268879e-001 
-2.477882e-001 
-2.428079e-001 
-2.253457e-001 
-2.149377e-001 
-2.352306e-001 
-2.908736e-001 
-3.437066e-001 
-3.289510e-001 
-2.726991e-001 
-2.202387e-001 
-1.895829e-001 
-1.859827e-001 
-1.973071e-001 
-2.059354e-001 
-1.909454e-001 
-1.303595e-001 
-3.862811e-002 
3.497471e-002 
8.013540e-002 
1.020467e-001 
1.164116e-001 
1.352667e-001 
1.555844e-001 
1.747312e-001 
1.928176e-001 
2.091523e-001 
2.240628e-001 
2.362870e-001 
2.440975e-001 
2.482276e-001 
2.482996e-001 
2.440172e-001 
2.365096e-001 
2.256436e-001 
2.119023e-001 
1.956106e-001 
1.756198e-001 
1.533830e-001 
1.300458e-001 
1.073276e-001 
8.596563e-002 
6.677999e-002 
4.930475e-002 
3.460715e-002 
2.316060e-002 
1.542883e-002 
1.226551e-002 
1.208727e-002 
1.323312e-002 
1.531309e-002 
1.935622e-002 
2.251560e-002 
2.556402e-002 
2.878982e-002 
3.141644e-002 
3.130604e-002 
2.587430e-002 
1.682024e-002 
8.909107e-003 
1.501868e-003 
-7.209083e-003 
-1.224875e-002 
-8.049250e-003 
-5.035673e-004 
-1.025796e-002 
-6.709594e-002 
-1.517956e-001 
-2.229388e-001 
-2.637855e-001 
-2.730694e-001 
-2.620315e-001 
-2.447361e-001 
-2.422460e-001 
-2.826980e-001 
-3.494943e-001 
-3.701046e-001 
-3.347900e-001 
-2.780291e-001 
-2.331369e-001 
-2.155062e-001 
-2.178522e-001 
-2.286585e-001 
-2.316545e-001 
-1.941178e-001 
-1.116224e-001 
-2.382282e-002 
4.107295e-002 
7.616455e-002 
9.477684e-002 
1.116613e-001 
1.297566e-001 
1.477589e-001 
1.671383e-001 
1.864896e-001 
2.031500e-001 
2.163997e-001 
2.266455e-001 
2.329052e-001 
2.340733e-001 
2.291151e-001 
2.219640e-001 
2.140040e-001 
2.009442e-001 
1.829347e-001 
1.630357e-001 
1.419191e-001 
1.193098e-001 
9.500596e-002 
7.216624e-002 
5.237409e-002 
3.500339e-002 
1.988713e-002 
6.529835e-003 
-3.847353e-003 
-9.158091e-003 
-1.142372e-002 
-1.224201e-002 
-1.192355e-002 
-9.605576e-003 
-4.079244e-003 
-2.834860e-004 
-1.579788e-004 
8.591702e-004 
1.409189e-003 
-3.584491e-003 
-1.243699e-002 
-2.041740e-002 
-2.610564e-002 
-3.169701e-002 
-3.486171e-002 
-2.926137e-002 
-1.848344e-002 
-2.374195e-002 
-6.960349e-002 
-1.388286e-001 
-1.996066e-001 
-2.424533e-001 
-2.591452e-001 
-2.514782e-001 
-2.380396e-001 
-2.367800e-001 
-2.715496e-001 
-3.283771e-001 
-3.471666e-001 
-3.236392e-001 
-2.859765e-001 
-2.463471e-001 
-2.253078e-001 
-2.281044e-001 
-2.396162e-001 
-2.459440e-001 
-2.179682e-001 
-1.502839e-001 
-7.775271e-002 
-2.046569e-002 
1.838208e-002 
3.961625e-002 
5.566555e-002 
7.179760e-002 
8.731701e-002 
1.022382e-001 
1.170051e-001 
1.306436e-001 
1.427202e-001 
1.545566e-001 
1.642995e-001 
1.697060e-001 
1.702240e-001 
1.675719e-001 
1.615215e-001 
1.552438e-001 
1.466810e-001 
1.358191e-001 
1.239515e-001 
1.102651e-001 
9.473655e-002 
8.061758e-002 
6.782596e-002 
5.665790e-002 
4.922509e-002 
4.377308e-002 
3.987221e-002 
3.804363e-002 
3.874129e-002 
4.132833e-002 
4.548528e-002 
5.012120e-002 
5.531518e-002 
6.199760e-002 
6.837689e-002 
7.234982e-002 
7.310299e-002 
7.100760e-002 
6.563959e-002 
5.863788e-002 
5.099097e-002 
4.400614e-002 
4.235439e-002 
4.786890e-002 
5.822956e-002 
5.747317e-002 
2.619099e-002 
-3.829118e-002 
-1.057317e-001 
-1.524174e-001 
-1.699090e-001 
-1.631661e-001 
-1.483391e-001 
-1.431034e-001 
-1.680518e-001 
-2.193341e-001 
-2.541836e-001 
-2.392595e-001 
-1.969796e-001 
-1.524002e-001 
-1.267021e-001 
-1.258558e-001 
-1.365480e-001 
-1.433646e-001 
-1.249691e-001 
-6.672855e-002 
1.028559e-002 
7.466369e-002 
1.192082e-001 
1.434667e-001 
1.606248e-001 
1.799207e-001 
1.973232e-001 
2.131319e-001 
2.301251e-001 
2.468642e-001 
2.617664e-001 
2.740022e-001 
2.819803e-001 
2.869357e-001 
2.871231e-001 
2.826013e-001 
2.774982e-001 
2.709669e-001 
2.605504e-001 
2.469572e-001 
2.316586e-001 
2.152600e-001 
1.978922e-001 
1.804430e-001 
1.660042e-001 
1.548787e-001 
1.463666e-001 
1.397420e-001 
1.359556e-001 
1.357295e-001 
1.360637e-001 
1.353796e-001 
1.366171e-001 
1.408778e-001 
1.466976e-001 
1.515838e-001 
1.550867e-001 
1.584043e-001 
1.577739e-001 
1.508039e-001 
1.422367e-001 
1.360059e-001 
1.300785e-001 
1.223547e-001 
1.165605e-001 
1.218042e-001 
1.295159e-001 
1.182029e-001 
6.470338e-002 
-1.631111e-002 
-8.736991e-002 
-1.291633e-001 
-1.396395e-001 
-1.290100e-001 
-1.130731e-001 
-1.158121e-001 
-1.574373e-001 
-2.220854e-001 
-2.456436e-001 
-2.138563e-001 
-1.585107e-001 
-1.139675e-001 
-9.772705e-002 
-1.029908e-001 
-1.158833e-001 
-1.183001e-001 
-8.277339e-002 
-4.836932e-003 
8.034995e-002 
1.448398e-001 
1.800196e-001 
1.984824e-001 
2.158252e-001 
2.357280e-001 
2.562379e-001 
2.747970e-001 
2.924195e-001 
3.109086e-001 
3.258152e-001 
3.363530e-001 
3.424389e-001 
3.448861e-001 
3.439811e-001 
3.388606e-001 
3.291521e-001 
3.175969e-001 
3.030206e-001 
2.832755e-001 
2.622901e-001 
2.402890e-001 
2.185854e-001 
1.980179e-001 
1.770132e-001 
1.568058e-001 
1.401321e-001 
1.262325e-001 
1.168374e-001 
1.128114e-001 
1.104077e-001 
1.108111e-001 
1.117088e-001 
1.119944e-001 
1.137827e-001 
1.175774e-001 
1.216559e-001 
1.254915e-001 
1.265022e-001 
1.216822e-001 
1.138407e-001 
1.040351e-001 
9.504363e-002 
8.649849e-002 
8.166380e-002 
8.122705e-002 
8.848825e-002 
8.798416e-002 
6.139392e-002 
-7.658588e-003 
-8.646718e-002 
-1.417016e-001 
-1.677675e-001 
-1.649753e-001 
-1.520519e-001 
-1.434442e-001 
-1.609551e-001 
-2.121495e-001 
-2.664210e-001 
-2.591230e-001 
-2.140472e-001 
-1.638413e-001 
-1.307398e-001 
-1.264713e-001 
-1.358212e-001 
-1.433699e-001 
-1.312264e-001 
-7.751768e-002 
8.247267e-003 
8.148972e-002 
1.321264e-001 
1.570046e-001 
1.721839e-001 
1.902632e-001 
2.091371e-001 
2.271550e-001 
2.453470e-001 
2.632302e-001 
2.787937e-001 
2.914021e-001 
3.008604e-001 
3.068308e-001 
3.081851e-001 
3.049229e-001 
3.007568e-001 
2.937043e-001 
2.808932e-001 
2.657224e-001 
2.492292e-001 
2.302947e-001 
2.088913e-001 
1.870305e-001 
1.669622e-001 
1.495032e-001 
1.317403e-001 
1.163587e-001 
1.043200e-001 
9.375673e-002 
8.525433e-002 
7.893010e-002 
7.386323e-002 
6.990828e-002 
6.709271e-002 
6.431265e-002 
6.220176e-002 
5.833614e-002 
5.236486e-002 
4.421675e-002 
3.359377e-002 
2.107937e-002 
9.043200e-003 
-2.078325e-003 
-9.146138e-003 
-9.713575e-003 
-4.082064e-003 
3.537077e-004 
-1.121923e-002 
-6.687057e-002 
-1.396472e-001 
-1.962723e-001 
-2.279290e-001 
-2.297964e-001 
-2.188285e-001 
-2.096774e-001 
-2.153429e-001 
-2.583195e-001 
-3.177038e-001 
-3.223824e-001 
-2.904826e-001 
-2.486796e-001 
-2.167911e-001 
-2.119031e-001 
-2.235058e-001 
-2.386347e-001 
-2.428546e-001 
-2.066560e-001 
-1.344844e-001 
-6.915554e-002 
-2.129225e-002 
4.103386e-003 
1.736307e-002 
2.979176e-002 
4.285737e-002 
5.512498e-002 
6.618731e-002 
7.688400e-002 
8.604123e-002 
9.400663e-002 
1.017712e-001 
1.068169e-001 
1.090574e-001 
1.063893e-001 
1.006259e-001 
9.358442e-002 
8.320647e-002 
7.061159e-002 
5.784975e-002 
4.370285e-002 
2.840094e-002 
1.371998e-002 
-1.843081e-003 
-1.421222e-002 
-2.441687e-002 
-3.238616e-002 
-3.581974e-002 
-3.654737e-002 
-3.551077e-002 
-3.402159e-002 
-3.407832e-002 
-3.356878e-002 
-3.041909e-002 
-2.563367e-002 
-1.872436e-002 
-1.359463e-002 
-1.117523e-002 
-1.330020e-002 
-2.180737e-002 
-3.139709e-002 
-3.918205e-002 
-4.473247e-002 
-4.795529e-002 
-5.023442e-002 
-4.271262e-002 
-3.393896e-002 
-4.906173e-002 
-1.166941e-001 
-2.042239e-001 
-2.654917e-001 
-2.922731e-001 
-2.935014e-001 
-2.810446e-001 
-2.646566e-001 
-2.698474e-001 
-3.222005e-001 
-3.951576e-001 
-3.983523e-001 
-3.455701e-001 
-2.881935e-001 
-2.522352e-001 
-2.456617e-001 
-2.536337e-001 
-2.642449e-001 
-2.653819e-001 
-2.191164e-001 
-1.242241e-001 
-4.111154e-002 
1.268424e-002 
3.933823e-002 
5.584049e-002 
7.726722e-002 
9.733495e-002 
1.144400e-001 
1.337479e-001 
1.526854e-001 
1.681189e-001 
1.813990e-001 
1.903953e-001 
1.946309e-001 
1.938055e-001 
1.865113e-001 
1.778566e-001 
1.674481e-001 
1.535812e-001 
1.385153e-001 
1.212613e-001 
1.008929e-001 
7.889721e-002 
5.760517e-002 
3.825360e-002 
2.106573e-002 
5.231621e-003 
-6.744762e-003 
-1.433917e-002 
-1.979156e-002 
-2.383664e-002 
-2.496933e-002 
-2.344349e-002 
-2.263709e-002 
-2.101997e-002 
-1.747018e-002 
-1.269295e-002 
-9.241657e-003 
-1.081460e-002 
-1.554297e-002 
-2.101708e-002 
-3.027897e-002 
-3.963381e-002 
-4.562597e-002 
-5.040602e-002 
-5.369703e-002 
-5.025727e-002 
-3.852499e-002 
-3.529636e-002 
-7.932027e-002 
-1.645476e-001 
-2.382043e-001 
-2.757807e-001 
-2.840609e-001 
-2.740683e-001 
-2.531153e-001 
-2.412497e-001 
-2.757829e-001 
-3.512917e-001 
-3.866877e-001 
-3.506629e-001 
-2.892847e-001 
-2.445150e-001 
-2.259234e-001 
-2.268804e-001 
-2.395305e-001 
-2.494898e-001 
-2.209364e-001 
-1.388501e-001 
-4.537539e-002 
2.058824e-002 
5.593168e-002 
7.777602e-002 
9.798354e-002 
1.203672e-001 
1.427325e-001 
1.630388e-001 
1.833309e-001 
2.016090e-001 
2.162922e-001 
2.307315e-001 
2.413207e-001 
2.442999e-001 
2.431571e-001 
2.364746e-001 
2.263673e-001 
2.146412e-001 
1.981762e-001 
1.802824e-001 
1.598502e-001 
1.345822e-001 
1.090053e-001 
8.447769e-002 
6.045471e-002 
3.858834e-002 
1.802602e-002 
1.600632e-003 
-9.607172e-003 
-2.017141e-002 
-2.753688e-002 
-3.021356e-002 
-3.047147e-002 
-3.234515e-002 
-3.460597e-002 
-3.395344e-002 
-3.249988e-002 
-3.361219e-002 
-3.821091e-002 
-4.329048e-002 
-5.022495e-002 
-6.139178e-002 
-7.566298e-002 
-8.531240e-002 
-9.339197e-002 
-1.013195e-001 
-1.037758e-001 
-9.522322e-002 
-9.215539e-002 
-1.198791e-001 
-1.890625e-001 
-2.648129e-001 
-3.145301e-001 
-3.358936e-001 
-3.301608e-001 
-3.099432e-001 
-2.942154e-001 
-3.117408e-001 
-3.654905e-001 
-4.125298e-001 
-3.993468e-001 
-3.495006e-001 
-2.956858e-001 
-2.603223e-001 
-2.534169e-001 
-2.626746e-001 
-2.722045e-001 
-2.566588e-001 
-1.958042e-001 
-1.080655e-001 
-3.350242e-002 
1.550798e-002 
3.848820e-002 
5.172618e-002 
6.795713e-002 
8.704837e-002 
1.066385e-001 
1.233263e-001 
1.387253e-001 
1.535552e-001 
1.639832e-001 
1.712312e-001 
1.745958e-001 
1.755186e-001 
1.732152e-001 
1.655357e-001 
1.549239e-001 
1.441053e-001 
1.299381e-001 
1.117975e-001 
9.236790e-002 
7.272421e-002 
5.440249e-002 
3.514753e-002 
1.665479e-002 
1.632861e-003 
-1.066977e-002 
-2.195956e-002 
-3.053924e-002 
-3.341936e-002 
-3.269595e-002 
-3.346534e-002 
-3.548734e-002 
-3.531360e-002 
-3.460416e-002 
-3.455992e-002 
-3.569704e-002 
-3.746230e-002 
-4.104277e-002 
-5.063496e-002 
-6.359954e-002 
-7.406309e-002 
-8.372200e-002 
-8.827696e-002 
-8.336146e-002 
-7.256400e-002 
-6.856876e-002 
-8.550333e-002 
-1.388791e-001 
-1.984913e-001 
-2.440704e-001 
-2.740264e-001 
-2.743769e-001 
-2.588620e-001 
-2.495429e-001 
-2.590125e-001 
-2.963488e-001 
-3.370697e-001 
-3.296039e-001 
-3.047281e-001 
-2.759108e-001 
-2.455431e-001 
-2.387695e-001 
-2.527394e-001 
-2.678034e-001 
-2.680008e-001 
-2.325115e-001 
-1.727701e-001 
-1.217436e-001 
-7.548376e-002 
-4.382494e-002 
-2.766268e-002 
-1.359249e-002 
1.307090e-003 
1.519272e-002 
2.739337e-002 
3.912862e-002 
5.363443e-002 
6.939817e-002 
8.200550e-002 
9.295627e-002 
1.014989e-001 
1.055853e-001 
1.070254e-001 
1.051685e-001 
1.018848e-001 
9.856328e-002 
9.231954e-002 
8.100408e-002 
6.775576e-002 
5.445190e-002 
4.195270e-002 
3.003401e-002 
2.081093e-002 
1.611675e-002 
1.324235e-002 
1.061524e-002 
8.963957e-003 
9.614100e-003 
1.003536e-002 
9.447424e-003 
1.134822e-002 
1.493487e-002 
1.730039e-002 
1.737369e-002 
1.554268e-002 
1.035395e-002 
8.354438e-004 
-1.100524e-002 
-2.043032e-002 
-2.835689e-002 
-3.114698e-002 
-2.554227e-002 
-1.627041e-002 
-1.317240e-002 
-2.854175e-002 
-8.143316e-002 
-1.418504e-001 
-1.876085e-001 
-2.204025e-001 
-2.273180e-001 
-2.221783e-001 
-2.234958e-001 
-2.401182e-001 
-2.846869e-001 
-3.353727e-001 
-3.353118e-001 
-3.169075e-001 
-2.973972e-001 
-2.767306e-001 
-2.767437e-001 
-2.935320e-001 
-3.101378e-001 
-3.136864e-001 
-2.821913e-001 
-2.238820e-001 
-1.758320e-001 
-1.331521e-001 
-1.024757e-001 
-8.398518e-002 
-6.749163e-002 
-5.239886e-002 
-4.092600e-002 
-3.046291e-002 
-2.007798e-002 
-1.021031e-002 
6.308763e-005 
7.241226e-003 
1.334168e-002 
1.558709e-002 
1.054486e-002 
2.511891e-003 
-6.358623e-003 
-1.713401e-002 
-2.845991e-002 
-4.218195e-002 
-5.778601e-002 
-7.125458e-002 
-8.643537e-002 
-9.982633e-002 
-1.094962e-001 
-1.176547e-001 
-1.214611e-001 
-1.226083e-001 
-1.232811e-001 
-1.197940e-001 
-1.145921e-001 
-1.115993e-001 
-1.067836e-001 
-1.016398e-001 
-9.634684e-002 
-8.961583e-002 
-8.544785e-002 
-8.335348e-002 
-8.466948e-002 
-9.189571e-002 
-1.020289e-001 
-1.108907e-001 
-1.193561e-001 
-1.231806e-001 
-1.192683e-001 
-1.083040e-001 
-1.034776e-001 
-1.163524e-001 
-1.652370e-001 
-2.252334e-001 
-2.694062e-001 
-2.983275e-001 
-3.031470e-001 
-2.917241e-001 
-2.844283e-001 
-2.963254e-001 
-3.346176e-001 
-3.827535e-001 
-3.830288e-001 
-3.583458e-001 
-3.308441e-001 
-3.040145e-001 
-2.971175e-001 
-3.100340e-001 
-3.266508e-001 
-3.300406e-001 
-2.979477e-001 
-2.362662e-001 
-1.815675e-001 
-1.351129e-001 
-1.029468e-001 
-8.257316e-002 
-6.690662e-002 
-5.297818e-002 
-3.704915e-002 
-2.249313e-002 
-1.080809e-002 
1.484551e-003 
1.224770e-002 
1.986327e-002 
2.474480e-002 
2.551764e-002 
2.381738e-002 
1.974258e-002 
1.147619e-002 
2.222599e-003 
-6.765671e-003 
-1.839638e-002 
-3.226619e-002 
-4.646546e-002 
-6.080401e-002 
-7.391266e-002 
-8.450160e-002 
-9.115091e-002 
-9.357136e-002 
-9.181772e-002 
-8.796212e-002 
-8.348072e-002 
-7.974421e-002 
-7.483567e-002 
-6.709201e-002 
-5.832643e-002 
-4.821185e-002 
-3.904790e-002 
-3.264149e-002 
-3.095688e-002 
-3.440858e-002 
-3.988502e-002 
-4.173417e-002 
-4.341149e-002 
-4.050685e-002 
-2.856576e-002 
-1.234702e-002 
5.308729e-003 
1.446224e-002 
-1.390135e-002 
-6.621788e-002 
-1.111901e-001 
-1.442019e-001 
-1.546686e-001 
-1.481888e-001 
-1.387860e-001 
-1.355469e-001 
-1.638606e-001 
-2.201629e-001 
-2.403195e-001 
-2.250082e-001 
-2.032059e-001 
-1.790208e-001 
-1.670482e-001 
-1.743666e-001 
-1.936100e-001 
-2.127244e-001 
-2.008718e-001 
-1.498922e-001 
-9.443581e-002 
-4.485810e-002 
-3.770566e-003 
2.463163e-002 
4.536603e-002 
6.211955e-002 
7.831478e-002 
9.563922e-002 
1.120758e-001 
1.271897e-001 
1.415208e-001 
1.537763e-001 
1.624765e-001 
1.671230e-001 
1.680054e-001 
1.677664e-001 
1.657105e-001 
1.607976e-001 
1.546389e-001 
1.476658e-001 
1.381850e-001 
1.265625e-001 
1.151367e-001 
1.050174e-001 
9.774570e-002 
9.325248e-002 
9.058203e-002 
9.131426e-002 
9.499594e-002 
1.003690e-001 
1.060642e-001 
1.123281e-001 
1.210627e-001 
1.316796e-001 
1.408199e-001 
1.488293e-001 
1.557533e-001 
1.591263e-001 
1.582127e-001 
1.533174e-001 
1.501588e-001 
1.482576e-001 
1.472341e-001 
1.537333e-001 
1.703178e-001 
1.890198e-001 
1.939628e-001 
1.557062e-001 
9.096613e-002 
3.700716e-002 
1.355395e-003 
-7.577367e-003 
4.551593e-003 
1.967028e-002 
2.145113e-002 
-1.522181e-002 
-7.791318e-002 
-9.743125e-002 
-7.311816e-002 
-3.701271e-002 
-2.890195e-003 
1.074012e-002 
2.551154e-003 
-1.611277e-002 
-3.059730e-002 
-8.956131e-003 
5.512237e-002 
1.236858e-001 
1.795047e-001 
2.184472e-001 
2.436893e-001 
2.651862e-001 
2.854528e-001 
3.039355e-001 
3.223135e-001 
3.410560e-001 
3.573973e-001 
3.714104e-001 
3.833602e-001 
3.914027e-001 
3.941243e-001 
3.914210e-001 
3.860288e-001 
3.783681e-001 
3.672302e-001 
3.535496e-001 
3.387671e-001 
3.214982e-001 
3.019036e-001 
2.812867e-001 
2.626740e-001 
2.485557e-001 
2.359302e-001 
2.265031e-001 
2.215744e-001 
2.194287e-001 
2.183635e-001 
2.167116e-001 
2.172537e-001 
2.222604e-001 
2.260496e-001 
2.284354e-001 
2.333815e-001 
2.363243e-001 
2.346107e-001 
2.275115e-001 
2.189852e-001 
2.134299e-001 
2.059580e-001 
1.983720e-001 
2.006619e-001 
2.155859e-001 
2.344564e-001 
2.398015e-001 
1.971077e-001 
1.228415e-001 
5.834866e-002 
1.958261e-002 
1.481766e-002 
3.388761e-002 
5.785154e-002 
6.564797e-002 
2.730945e-002 
-4.552136e-002 
-7.076677e-002 
-4.025862e-002 
9.816589e-003 
5.325150e-002 
6.892090e-002 
5.936522e-002 
3.765862e-002 
2.032988e-002 
4.409606e-002 
1.182973e-001 
1.981200e-001 
2.613929e-001 
2.994663e-001 
3.221671e-001 
3.434122e-001 
3.649183e-001 
3.854294e-001 
4.043824e-001 
4.225605e-001 
4.405848e-001 
4.552629e-001 
4.657342e-001 
4.730168e-001 
4.730972e-001 
4.665741e-001 
4.559094e-001 
4.435914e-001 
4.302023e-001 
4.137431e-001 
3.926621e-001 
3.694555e-001 
3.452347e-001 
3.195672e-001 
2.958765e-001 
2.777749e-001 
2.635937e-001 
2.525227e-001 
2.437172e-001 
2.370375e-001 
2.336708e-001 
2.321385e-001 
2.315677e-001 
2.348648e-001 
2.399891e-001 
2.432365e-001 
2.449203e-001 
2.428487e-001 
2.372239e-001 
2.281251e-001 
2.177440e-001 
2.071960e-001 
1.965006e-001 
1.864002e-001 
1.829851e-001 
1.947153e-001 
2.086991e-001 
1.990777e-001 
1.320597e-001 
4.522216e-002 
-1.661712e-002 
-4.837503e-002 
-5.105435e-002 
-3.435649e-002 
-1.510999e-002 
-2.350437e-002 
-8.549278e-002 
-1.673874e-001 
-1.746466e-001 
-1.311252e-001 
-8.515129e-002 
-5.667526e-002 
-5.595119e-002 
-7.743193e-002 
-1.091491e-001 
-1.266178e-001 
-9.104219e-002 
-8.475362e-003 
6.199774e-002 
1.076680e-001 
1.298213e-001 
1.421908e-001 
1.552394e-001 
1.721940e-001 
1.913462e-001 
2.080844e-001 
2.255066e-001 
2.415596e-001 
2.538944e-001 
2.629605e-001 
2.675900e-001 
2.699030e-001 
2.694710e-001 
2.628037e-001 
2.520333e-001 
2.390776e-001 
2.215832e-001 
2.021513e-001 
1.814766e-001 
1.603008e-001 
1.398415e-001 
1.182844e-001 
9.663384e-002 
7.660134e-002 
5.848098e-002 
4.483017e-002 
3.640532e-002 
3.214998e-002 
3.249157e-002 
3.560413e-002 
3.818192e-002 
4.028188e-002 
4.358291e-002 
4.791712e-002 
5.319783e-002 
5.867319e-002 
6.113005e-002 
5.918699e-002 
5.227729e-002 
4.111107e-002 
3.037025e-002 
2.053351e-002 
1.040501e-002 
4.689044e-003 
7.455125e-003 
2.132578e-002 
3.232050e-002 
1.698293e-002 
-4.928452e-002 
-1.319780e-001 
-1.870787e-001 
-2.090084e-001 
-2.033503e-001 
-1.823917e-001 
-1.645924e-001 
-1.763859e-001 
-2.340308e-001 
-3.021739e-001 
-2.985286e-001 
-2.447030e-001 
-1.926361e-001 
-1.631802e-001 
-1.605175e-001 
-1.750823e-001 
-1.934365e-001 
-1.957480e-001 
-1.466000e-001 
-5.559199e-002 
1.947949e-002 
6.690957e-002 
9.227338e-002 
1.111185e-001 
1.333392e-001 
1.535471e-001 
1.729651e-001 
1.948186e-001 
2.138510e-001 
2.309380e-001 
2.459558e-001 
2.549788e-001 
2.584678e-001 
2.560394e-001 
2.489715e-001 
2.409678e-001 
2.286881e-001 
2.119196e-001 
1.942573e-001 
1.727012e-001 
1.465049e-001 
1.190369e-001 
9.284733e-002 
6.981541e-002 
4.698334e-002 
2.326643e-002 
2.609047e-003 
-1.433208e-002 
-3.023718e-002 
-4.311901e-002 
-4.901224e-002 
-4.911960e-002 
-4.632996e-002 
-4.336893e-002 
-3.892865e-002 
-3.290358e-002 
-2.906375e-002 
-2.750038e-002 
-2.450901e-002 
-2.077819e-002 
-1.984736e-002 
-2.095331e-002 
-2.435328e-002 
-2.986523e-002 
-3.906723e-002 
-5.061793e-002 
-6.007815e-002 
-6.787751e-002 
-7.416127e-002 
-7.507685e-002 
-6.245238e-002 
-5.008356e-002 
-5.869190e-002 
-1.160397e-001 
-1.947963e-001 
-2.523702e-001 
-2.811888e-001 
-2.814297e-001 
-2.617201e-001 
-2.402182e-001 
-2.449485e-001 
-2.920189e-001 
-3.576757e-001 
-3.637022e-001 
-3.201980e-001 
-2.682390e-001 
-2.301576e-001 
-2.185243e-001 
-2.285723e-001 
-2.462987e-001 
-2.501499e-001 
-2.076164e-001 
-1.226839e-001 
-4.505422e-002 
9.897630e-003 
4.015847e-002 
5.879648e-002 
7.655576e-002 
9.559263e-002 
1.163481e-001 
1.369316e-001 
1.539583e-001 
1.690090e-001 
1.816024e-001 
1.919688e-001 
1.971114e-001 
1.970030e-001 
1.933895e-001 
1.848641e-001 
1.736756e-001 
1.604605e-001 
1.444833e-001 
1.263266e-001 
1.056221e-001 
8.272436e-002 
6.113249e-002 
3.907939e-002 
1.800061e-002 
2.819748e-004 
-1.694577e-002 
-3.257007e-002 
-4.569310e-002 
-5.678055e-002 
-6.348637e-002 
-6.830290e-002 
-7.186353e-002 
-7.196796e-002 
-6.974827e-002 
-6.571643e-002 
-6.088132e-002 
-5.649621e-002 
-5.099997e-002 
-4.525389e-002 
-4.191969e-002 
-3.914082e-002 
-3.597294e-002 
-3.294271e-002 
-3.158178e-002 
-3.364452e-002 
-3.697815e-002 
-4.121540e-002 
-4.746099e-002 
-5.556304e-002 
-6.323734e-002 
-6.936036e-002 
-7.008757e-002 
-6.286282e-002 
-4.750751e-002 
-4.131606e-002 
-6.115935e-002 
-1.202684e-001 
-1.904437e-001 
-2.404174e-001 
-2.625583e-001 
-2.554303e-001 
-2.360565e-001 
-2.282210e-001 
-2.489788e-001 
-2.959386e-001 
-3.436901e-001 
-3.388226e-001 
-3.004388e-001 
-2.564509e-001 
-2.269905e-001 
-2.267629e-001 
-2.447979e-001 
-2.573212e-001 
-2.470562e-001 
-2.002299e-001 
-1.250779e-001 
-5.985542e-002 
-1.355355e-002 
1.134106e-002 
2.632714e-002 
4.295391e-002 
6.311460e-002 
8.077659e-002 
9.431964e-002 
1.086449e-001 
1.232229e-001 
1.364914e-001 
1.482177e-001 
1.561338e-001 
1.603635e-001 
1.603298e-001 
1.536155e-001 
1.448860e-001 
1.365833e-001 
1.262404e-001 
1.143779e-001 
9.978539e-002 
8.199430e-002 
6.419969e-002 
4.658393e-002 
3.005744e-002 
1.630446e-002 
3.296355e-003 
-8.132895e-003 
-1.758420e-002 
-2.630466e-002 
-3.274171e-002 
-3.526389e-002 
-3.540867e-002 
-3.222374e-002 
-2.707051e-002 
-2.124608e-002 
-1.289446e-002 
-3.114875e-003 
4.310375e-003 
9.220295e-003 
1.404222e-002 
1.780134e-002 
2.094415e-002 
2.063145e-002 
1.767203e-002 
1.420602e-002 
8.648106e-003 
-1.144363e-004 
-7.430473e-003 
-9.906637e-003 
-4.178101e-003 
1.231441e-002 
3.452426e-002 
4.563583e-002 
1.926511e-002 
-3.914773e-002 
-9.542650e-002 
-1.321409e-001 
-1.437767e-001 
-1.298868e-001 
-1.088557e-001 
-1.017256e-001 
-1.313125e-001 
-1.889951e-001 
-2.183159e-001 
-2.004708e-001 
-1.664512e-001 
-1.321675e-001 
-1.139509e-001 
-1.230811e-001 
-1.470387e-001 
-1.672105e-001 
-1.557705e-001 
-1.024572e-001 
-3.577567e-002 
1.850326e-002 
5.647448e-002 
7.774473e-002 
9.221346e-002 
1.071946e-001 
1.222267e-001 
1.371999e-001 
1.519190e-001 
1.669769e-001 
1.806317e-001 
1.922029e-001 
2.023559e-001 
2.102819e-001 
2.145248e-001 
2.158530e-001 
2.142951e-001 
2.106944e-001 
2.055770e-001 
1.972852e-001 
1.878681e-001 
1.780267e-001 
1.665220e-001 
1.555320e-001 
1.452925e-001 
1.354388e-001 
1.272220e-001 
1.198569e-001 
1.142269e-001 
1.099225e-001 
1.057075e-001 
1.049823e-001 
1.084442e-001 
1.135540e-001 
1.206955e-001 
1.293076e-001 
1.388379e-001 
1.457916e-001 
1.501653e-001 
1.567744e-001 
1.622090e-001 
1.655079e-001 
1.674586e-001 
1.653421e-001 
1.598702e-001 
1.503788e-001 
1.380749e-001 
1.302301e-001 
1.230072e-001 
1.157791e-001 
1.188208e-001 
1.359477e-001 
1.499671e-001 
1.404289e-001 
7.838144e-002 
-4.165582e-003 
-6.163782e-002 
-8.737392e-002 
-8.310413e-002 
-6.135824e-002 
-4.198501e-002 
-5.349748e-002 
-1.090771e-001 
-1.804451e-001 
-1.855860e-001 
-1.355051e-001 
-8.082870e-002 
-4.883713e-002 
-4.628042e-002 
-6.364114e-002 
-8.616214e-002 
-8.969112e-002 
-4.622222e-002 
4.208131e-002 
1.200142e-001 
1.698527e-001 
1.965455e-001 
2.131649e-001 
2.332576e-001 
2.565949e-001 
2.782775e-001 
2.970292e-001 
3.159376e-001 
3.320799e-001 
3.475324e-001 
3.580185e-001 
3.619137e-001 
3.640452e-001 
3.607147e-001 
3.513128e-001 
3.404022e-001 
3.273709e-001 
3.104881e-001 
2.903360e-001 
2.666940e-001 
2.435392e-001 
2.210472e-001 
1.975610e-001 
1.753916e-001 
1.542277e-001 
1.334855e-001 
1.154149e-001 
9.964995e-002 
8.872278e-002 
8.309243e-002 
8.095836e-002 
8.133642e-002 
8.290529e-002 
8.662433e-002 
9.186672e-002 
9.553627e-002 
9.871096e-002 
1.022854e-001 
1.041173e-001 
1.055428e-001 
1.043662e-001 
1.002903e-001 
9.415599e-002 
8.296830e-002 
7.266528e-002 
6.402185e-002 
5.374493e-002 
4.655082e-002 
5.034151e-002 
6.388601e-002 
6.728798e-002 
2.509358e-002 
-5.778430e-002 
-1.337981e-001 
-1.764786e-001 
-1.881148e-001 
-1.802778e-001 
-1.607048e-001 
-1.492564e-001 
-1.834885e-001 
-2.588192e-001 
-3.013549e-001 
-2.722069e-001 
-2.137342e-001 
-1.725126e-001 
-1.586007e-001 
-1.634507e-001 
-1.814387e-001 
-2.001313e-001 
-1.839443e-001 
-1.144164e-001 
-2.847159e-002 
3.088075e-002 
6.006240e-002 
7.480349e-002 
8.942408e-002 
1.083079e-001 
1.277856e-001 
1.457429e-001 
1.639432e-001 
1.808226e-001 
1.954901e-001 
2.069574e-001 
2.150506e-001 
2.195308e-001 
2.190472e-001 
2.128566e-001 
2.022516e-001 
1.894217e-001 
1.731139e-001 
1.539732e-001 
1.321891e-001 
1.096778e-001 
8.532583e-002 
6.115187e-002 
3.821838e-002 
1.562200e-002 
-5.677958e-003 
-2.409406e-002 
-3.910396e-002 
-5.166445e-002 
-5.836393e-002 
-6.016458e-002 
-5.844341e-002 
-5.525065e-002 
-5.004432e-002 
-4.270691e-002 
-3.537428e-002 
-3.009277e-002 
-2.519617e-002 
-1.934041e-002 
-1.656561e-002 
-1.758791e-002 
-2.072541e-002 
-2.591266e-002 
-3.603766e-002 
-4.653517e-002 
-5.566569e-002 
-6.667145e-002 
-7.655036e-002 
-7.926647e-002 
-6.913088e-002 
-6.189455e-002 
-8.163396e-002 
-1.520869e-001 
-2.363023e-001 
-2.969885e-001 
-3.276368e-001 
-3.256191e-001 
-3.032815e-001 
-2.841168e-001 
-2.951437e-001 
-3.484819e-001 
-4.105984e-001 
-4.036044e-001 
-3.499046e-001 
-2.915994e-001 
-2.503556e-001 
-2.385735e-001 
-2.479711e-001 
-2.596739e-001 
-2.509697e-001 
-1.930420e-001 
-9.741604e-002 
-1.636257e-002 
3.835804e-002 
6.713942e-002 
8.624432e-002 
1.076144e-001 
1.309660e-001 
1.550285e-001 
1.755634e-001 
1.940513e-001 
2.141951e-001 
2.327303e-001 
2.485957e-001 
2.607216e-001 
2.666426e-001 
2.681024e-001 
2.639490e-001 
2.555319e-001 
2.483499e-001 
2.386095e-001 
2.246546e-001 
2.095499e-001 
1.909617e-001 
1.692917e-001 
1.474553e-001 
1.272733e-001 
1.096618e-001 
9.113470e-002 
7.146057e-002 
5.660701e-002 
4.665685e-002 
3.752990e-002 
3.211771e-002 
3.219492e-002 
3.448113e-002 
3.362334e-002 
3.123807e-002 
3.303719e-002 
3.627320e-002 
3.710550e-002 
3.544905e-002 
3.193614e-002 
2.427631e-002 
1.416850e-002 
2.194112e-003 
-6.138854e-003 
-1.164821e-002 
-1.703146e-002 
-1.865733e-002 
-1.016305e-002 
-8.180360e-003 
-3.276679e-002 
-1.014254e-001 
-1.847255e-001 
-2.400674e-001 
-2.624443e-001 
-2.583182e-001 
-2.402552e-001 
-2.230134e-001 
-2.367349e-001 
-2.869443e-001 
-3.409399e-001 
-3.298540e-001 
-2.722258e-001 
-2.131816e-001 
-1.758668e-001 
-1.654116e-001 
-1.733469e-001 
-1.842677e-001 
-1.728476e-001 
-1.173287e-001 
-2.571853e-002 
5.067181e-002 
9.939441e-002 
1.244381e-001 
1.380871e-001 
1.518491e-001 
1.708706e-001 
1.908636e-001 
2.100123e-001 
2.301142e-001 
2.483366e-001 
2.645350e-001 
2.754828e-001 
2.799283e-001 
2.825813e-001 
2.826451e-001 
2.767760e-001 
2.680621e-001 
2.568475e-001 
2.402803e-001 
2.193712e-001 
1.955775e-001 
1.700996e-001 
1.436243e-001 
1.161483e-001 
9.033488e-002 
6.767463e-002 
4.570254e-002 
2.542515e-002 
1.099578e-002 
2.027484e-003 
-3.330983e-003 
-3.683305e-003 
1.379999e-003 
8.547563e-003 
1.477435e-002 
2.054018e-002 
2.752297e-002 
3.509009e-002 
4.182576e-002 
4.542032e-002 
4.649407e-002 
4.434848e-002 
3.731138e-002 
2.908223e-002 
2.172086e-002 
1.386133e-002 
1.007382e-002 
1.513866e-002 
1.554865e-002 
-4.319913e-003 
-6.968485e-002 
-1.599796e-001 
-2.309470e-001 
-2.680802e-001 
-2.733295e-001 
-2.568971e-001 
-2.408225e-001 
-2.468789e-001 
-2.887154e-001 
-3.500799e-001 
-3.591909e-001 
-3.117279e-001 
-2.487230e-001 
-1.999915e-001 
-1.792152e-001 
-1.808458e-001 
-1.867456e-001 
-1.791640e-001 
-1.308852e-001 
-3.982525e-002 
4.821846e-002 
1.098659e-001 
1.431039e-001 
1.591341e-001 
1.722326e-001 
1.899210e-001 
2.106875e-001 
2.326064e-001 
2.543901e-001 
2.747430e-001 
2.924894e-001 
3.055724e-001 
3.119726e-001 
3.140991e-001 
3.138695e-001 
3.093466e-001 
3.013792e-001 
2.897337e-001 
2.735018e-001 
2.535960e-001 
2.306697e-001 
2.042146e-001 
1.772009e-001 
1.512972e-001 
1.263896e-001 
1.030724e-001 
7.845901e-002 
5.454561e-002 
3.505982e-002 
1.922078e-002 
6.807468e-003 
1.446847e-003 
2.136570e-003 
4.439903e-003 
6.482042e-003 
5.593971e-003 
5.399218e-003 
5.953868e-003 
2.503450e-003 
-3.563730e-003 
-9.335637e-003 
-1.903450e-002 
-3.312935e-002 
-4.693527e-002 
-6.138259e-002 
-7.512625e-002 
-8.243581e-002 
-8.153166e-002 
-7.627502e-002 
-8.529435e-002 
-1.275333e-001 
-1.940843e-001 
-2.581393e-001 
-3.051615e-001 
-3.230131e-001 
-3.131561e-001 
-2.992613e-001 
-3.018807e-001 
-3.349608e-001 
-3.833266e-001 
-4.090139e-001 
-3.957463e-001 
-3.600662e-001 
-3.204728e-001 
-3.021067e-001 
-3.115713e-001 
-3.325286e-001 
-3.434438e-001 
-3.247062e-001 
-2.753206e-001 
-2.136162e-001 
-1.609518e-001 
-1.273384e-001 
-1.135271e-001 
-1.066981e-001 
-9.727152e-002 
-8.292222e-002 
-6.941135e-002 
-5.686439e-002 
-4.199703e-002 
-2.813447e-002 
-1.796198e-002 
-1.329681e-002 
-1.068858e-002 
-8.223566e-003 
-7.653670e-003 
-1.134528e-002 
-1.487189e-002 
-2.009828e-002 
-2.986602e-002 
-4.200976e-002 
-5.587113e-002 
-6.871935e-002 
-8.216578e-002 
-9.629600e-002 
-1.080232e-001 
-1.170354e-001 
-1.259260e-001 
-1.331232e-001 
-1.369622e-001 
-1.380980e-001 
-1.377535e-001 
-1.377549e-001 
-1.367015e-001 
-1.343655e-001 
-1.326010e-001 
-1.330020e-001 
-1.337153e-001 
-1.348775e-001 
-1.407854e-001 
-1.511952e-001 
-1.631398e-001 
-1.730427e-001 
-1.813054e-001 
-1.876805e-001 
-1.870801e-001 
-1.761180e-001 
-1.715058e-001 
-1.886099e-001 
-2.424375e-001 
-3.127449e-001 
-3.697518e-001 
-4.026501e-001 
-4.040868e-001 
-3.873432e-001 
-3.765692e-001 
-3.892753e-001 
-4.306983e-001 
-4.817476e-001 
-4.894720e-001 
-4.584390e-001 
-4.114277e-001 
-3.714643e-001 
-3.628733e-001 
-3.753148e-001 
-3.885538e-001 
-3.861038e-001 
-3.473442e-001 
-2.753732e-001 
-2.057697e-001 
-1.533644e-001 
-1.261765e-001 
-1.164855e-001 
-1.068603e-001 
-9.538778e-002 
-8.188421e-002 
-6.947319e-002 
-6.002977e-002 
-5.276254e-002 
-4.569603e-002 
-4.159763e-002 
-4.126984e-002 
-4.388663e-002 
-4.913533e-002 
-5.596606e-002 
-6.884802e-002 
-8.473959e-002 
-1.014024e-001 
-1.193017e-001 
-1.392161e-001 
-1.595872e-001 
-1.800805e-001 
-1.987175e-001 
-2.173911e-001 
-2.366053e-001 
-2.530733e-001 
-2.670291e-001 
-2.778260e-001 
-2.849581e-001 
-2.895375e-001 
-2.929520e-001 
-2.955103e-001 
-2.980639e-001 
-2.995439e-001 
-3.000809e-001 
-2.986101e-001 
-2.968677e-001 
-2.990254e-001 
-3.062243e-001 
-3.151870e-001 
-3.248041e-001 
-3.329758e-001 
-3.354515e-001 
-3.277762e-001 
-3.081873e-001 
-2.954044e-001 
-3.098745e-001 
-3.663360e-001 
-4.334568e-001 
-4.797992e-001 
-4.971971e-001 
-4.899065e-001 
-4.706451e-001 
-4.571591e-001 
-4.732831e-001 
-5.245614e-001 
-5.768826e-001 
-5.717532e-001 
-5.301377e-001 
-4.859032e-001 
-4.606806e-001 
-4.599543e-001 
-4.767790e-001 
-4.955731e-001 
-4.937305e-001 
-4.489931e-001 
-3.752991e-001 
-3.124004e-001 
-2.688771e-001 
-2.462350e-001 
-2.312570e-001 
-2.134435e-001 
-1.917372e-001 
-1.693058e-001 
-1.477198e-001 
-1.279003e-001 
-1.070515e-001 
-8.775576e-002 
-7.312467e-002 
-6.111485e-002 
-5.135900e-002 
-4.654400e-002 
-4.529632e-002 
-4.620420e-002 
-4.887782e-002 
-5.194037e-002 
-5.861882e-002 
-6.807565e-002 
-7.862704e-002 
-9.067720e-002 
-1.025488e-001 
-1.119867e-001 
-1.184777e-001 
-1.214336e-001 
-1.225281e-001 
-1.232216e-001 
-1.207204e-001 
-1.181825e-001 
-1.161329e-001 
-1.121870e-001 
-1.050780e-001 
-9.574133e-002 
-8.749444e-002 
-8.416729e-002 
-8.518167e-002 
-8.993890e-002 
-9.980312e-002 
-1.098507e-001 
-1.161761e-001 
-1.191723e-001 
-1.199502e-001 
-1.111232e-001 
-9.929925e-002 
-1.048848e-001 
-1.622332e-001 
-2.500690e-001 
-3.179617e-001 
-3.495236e-001 
-3.545659e-001 
-3.435692e-001 
-3.265251e-001 
-3.291544e-001 
-3.795062e-001 
-4.584105e-001 
-4.783507e-001 
-4.354595e-001 
-3.803448e-001 
-3.460751e-001 
-3.381627e-001 
-3.504537e-001 
-3.725742e-001 
-3.845399e-001 
-3.493609e-001 
-2.651370e-001 
-1.849507e-001 
-1.310489e-001 
-1.028316e-001 
-8.651003e-002 
-6.860147e-002 
-4.640579e-002 
-2.261267e-002 
-4.148137e-004 
1.897130e-002 
3.853749e-002 
5.881573e-002 
7.282010e-002 
8.198628e-002 
8.864358e-002 
9.022729e-002 
8.736817e-002 
8.057363e-002 
7.244567e-002 
6.340763e-002 
4.862845e-002 
2.869174e-002 
9.556463e-003 
-9.118850e-003 
-2.831056e-002 
-4.531504e-002 
-5.732907e-002 
-6.616841e-002 
-7.459198e-002 
-8.195099e-002 
-8.520607e-002 
-8.520378e-002 
-8.335821e-002 
-7.954112e-002 
-7.147120e-002 
-6.229908e-002 
-5.763277e-002 
-5.555877e-002 
-5.530382e-002 
-5.798291e-002 
-6.318397e-002 
-6.715304e-002 
-7.050306e-002 
-7.351782e-002 
-7.447632e-002 
-6.117197e-002 
-4.137972e-002 
-4.783836e-002 
-1.155754e-001 
-2.038581e-001 
-2.605391e-001 
-2.833125e-001 
-2.818393e-001 
-2.646717e-001 
-2.405472e-001 
-2.446518e-001 
-3.077423e-001 
-3.869004e-001 
-3.858270e-001 
-3.276103e-001 
-2.710381e-001 
-2.425551e-001 
-2.389805e-001 
-2.514094e-001 
-2.735577e-001 
-2.798804e-001 
-2.299909e-001 
-1.343205e-001 
-5.389648e-002 
-5.864802e-003 
1.676712e-002 
3.516318e-002 
5.617958e-002 
7.963036e-002 
1.043275e-001 
1.293338e-001 
1.527068e-001 
1.745730e-001 
1.945788e-001 
2.101408e-001 
2.204843e-001 
2.261524e-001 
2.292181e-001 
2.276535e-001 
2.213244e-001 
2.112272e-001 
1.995861e-001 
1.846398e-001 
1.663385e-001 
1.465210e-001 
1.275246e-001 
1.105027e-001 
9.372076e-002 
7.979270e-002 
6.962905e-002 
6.121128e-002 
5.397904e-002 
4.992690e-002 
4.683936e-002 
4.778192e-002 
5.233533e-002 
5.741001e-002 
6.410022e-002 
7.052845e-002 
7.153810e-002 
6.983457e-002 
6.575104e-002 
5.999944e-002 
5.649266e-002 
5.185468e-002 
4.966414e-002 
5.688714e-002 
7.327452e-002 
8.193468e-002 
5.839603e-002 
-9.046770e-003 
-7.928922e-002 
-1.218651e-001 
-1.364485e-001 
-1.268203e-001 
-1.069084e-001 
-9.299685e-002 
-1.133067e-001 
-1.745182e-001 
-2.225055e-001 
-2.023388e-001 
-1.493475e-001 
-1.019332e-001 
-7.691720e-002 
-7.603326e-002 
-8.804282e-002 
-1.028451e-001 
-9.189856e-002 
-3.107508e-002 
5.516529e-002 
1.218017e-001 
1.623166e-001 
1.833673e-001 
2.016808e-001 
2.221614e-001 
2.418866e-001 
2.629026e-001 
2.840209e-001 
3.040953e-001 
3.214185e-001 
3.345223e-001 
3.443883e-001 
3.509229e-001 
3.511000e-001 
3.486530e-001 
3.458537e-001 
3.403233e-001 
3.299399e-001 
3.162040e-001 
3.000654e-001 
2.834580e-001 
2.655517e-001 
2.479608e-001 
2.343194e-001 
2.241483e-001 
2.133792e-001 
2.039480e-001 
1.991167e-001 
1.961861e-001 
1.933004e-001 
1.913973e-001 
1.939434e-001 
1.992450e-001 
2.035170e-001 
2.060098e-001 
2.086089e-001 
2.078722e-001 
2.007890e-001 
1.921741e-001 
1.879557e-001 
1.850040e-001 
1.823392e-001 
1.848351e-001 
2.004583e-001 
2.142574e-001 
1.997978e-001 
1.303163e-001 
4.793845e-002 
-5.801988e-003 
-3.189487e-002 
-3.128253e-002 
-1.540512e-002 
4.915553e-004 
-1.223838e-002 
-7.418717e-002 
-1.459529e-001 
-1.409889e-001 
-8.881304e-002 
-3.775272e-002 
-6.517571e-003 
-2.451268e-003 
-1.546505e-002 
-3.283081e-002 
-3.075304e-002 
2.498696e-002 
1.212109e-001 
2.010782e-001 
2.540155e-001 
2.831053e-001 
3.019512e-001 
3.232754e-001 
3.474410e-001 
3.704130e-001 
3.894268e-001 
4.059936e-001 
4.226037e-001 
4.363582e-001 
4.433434e-001 
4.454349e-001 
4.458870e-001 
4.408099e-001 
4.300246e-001 
4.165988e-001 
4.029438e-001 
3.874119e-001 
3.664494e-001 
3.430840e-001 
3.206994e-001 
2.992246e-001 
2.795020e-001 
2.643881e-001 
2.516388e-001 
2.425544e-001 
2.348148e-001 
2.279490e-001 
2.238159e-001 
2.213829e-001 
2.218171e-001 
2.240683e-001 
2.268729e-001 
2.284842e-001 
2.300787e-001 
2.259524e-001 
2.187640e-001 
2.121082e-001 
2.048822e-001 
1.966270e-001 
1.942238e-001 
2.014073e-001 
2.148156e-001 
2.206855e-001 
2.003716e-001 
1.430151e-001 
7.863560e-002 
2.922357e-002 
-4.528197e-004 
-5.273636e-004 
1.243088e-002 
1.676703e-002 
-2.972961e-003 
-5.310323e-002 
-1.007705e-001 
-9.539042e-002 
-6.687596e-002 
-3.404183e-002 
-6.593421e-003 
-4.591276e-003 
-2.242997e-002 
-3.913428e-002 
-3.583257e-002 
5.401956e-003 
7.291500e-002 
1.310476e-001 
1.767017e-001 
2.047182e-001 
2.200125e-001 
2.348921e-001 
2.525402e-001 
2.677792e-001 
2.823350e-001 
2.980247e-001 
3.108505e-001 
3.208668e-001 
3.288859e-001 
3.346079e-001 
3.383212e-001 
3.369313e-001 
3.321218e-001 
3.269557e-001 
3.182903e-001 
3.066313e-001 
2.942199e-001 
2.816218e-001 
2.672030e-001 
2.518716e-001 
2.390025e-001 
2.299465e-001 
2.227430e-001 
2.167270e-001 
2.131317e-001 
2.123446e-001 
2.108687e-001 
2.083322e-001 
2.106421e-001 
2.157392e-001 
2.196799e-001 
2.218365e-001 
2.224284e-001 
2.207951e-001 
2.146283e-001 
2.050429e-001 
1.986772e-001 
1.958539e-001 
1.981430e-001 
2.098616e-001 
2.301689e-001 
2.396462e-001 
2.066121e-001 
1.418034e-001 
8.316334e-002 
4.423131e-002 
2.769634e-002 
3.507307e-002 
5.138708e-002 
5.666670e-002 
2.000871e-002 
-4.575209e-002 
-7.590996e-002 
-5.895704e-002 
-2.702744e-002 
4.065199e-003 
2.070004e-002 
1.223903e-002 
-1.350516e-002 
-3.764182e-002 
-2.516234e-002 
3.005325e-002 
9.419006e-002 
1.465200e-001 
1.840559e-001 
2.073127e-001 
2.219362e-001 
2.365941e-001 
2.535996e-001 
2.709366e-001 
2.854969e-001 
2.977344e-001 
3.097600e-001 
3.207415e-001 
3.289457e-001 
3.334188e-001 
3.346798e-001 
3.320504e-001 
3.263587e-001 
3.170419e-001 
3.051850e-001 
2.922901e-001 
2.791804e-001 
2.649023e-001 
2.479420e-001 
2.315340e-001 
2.181662e-001 
2.083781e-001 
2.001379e-001 
1.942776e-001 
1.915435e-001 
1.912132e-001 
1.886538e-001 
1.864839e-001 
1.883148e-001 
1.905969e-001 
1.936385e-001 
1.963578e-001 
1.965092e-001 
1.934641e-001 
1.872231e-001 
1.786365e-001 
1.712772e-001 
1.647491e-001 
1.648666e-001 
1.763620e-001 
1.936282e-001 
1.987196e-001 
1.601380e-001 
9.146472e-002 
2.810255e-002 
-1.475128e-002 
-2.673707e-002 
-1.604039e-002 
-1.764779e-003 
1.777611e-003 
-3.656514e-002 
-1.060988e-001 
-1.350708e-001 
-1.156256e-001 
-7.586477e-002 
-3.642779e-002 
-2.266571e-002 
-3.276325e-002 
-5.405549e-002 
-7.418661e-002 
-5.698346e-002 
5.375073e-003 
7.636655e-002 
1.345158e-001 
1.705301e-001 
1.893635e-001 
2.056216e-001 
2.239711e-001 
2.431910e-001 
2.612292e-001 
2.782312e-001 
2.938347e-001 
3.056979e-001 
3.140437e-001 
3.192364e-001 
3.212607e-001 
3.196869e-001 
3.143613e-001 
3.055033e-001 
2.952779e-001 
2.825581e-001 
2.674538e-001 
2.505389e-001 
2.315912e-001 
2.133777e-001 
1.977508e-001 
1.856100e-001 
1.762970e-001 
1.714820e-001 
1.683184e-001 
1.656265e-001 
1.631863e-001 
1.626237e-001 
1.647964e-001 
1.694779e-001 
1.760156e-001 
1.812553e-001 
1.843935e-001 
1.823752e-001 
1.768622e-001 
1.700786e-001 
1.638689e-001 
1.557578e-001 
1.502278e-001 
1.497398e-001 
1.580693e-001 
1.678964e-001 
1.560236e-001 
8.962489e-002 
3.718510e-003 
-5.884103e-002 
-9.377665e-002 
-9.901510e-002 
-8.812750e-002 
-7.542143e-002 
-8.428901e-002 
-1.425800e-001 
-2.206231e-001 
-2.280338e-001 
-1.870737e-001 
-1.419441e-001 
-1.125126e-001 
-1.097169e-001 
-1.256157e-001 
-1.467550e-001 
-1.558042e-001 
-1.172842e-001 
-3.318925e-002 
4.147256e-002 
9.184804e-002 
1.175826e-001 
1.348122e-001 
1.535906e-001 
1.745538e-001 
1.933963e-001 
2.118850e-001 
2.331842e-001 
2.525704e-001 
2.672253e-001 
2.792398e-001 
2.872872e-001 
2.893158e-001 
2.883218e-001 
2.832678e-001 
2.753690e-001 
2.632546e-001 
2.462910e-001 
2.261231e-001 
2.033296e-001 
1.795379e-001 
1.574395e-001 
1.380754e-001 
1.184906e-001 
1.000775e-001 
8.441949e-002 
7.348587e-002 
6.570059e-002 
6.248540e-002 
6.027392e-002 
5.933065e-002 
6.075909e-002 
6.128981e-002 
6.390505e-002 
6.876707e-002 
7.144459e-002 
6.895370e-002 
6.336514e-002 
5.454806e-002 
4.861238e-002 
4.267116e-002 
4.185701e-002 
5.650758e-002 
8.254115e-002 
9.861333e-002 
7.963388e-002 
1.841915e-002 
-4.699075e-002 
-9.130233e-002 
-1.140418e-001 
-1.081265e-001 
-8.631702e-002 
-7.290808e-002 
-9.723142e-002 
-1.634048e-001 
-2.174747e-001 
-2.097722e-001 
-1.785380e-001 
-1.494528e-001 
-1.325812e-001 
-1.425079e-001 
-1.736770e-001 
-2.115767e-001 
-2.240132e-001 
-1.880047e-001 
-1.269889e-001 
-7.916817e-002 
-4.625881e-002 
-3.050981e-002 
-2.364046e-002 
-1.651398e-002 
-7.417340e-003 
2.988923e-003 
1.307134e-002 
2.967341e-002 
4.516444e-002 
5.520845e-002 
6.291535e-002 
6.835030e-002 
7.091987e-002 
6.976856e-002 
6.554331e-002 
6.283943e-002 
5.937182e-002 
4.706638e-002 
3.523963e-002 
2.599610e-002 
1.272946e-002 
-3.612692e-003 
-1.819243e-002 
-2.880471e-002 
-3.830638e-002 
-4.665669e-002 
-5.206131e-002 
-5.108110e-002 
-4.914879e-002 
-4.840848e-002 
-4.578310e-002 
-3.849713e-002 
-3.035252e-002 
-2.373812e-002 
-1.741893e-002 
-1.261203e-002 
-1.052004e-002 
-1.241168e-002 
-1.812578e-002 
-2.754548e-002 
-3.659079e-002 
-4.531996e-002 
-4.943141e-002 
-4.276301e-002 
-2.339578e-002 
-7.427628e-003 
-1.720934e-002 
-7.921217e-002 
-1.574008e-001 
-2.142364e-001 
-2.459716e-001 
-2.482950e-001 
-2.354806e-001 
-2.267468e-001 
-2.438197e-001 
-3.044408e-001 
-3.746760e-001 
-3.796546e-001 
-3.472838e-001 
-3.099372e-001 
-2.822755e-001 
-2.824479e-001 
-3.016598e-001 
-3.247112e-001 
-3.337355e-001 
-2.960035e-001 
-2.190122e-001 
-1.508564e-001 
-9.653032e-002 
-5.998941e-002 
-3.732577e-002 
-1.476638e-002 
6.270647e-003 
2.506962e-002 
4.456013e-002 
6.537294e-002 
8.423570e-002 
9.993223e-002 
1.056811e-001 
1.037794e-001 
9.975275e-002 
9.553358e-002 
9.212544e-002 
8.686073e-002 
7.996936e-002 
6.828323e-002 
5.216416e-002 
2.960030e-002 
9.454192e-003 
-2.722855e-003 
-7.486796e-003 
-1.469854e-002 
-2.327103e-002 
-3.083318e-002 
-3.677088e-002 
-4.219720e-002 
-4.586981e-002 
-3.934141e-002 
-2.700764e-002 
-1.577286e-002 
-7.849502e-003 
7.358800e-004 
1.070956e-002 
2.201611e-002 
2.976668e-002 
3.900508e-002 
4.925813e-002 
5.616546e-002 
6.102099e-002 
6.321094e-002 
6.138536e-002 
5.779096e-002 
5.138858e-002 
4.127389e-002 
3.371530e-002 
2.853665e-002 
2.674169e-002 
3.178863e-002 
5.288326e-002 
7.233076e-002 
6.932123e-002 
1.058639e-002 
-7.139492e-002 
-1.272763e-001 
-1.552592e-001 
-1.596681e-001 
-1.474954e-001 
-1.346339e-001 
-1.515840e-001 
-2.132621e-001 
-2.946116e-001 
-3.062293e-001 
-2.662850e-001 
-2.247717e-001 
-2.043254e-001 
-2.118405e-001 
-2.378901e-001 
-2.684283e-001 
-2.822714e-001 
-2.497741e-001 
-1.730699e-001 
-1.066019e-001 
-6.526076e-002 
-4.857984e-002 
-3.555889e-002 
-1.649052e-002 
6.571984e-003 
2.576446e-002 
3.828312e-002 
5.035185e-002 
6.348104e-002 
7.089930e-002 
7.541353e-002 
7.940813e-002 
7.736880e-002 
7.058205e-002 
5.707992e-002 
4.368948e-002 
3.512041e-002 
2.217274e-002 
1.045813e-003 
-1.482086e-002 
-3.111035e-002 
-5.098053e-002 
-6.918907e-002 
-8.856582e-002 
-1.045409e-001 
-1.183696e-001 
-1.363105e-001 
-1.489880e-001 
-1.514969e-001 
-1.547161e-001 
-1.558558e-001 
-1.551776e-001 
-1.541503e-001 
-1.511107e-001 
-1.507816e-001 
-1.515494e-001 
-1.517023e-001 
-1.511140e-001 
-1.525935e-001 
-1.532679e-001 
-1.502464e-001 
-1.454248e-001 
-1.441084e-001 
-1.439969e-001 
-1.451327e-001 
-1.455794e-001 
-1.420646e-001 
-1.388488e-001 
-1.323472e-001 
-1.237072e-001 
-1.242380e-001 
-1.316452e-001 
-1.357465e-001 
-1.345722e-001 
-1.297737e-001 
-1.215589e-001 
-1.142343e-001 
-1.078197e-001 
-1.150235e-001 
-1.349615e-001 
-1.389057e-001 
-1.270144e-001 
-1.107838e-001 
-9.566979e-002 
-7.883952e-002 
-6.848462e-002 
-6.650559e-002 
-7.322593e-002 
-6.481900e-002 
-3.718398e-002 
-1.489702e-002 
8.831040e-004 
1.055939e-002 
1.839277e-002 
2.104385e-002 
2.004397e-002 
2.048909e-002 
3.117557e-002 
3.886568e-002 
3.734985e-002 
3.881906e-002 
5.409549e-002 
9.201514e-002 
1.236927e-001 
1.173656e-001 
6.684643e-002 
8.795688e-003 
-3.101308e-002 
-4.424524e-002 
-2.803090e-002 
3.238131e-003 
2.457047e-002 
-1.818119e-003 
-7.402629e-002 
-1.375296e-001 
-1.362067e-001 
-9.575500e-002 
-5.419014e-002 
-3.427032e-002 
-4.437866e-002 
-7.572804e-002 
-1.124241e-001 
-1.235894e-001 
-8.360564e-002 
-8.221631e-003 
5.433848e-002 
9.096335e-002 
1.102504e-001 
1.271912e-001 
1.458374e-001 
1.616790e-001 
1.777897e-001 
1.975173e-001 
2.201388e-001 
2.327881e-001 
2.469943e-001 
2.671512e-001 
2.818853e-001 
2.902368e-001 
2.958177e-001 
3.030625e-001 
3.096619e-001 
3.102675e-001 
3.046881e-001 
3.090668e-001 
3.078916e-001 
3.003366e-001 
2.937178e-001 
2.899218e-001 
2.861698e-001 
2.774441e-001 
2.658477e-001 
2.577634e-001 
2.529360e-001 
2.445909e-001 
2.387977e-001 
2.354996e-001 
2.331680e-001 
2.255473e-001 
2.172306e-001 
2.113215e-001 
2.056176e-001 
2.008733e-001 
1.978766e-001 
1.978780e-001 
1.975036e-001 
1.903442e-001 
1.812750e-001 
1.755184e-001 
1.676961e-001 
1.596637e-001 
1.551909e-001 
1.529455e-001 
1.513152e-001 
1.432539e-001 
1.308878e-001 
1.249900e-001 
1.230541e-001 
1.201339e-001 
1.208752e-001 
1.246103e-001 
1.278581e-001 
1.287144e-001 
1.246319e-001 
1.232354e-001 
1.275978e-001 
1.314551e-001 
1.331776e-001 
1.351919e-001 
1.386536e-001 
1.441693e-001 
1.477252e-001 
1.508254e-001 
1.593719e-001 
1.694283e-001 
1.784517e-001 
1.842959e-001 
1.894591e-001 
1.977328e-001 
2.037241e-001 
2.057765e-001 
2.093113e-001 
2.125450e-001 
2.135661e-001 
2.133349e-001 
2.090453e-001 
2.036698e-001 
1.970340e-001 
1.892103e-001 
1.852628e-001 
1.919662e-001 
2.151073e-001 
2.492921e-001 
2.672118e-001 
2.234901e-001 
1.470525e-001 
8.633971e-002 
5.297255e-002 
5.278280e-002 
7.790981e-002 
1.077154e-001 
1.173849e-001 
7.002189e-002 
-1.389091e-002 
-3.506116e-002 
1.052902e-003 
5.097671e-002 
9.003984e-002 
9.802984e-002 
7.915435e-002 
4.656027e-002 
1.790633e-002 
3.710059e-002 
1.103347e-001 
1.841740e-001 
2.379619e-001 
2.651312e-001 
2.808278e-001 
2.952383e-001 
3.083268e-001 
3.239732e-001 
3.402315e-001 
3.543438e-001 
3.666456e-001 
3.784525e-001 
3.886537e-001 
3.981423e-001 
4.022134e-001 
4.021515e-001 
3.986041e-001 
3.879480e-001 
3.724491e-001 
3.552906e-001 
3.359043e-001 
3.119425e-001 
2.876950e-001 
2.619932e-001 
2.358879e-001 
2.075545e-001 
1.793905e-001 
1.542372e-001 
1.301373e-001 
1.061656e-001 
8.367126e-002 
6.532901e-002 
4.779638e-002 
3.124009e-002 
1.499222e-002 
3.174714e-003 
-7.620411e-003 
-2.058171e-002 
-3.173117e-002 
-4.049281e-002 
-5.075210e-002 
-6.523400e-002 
-7.968927e-002 
-9.319656e-002 
-1.054787e-001 
-1.202880e-001 
-1.350003e-001 
-1.459330e-001 
-1.578880e-001 
-1.741117e-001 
-1.906809e-001 
-2.041690e-001 
-2.175398e-001 
-2.321530e-001 
-2.483834e-001 
-2.614188e-001 
-2.732560e-001 
-2.866599e-001 
-2.982823e-001 
-3.056842e-001 
-3.104065e-001 
-3.157911e-001 
-3.239415e-001 
-3.303529e-001 
-3.357856e-001 
-3.448938e-001 
-3.532728e-001 
-3.599368e-001 
-3.658990e-001 
-3.718252e-001 
-3.801909e-001 
-3.903930e-001 
-3.985395e-001 
-4.097527e-001 
-4.192873e-001 
-4.167423e-001 
-3.987415e-001 
-3.688937e-001 
-3.537696e-001 
-3.843522e-001 
-4.566547e-001 
-5.319074e-001 
-5.877646e-001 
-6.118417e-001 
-6.006716e-001 
-5.783924e-001 
-5.765839e-001 
-6.223677e-001 
-7.026423e-001 
-7.585016e-001 
-7.576757e-001 
-7.301315e-001 
-6.979636e-001 
-6.848519e-001 
-7.090256e-001 
-7.539546e-001 
-7.942745e-001 
-7.988415e-001 
-7.558926e-001 
-6.921674e-001 
-6.380068e-001 
-6.021390e-001 
-5.885241e-001 
-5.835938e-001 
-5.750664e-001 
-5.637754e-001 
-5.516226e-001 
-5.400077e-001 
-5.265783e-001 
-5.118895e-001 
-5.006633e-001 
-4.932438e-001 
-4.871218e-001 
-4.835468e-001 
-4.848127e-001 
-4.907562e-001 
-4.993250e-001 
-5.093698e-001 
-5.224539e-001 
-5.395454e-001 
-5.577806e-001 
-5.771910e-001 
-5.990084e-001 
-6.207193e-001 
-6.414611e-001 
-6.608984e-001 
-6.769329e-001 
-6.910890e-001 
-7.036118e-001 
-7.139969e-001 
-7.225506e-001 
-7.271412e-001 
-7.290504e-001 
-7.311982e-001 
-7.304836e-001 
-7.261504e-001 
-7.227152e-001 
-7.211886e-001 
-7.187150e-001 
-7.149195e-001 
-7.114012e-001 
-7.095303e-001 
-7.080670e-001 
-7.050427e-001 
-7.009144e-001 
-6.971954e-001 
-6.932045e-001 
-6.865900e-001 
-6.792967e-001 
-6.714273e-001 
-6.651319e-001 
-6.600955e-001 
-6.534402e-001 
-6.447104e-001 
-6.378928e-001 
-6.339095e-001 
-6.315748e-001 
-6.318128e-001 
-6.348545e-001 
-6.406947e-001 
-6.436132e-001 
-6.403191e-001 
-6.270682e-001 
-5.994728e-001 
-5.662004e-001 
-5.526544e-001 
-5.927044e-001 
-6.683790e-001 
-7.346886e-001 
-7.698165e-001 
-7.711431e-001 
-7.482527e-001 
-7.233349e-001 
-7.236819e-001 
-7.732892e-001 
-8.510134e-001 
-8.783536e-001 
-8.447423e-001 
-7.898852e-001 
-7.474463e-001 
-7.356093e-001 
-7.525729e-001 
-7.812915e-001 
-7.990814e-001 
-7.704182e-001 
-6.890516e-001 
-6.008648e-001 
-5.343398e-001 
-4.938758e-001 
-4.664802e-001 
-4.388189e-001 
-4.085536e-001 
-3.773924e-001 
-3.454343e-001 
-3.148156e-001 
-2.872855e-001 
-2.619535e-001 
-2.402665e-001 
-2.217695e-001 
-2.079975e-001 
-2.016135e-001 
-2.006620e-001 
-2.045899e-001 
-2.124000e-001 
-2.240499e-001 
-2.413597e-001 
-2.628228e-001 
-2.850784e-001 
-3.093153e-001 
-3.366097e-001 
-3.644293e-001 
-3.894279e-001 
-4.113653e-001 
-4.332724e-001 
-4.534980e-001 
-4.681984e-001 
-4.766961e-001 
-4.822995e-001 
-4.868642e-001 
-4.874882e-001 
-4.823491e-001 
-4.748588e-001 
-4.666162e-001 
-4.565529e-001 
-4.430468e-001 
-4.286246e-001 
-4.188600e-001 
-4.117144e-001 
-4.031235e-001 
-3.932674e-001 
-3.860316e-001 
-3.804889e-001 
-3.746896e-001 
-3.706454e-001 
-3.723244e-001 
-3.768251e-001 
-3.794133e-001 
-3.811491e-001 
-3.788277e-001 
-3.672150e-001 
-3.389787e-001 
-3.153508e-001 
-3.211208e-001 
-3.764388e-001 
-4.456404e-001 
-4.920985e-001 
-5.105915e-001 
-4.962953e-001 
-4.640146e-001 
-4.377252e-001 
-4.457013e-001 
-4.947090e-001 
-5.501791e-001 
-5.403753e-001 
-4.896046e-001 
-4.338873e-001 
-3.940080e-001 
-3.856867e-001 
-3.985176e-001 
-4.142464e-001 
-4.100915e-001 
-3.599798e-001 
-2.738754e-001 
-1.997320e-001 
-1.476730e-001 
-1.203101e-001 
-1.012590e-001 
-7.735464e-002 
-5.125226e-002 
-2.766872e-002 
-4.833615e-003 
1.927035e-002 
4.190298e-002 
6.084429e-002 
7.811762e-002 
9.481412e-002 
1.078082e-001 
1.115091e-001 
1.074897e-001 
1.032719e-001 
9.628132e-002 
8.365208e-002 
6.957627e-002 
5.596125e-002 
3.990798e-002 
1.931243e-002 
-5.274304e-003 
-2.685551e-002 
-4.356114e-002 
-6.002353e-002 
-7.506217e-002 
-8.526601e-002 
-9.370631e-002 
-1.004079e-001 
-1.038740e-001 
-1.021071e-001 
-9.407870e-002 
-8.393300e-002 
-7.397727e-002 
-6.469197e-002 
-5.636762e-002 
-4.829456e-002 
-4.044381e-002 
-3.451860e-002 
-2.905224e-002 
-2.618917e-002 
-2.794850e-002 
-3.240576e-002 
-3.751775e-002 
-4.099879e-002 
-4.177504e-002 
-3.970462e-002 
-2.876595e-002 
-8.943914e-003 
-2.870765e-003 
-3.079586e-002 
-8.733964e-002 
-1.452027e-001 
-1.846551e-001 
-2.001227e-001 
-1.911131e-001 
-1.704838e-001 
-1.633856e-001 
-1.923651e-001 
-2.440837e-001 
-2.749116e-001 
-2.607245e-001 
-2.231412e-001 
-1.822779e-001 
-1.563504e-001 
-1.587842e-001 
-1.764684e-001 
-1.874867e-001 
-1.688139e-001 
-1.126899e-001 
-3.990243e-002 
2.271733e-002 
6.592654e-002 
8.801247e-002 
1.038721e-001 
1.250363e-001 
1.478518e-001 
1.702574e-001 
1.917240e-001 
2.128122e-001 
2.316195e-001 
2.460736e-001 
2.606622e-001 
2.740432e-001 
2.814728e-001 
2.837280e-001 
2.822987e-001 
2.781106e-001 
2.709767e-001 
2.606286e-001 
2.492860e-001 
2.373383e-001 
2.199161e-001 
2.009492e-001 
1.846326e-001 
1.702639e-001 
1.569727e-001 
1.436757e-001 
1.324559e-001 
1.243886e-001 
1.191514e-001 
1.182157e-001 
1.234895e-001 
1.318158e-001 
1.424911e-001 
1.528211e-001 
1.606954e-001 
1.696839e-001 
1.795913e-001 
1.909823e-001 
2.015437e-001 
2.073598e-001 
2.103747e-001 
2.110659e-001 
2.058616e-001 
2.000891e-001 
1.980642e-001 
1.978555e-001 
2.016916e-001 
2.153324e-001 
2.296717e-001 
2.237680e-001 
1.702312e-001 
9.612372e-002 
4.141887e-002 
1.445157e-002 
1.528475e-002 
3.325930e-002 
5.346767e-002 
5.064292e-002 
4.675592e-003 
-5.612993e-002 
-6.145796e-002 
-2.254628e-002 
2.903408e-002 
7.055904e-002 
8.285382e-002 
7.489082e-002 
6.087507e-002 
5.912212e-002 
1.009368e-001 
1.808323e-001 
2.570871e-001 
3.163868e-001 
3.498268e-001 
3.663818e-001 
3.865686e-001 
4.107882e-001 
4.354155e-001 
4.590512e-001 
4.817539e-001 
5.052415e-001 
5.250151e-001 
5.382092e-001 
5.477324e-001 
5.565959e-001 
5.599226e-001 
5.576390e-001 
5.521107e-001 
5.442414e-001 
5.324160e-001 
5.161355e-001 
4.987600e-001 
4.814726e-001 
4.620840e-001 
4.409887e-001 
4.212808e-001 
4.031567e-001 
3.865243e-001 
3.728146e-001 
3.643155e-001 
3.600708e-001 
3.580711e-001 
3.583889e-001 
3.618481e-001 
3.664854e-001 
3.715417e-001 
3.779627e-001 
3.865392e-001 
3.942265e-001 
3.979798e-001 
4.007558e-001 
4.017193e-001 
3.995344e-001 
3.945648e-001 
3.901074e-001 
3.879057e-001 
3.876810e-001 
3.891510e-001 
4.012967e-001 
4.166656e-001 
4.120296e-001 
3.594464e-001 
2.894418e-001 
2.387123e-001 
2.114473e-001 
2.091952e-001 
2.240554e-001 
2.439155e-001 
2.431435e-001 
1.988240e-001 
1.380967e-001 
1.362000e-001 
1.732337e-001 
2.185283e-001 
2.547628e-001 
2.681722e-001 
2.636700e-001 
2.497953e-001 
2.462684e-001 
2.864110e-001 
3.645166e-001 
4.353282e-001 
4.888544e-001 
5.204212e-001 
5.423963e-001 
5.610523e-001 
5.783712e-001 
5.981463e-001 
6.181462e-001 
6.369726e-001 
6.553649e-001 
6.733229e-001 
6.895656e-001 
7.002960e-001 
7.030640e-001 
7.027907e-001 
6.991092e-001 
6.904695e-001 
6.803064e-001 
6.694298e-001 
6.554017e-001 
6.359460e-001 
6.134481e-001 
5.900571e-001 
5.685579e-001 
