65
1.6927
580.5385 
2.2139
2.107923e-003 
-6.950522e-005 
-7.443257e-003 
-1.307529e-002 
-1.626951e-002 
-2.133626e-002 
-2.795622e-002 
-3.403478e-002 
-3.724105e-002 
-4.150113e-002 
-5.513500e-002 
-5.624286e-002 
-2.253207e-002 
4.247637e-002 
5.557367e-002 
-1.451259e-002 
-1.259426e-001 
-2.460314e-001 
-3.334710e-001 
-3.695891e-001 
-3.472824e-001 
-2.751293e-001 
-2.427863e-001 
-3.302418e-001 
-4.256915e-001 
-4.581556e-001 
-4.255776e-001 
-3.356859e-001 
-2.423994e-001 
-1.725874e-001 
-1.460301e-001 
-1.764314e-001 
-1.948214e-001 
-1.242711e-001 
4.694562e-003 
1.570679e-001 
2.929744e-001 
3.848983e-001 
4.397208e-001 
4.704215e-001 
4.986740e-001 
5.317141e-001 
5.675747e-001 
6.041681e-001 
6.476691e-001 
6.968640e-001 
7.423367e-001 
7.860649e-001 
8.326150e-001 
8.803473e-001 
9.217986e-001 
9.512300e-001 
9.698193e-001 
9.773209e-001 
9.665326e-001 
9.412492e-001 
9.092686e-001 
8.703038e-001 
8.205433e-001 
7.580604e-001 
6.864623e-001 
6.072769e-001 
5.201752e-001 
4.322172e-001 
3.481310e-001 
2.666850e-001 
1.861844e-001 
1.069974e-001 
3.455428e-002 
-2.931545e-002 
-8.555461e-002 
-1.280047e-001 
-1.544485e-001 
-1.718375e-001 
-1.845346e-001 
-1.927608e-001 
-1.953200e-001 
-1.951318e-001 
-1.957291e-001 
-1.963310e-001 
-1.934057e-001 
-1.904903e-001 
-1.917316e-001 
-1.938780e-001 
-1.924847e-001 
-1.908079e-001 
-1.914724e-001 
-1.930212e-001 
-1.941987e-001 
-1.958712e-001 
-2.012826e-001 
-2.061808e-001 
-2.072229e-001 
-2.077737e-001 
-2.095513e-001 
-2.114195e-001 
-2.133697e-001 
-2.155662e-001 
-2.189584e-001 
-2.199439e-001 
-2.159676e-001 
-2.128949e-001 
-2.103126e-001 
-2.042419e-001 
-1.977880e-001 
-1.912308e-001 
-1.836774e-001 
-1.773072e-001 
-1.729395e-001 
-1.706531e-001 
-1.698483e-001 
-1.662730e-001 
-1.639198e-001 
-1.665879e-001 
-1.699933e-001 
-1.737603e-001 
-1.816467e-001 
-1.892246e-001 
-1.885174e-001 
-1.672504e-001 
-1.106471e-001 
-7.893589e-002 
-1.234363e-001 
-2.166189e-001 
-3.297320e-001 
-4.184284e-001 
-4.607185e-001 
-4.615608e-001 
-4.073413e-001 
-3.571207e-001 
-4.112916e-001 
-5.063275e-001 
-5.538385e-001 
-5.406854e-001 
-4.673717e-001 
-3.859968e-001 
-3.195986e-001 
-2.781367e-001 
-2.961715e-001 
-3.319311e-001 
-2.949277e-001 
-1.890699e-001 
-5.329184e-002 
7.542909e-002 
1.683509e-001 
2.323813e-001 
2.717892e-001 
2.968034e-001 
3.276715e-001 
3.693697e-001 
4.094127e-001 
4.485683e-001 
4.940772e-001 
5.405387e-001 
5.851430e-001 
6.281402e-001 
6.705913e-001 
7.135792e-001 
7.443085e-001 
7.583030e-001 
7.630114e-001 
7.559209e-001 
7.334169e-001 
7.016305e-001 
6.636708e-001 
6.180328e-001 
5.594283e-001 
4.890502e-001 
4.126495e-001 
3.332999e-001 
2.501257e-001 
1.675974e-001 
9.070306e-002 
1.633733e-002 
-5.755653e-002 
-1.266685e-001 
-1.857333e-001 
-2.341216e-001 
-2.722728e-001 
-3.005182e-001 
-3.164905e-001 
-3.244392e-001 
-3.307080e-001 
-3.345574e-001 
-3.341008e-001 
-3.316779e-001 
-3.303533e-001 
-3.288501e-001 
-3.248248e-001 
-3.202998e-001 
-3.179369e-001 
-3.176189e-001 
-3.167110e-001 
-3.153742e-001 
-3.174433e-001 
-3.204344e-001 
-3.199532e-001 
-3.196909e-001 
-3.211044e-001 
-3.221822e-001 
-3.235826e-001 
-3.254398e-001 
-3.283725e-001 
-3.313962e-001 
-3.306703e-001 
-3.289163e-001 
-3.290133e-001 
-3.284066e-001 
-3.260202e-001 
-3.244084e-001 
-3.234819e-001 
-3.196908e-001 
-3.113190e-001 
-3.022637e-001 
-2.933986e-001 
-2.809394e-001 
-2.666755e-001 
-2.528097e-001 
-2.408783e-001 
-2.326684e-001 
-2.260711e-001 
-2.204970e-001 
-2.174119e-001 
-2.113232e-001 
-2.057098e-001 
-2.054542e-001 
-2.070339e-001 
-2.119685e-001 
-2.204955e-001 
-2.266231e-001 
-2.211162e-001 
-1.889538e-001 
-1.278508e-001 
-1.318548e-001 
-2.277207e-001 
-3.612286e-001 
-4.822475e-001 
-5.521042e-001 
-5.683882e-001 
-5.329817e-001 
-4.561964e-001 
-4.321696e-001 
-5.355053e-001 
-6.330110e-001 
-6.448435e-001 
-5.760426e-001 
-4.708972e-001 
-3.768998e-001 
-3.120277e-001 
-2.942400e-001 
-3.269015e-001 
-3.332129e-001 
-2.378756e-001 
-8.287918e-002 
7.973432e-002 
2.036522e-001 
2.835052e-001 
3.302179e-001 
3.603788e-001 
3.931326e-001 
4.327627e-001 
4.789582e-001 
5.263446e-001 
5.762268e-001 
6.294637e-001 
6.838435e-001 
7.371200e-001 
7.894947e-001 
8.393224e-001 
8.792122e-001 
9.037836e-001 
9.123809e-001 
9.083935e-001 
8.908955e-001 
8.611437e-001 
8.221311e-001 
7.750973e-001 
7.163359e-001 
6.425715e-001 
5.592309e-001 
4.726308e-001 
3.851622e-001 
2.954560e-001 
2.064372e-001 
1.225998e-001 
4.142368e-002 
-3.726484e-002 
-1.076043e-001 
-1.642371e-001 
-2.064617e-001 
-2.376478e-001 
-2.604895e-001 
-2.719964e-001 
-2.764769e-001 
-2.810770e-001 
-2.818517e-001 
-2.792018e-001 
-2.774644e-001 
-2.755002e-001 
-2.738048e-001 
-2.708045e-001 
-2.655631e-001 
-2.631386e-001 
-2.617656e-001 
-2.580202e-001 
-2.564969e-001 
-2.580999e-001 
-2.583940e-001 
-2.582088e-001 
-2.567232e-001 
-2.559176e-001 
-2.568169e-001 
-2.571183e-001 
-2.570604e-001 
-2.586754e-001 
-2.601755e-001 
-2.584784e-001 
-2.564757e-001 
-2.550750e-001 
-2.547461e-001 
-2.538523e-001 
-2.519246e-001 
-2.508346e-001 
-2.502273e-001 
-2.458041e-001 
-2.392201e-001 
-2.340677e-001 
-2.282797e-001 
-2.199348e-001 
-2.086449e-001 
-1.979913e-001 
-1.888431e-001 
-1.752867e-001 
-1.614210e-001 
-1.549861e-001 
-1.512439e-001 
-1.447299e-001 
-1.362687e-001 
-1.310927e-001 
-1.307669e-001 
-1.277112e-001 
-1.217665e-001 
-1.239912e-001 
-1.293719e-001 
-1.226292e-001 
-9.642036e-002 
-5.105517e-002 
-4.893495e-002 
-1.102059e-001 
-1.977757e-001 
-2.884034e-001 
-3.547933e-001 
-3.785194e-001 
-3.596398e-001 
-3.081215e-001 
-2.866002e-001 
-3.527579e-001 
-4.193552e-001 
-4.321522e-001 
-3.973938e-001 
-3.278968e-001 
-2.522916e-001 
-1.955632e-001 
-1.730100e-001 
-1.879606e-001 
-1.895157e-001 
-1.232413e-001 
-1.290267e-002 
1.107744e-001 
2.179194e-001 
2.935027e-001 
3.415816e-001 
3.765654e-001 
4.116622e-001 
4.487200e-001 
4.893893e-001 
5.351483e-001 
5.827831e-001 
6.309689e-001 
6.818967e-001 
7.355073e-001 
7.884301e-001 
8.386324e-001 
8.821589e-001 
9.160590e-001 
9.349975e-001 
9.363537e-001 
9.247391e-001 
9.034949e-001 
8.709869e-001 
8.278542e-001 
7.747754e-001 
7.093055e-001 
6.323007e-001 
5.453295e-001 
4.561206e-001 
3.692592e-001 
2.839607e-001 
1.990822e-001 
1.173012e-001 
3.913132e-002 
-3.447930e-002 
-1.000393e-001 
-1.530144e-001 
-1.891077e-001 
-2.128527e-001 
-2.301023e-001 
-2.403155e-001 
-2.435895e-001 
-2.443375e-001 
-2.450850e-001 
-2.459558e-001 
-2.427972e-001 
-2.375830e-001 
-2.350063e-001 
-2.343552e-001 
-2.319942e-001 
-2.302854e-001 
-2.308978e-001 
-2.332263e-001 
-2.329790e-001 
-2.310403e-001 
-2.318363e-001 
-2.345442e-001 
-2.375172e-001 
-2.388222e-001 
-2.423586e-001 
-2.468270e-001 
-2.487069e-001 
-2.487683e-001 
-2.505384e-001 
-2.520061e-001 
-2.534085e-001 
-2.549609e-001 
-2.574631e-001 
-2.612401e-001 
-2.616377e-001 
-2.601241e-001 
-2.599681e-001 
-2.599190e-001 
-2.589460e-001 
-2.596065e-001 
-2.610842e-001 
-2.612160e-001 
-2.581212e-001 
-2.540325e-001 
-2.518577e-001 
-2.506294e-001 
-2.486914e-001 
-2.449099e-001 
-2.408959e-001 
-2.348691e-001 
-2.242509e-001 
-2.114926e-001 
-2.010365e-001 
-1.902667e-001 
-1.779620e-001 
-1.702960e-001 
-1.672271e-001 
-1.659935e-001 
-1.614266e-001 
-1.551218e-001 
-1.529444e-001 
-1.542120e-001 
-1.522148e-001 
-1.535092e-001 
-1.633960e-001 
-1.676616e-001 
-1.470199e-001 
-8.747310e-002 
-4.734925e-002 
-9.975639e-002 
-2.106825e-001 
-3.391980e-001 
-4.442807e-001 
-4.937864e-001 
-4.876437e-001 
-4.227823e-001 
-3.582491e-001 
-4.064599e-001 
-5.163753e-001 
-5.655507e-001 
-5.475930e-001 
-4.593153e-001 
-3.527357e-001 
-2.689833e-001 
-2.212896e-001 
-2.305609e-001 
-2.589648e-001 
-2.118996e-001 
-8.633620e-002 
7.027253e-002 
2.232528e-001 
3.287573e-001 
3.936587e-001 
4.328037e-001 
4.650518e-001 
4.991071e-001 
5.357704e-001 
5.745714e-001 
6.182244e-001 
6.673854e-001 
7.157849e-001 
7.634477e-001 
8.136422e-001 
8.631569e-001 
9.084152e-001 
9.462135e-001 
9.740055e-001 
9.895393e-001 
9.883227e-001 
9.706383e-001 
9.447505e-001 
9.099692e-001 
8.622890e-001 
8.042226e-001 
7.359654e-001 
6.572263e-001 
5.691678e-001 
4.793442e-001 
3.922448e-001 
3.068827e-001 
2.203478e-001 
1.355317e-001 
5.656558e-002 
-1.603695e-002 
-8.078798e-002 
-1.317866e-001 
-1.668719e-001 
-1.922736e-001 
-2.105211e-001 
-2.218417e-001 
-2.262748e-001 
-2.270114e-001 
-2.273182e-001 
-2.261416e-001 
-2.232903e-001 
-2.208048e-001 
-2.197567e-001 
-2.206408e-001 
-2.186999e-001 
-2.153430e-001 
-2.150304e-001 
-2.147077e-001 
-2.138377e-001 
-2.154466e-001 
-2.180133e-001 
-2.223904e-001 
-2.249727e-001 
-2.239243e-001 
-2.265630e-001 
-2.295812e-001 
-2.301675e-001 
-2.325086e-001 
-2.352739e-001 
-2.368876e-001 
-2.363686e-001 
-2.329336e-001 
-2.322516e-001 
-2.328217e-001 
-2.302615e-001 
-2.287195e-001 
-2.289705e-001 
-2.272812e-001 
-2.233548e-001 
-2.194480e-001 
-2.171768e-001 
-2.158117e-001 
-2.123164e-001 
-2.085039e-001 
-2.076074e-001 
-2.043707e-001 
-1.974395e-001 
-1.899757e-001 
-1.822882e-001 
-1.738035e-001 
-1.632803e-001 
-1.529306e-001 
-1.517858e-001 
-1.527820e-001 
-1.475908e-001 
-1.420231e-001 
-1.380285e-001 
-1.372610e-001 
-1.377682e-001 
-1.360059e-001 
-1.418363e-001 
-1.532320e-001 
-1.486179e-001 
-1.210771e-001 
-5.989806e-002 
-1.595278e-002 
-5.497067e-002 
-1.488572e-001 
-2.691875e-001 
-3.682053e-001 
-4.094404e-001 
-4.011007e-001 
-3.399642e-001 
-2.781586e-001 
-3.233433e-001 
-4.237645e-001 
-4.786427e-001 
-4.723177e-001 
-3.902273e-001 
-2.940704e-001 
-2.213043e-001 
-1.793689e-001 
-1.954593e-001 
-2.312995e-001 
-1.980126e-001 
-9.359626e-002 
5.033406e-002 
1.924167e-001 
2.885489e-001 
3.503616e-001 
3.872567e-001 
4.154922e-001 
4.454113e-001 
4.782149e-001 
5.158763e-001 
5.568210e-001 
5.992526e-001 
6.447801e-001 
6.898839e-001 
7.335921e-001 
7.761368e-001 
8.145657e-001 
8.481060e-001 
8.707799e-001 
8.784907e-001 
8.723705e-001 
8.547356e-001 
8.253024e-001 
7.868836e-001 
7.406734e-001 
6.866504e-001 
6.232701e-001 
5.468388e-001 
4.633605e-001 
3.788571e-001 
2.966003e-001 
2.155075e-001 
1.371819e-001 
6.364277e-002 
-5.236645e-003 
-7.108029e-002 
-1.285608e-001 
-1.712057e-001 
-2.016225e-001 
-2.222962e-001 
-2.357856e-001 
-2.412158e-001 
-2.424496e-001 
-2.443369e-001 
-2.445821e-001 
-2.411437e-001 
-2.382458e-001 
-2.377751e-001 
-2.376968e-001 
-2.348278e-001 
-2.301538e-001 
-2.303397e-001 
-2.323931e-001 
-2.317288e-001 
-2.328494e-001 
-2.377406e-001 
-2.423936e-001 
-2.444074e-001 
-2.439806e-001 
-2.458652e-001 
-2.504135e-001 
-2.520707e-001 
-2.530103e-001 
-2.568894e-001 
-2.602833e-001 
-2.603056e-001 
-2.588968e-001 
-2.592168e-001 
-2.598406e-001 
-2.592804e-001 
-2.577630e-001 
-2.574104e-001 
-2.572726e-001 
-2.552257e-001 
-2.518444e-001 
-2.500665e-001 
-2.477967e-001 
-2.413749e-001 
-2.348618e-001 
-2.273757e-001 
-2.186858e-001 
-2.090747e-001 
-1.976746e-001 
-1.866532e-001 
-1.807291e-001 
-1.751541e-001 
-1.693798e-001 
-1.664430e-001 
-1.633727e-001 
-1.621608e-001 
-1.614482e-001 
-1.596892e-001 
-1.608048e-001 
-1.662587e-001 
-1.679804e-001 
-1.543754e-001 
-1.081349e-001 
-5.890809e-002 
-8.560597e-002 
-1.798279e-001 
-2.998119e-001 
-4.037312e-001 
-4.616806e-001 
-4.699903e-001 
-4.212859e-001 
-3.537381e-001 
-3.726792e-001 
-4.763100e-001 
-5.417317e-001 
-5.384228e-001 
-4.689150e-001 
-3.744546e-001 
-2.917135e-001 
-2.391171e-001 
-2.399390e-001 
-2.736917e-001 
-2.521813e-001 
-1.454732e-001 
-6.286809e-004 
1.454316e-001 
2.542390e-001 
3.244541e-001 
3.661180e-001 
3.966674e-001 
4.299053e-001 
4.688080e-001 
5.102883e-001 
5.531832e-001 
5.990660e-001 
6.491310e-001 
7.021765e-001 
7.558634e-001 
8.095998e-001 
8.618514e-001 
9.062555e-001 
9.383871e-001 
9.543537e-001 
9.547774e-001 
9.449957e-001 
9.237151e-001 
8.904042e-001 
8.475707e-001 
7.940708e-001 
7.267696e-001 
6.461012e-001 
5.580348e-001 
4.696206e-001 
3.818052e-001 
2.944063e-001 
2.078476e-001 
1.227315e-001 
4.121715e-002 
-3.656969e-002 
-1.033876e-001 
-1.544815e-001 
-1.936212e-001 
-2.199463e-001 
-2.345867e-001 
-2.446845e-001 
-2.507252e-001 
-2.525751e-001 
-2.518883e-001 
-2.488223e-001 
-2.467296e-001 
-2.438902e-001 
-2.381209e-001 
-2.355714e-001 
-2.366122e-001 
-2.363715e-001 
-2.345124e-001 
-2.338747e-001 
-2.351952e-001 
-2.360400e-001 
-2.362683e-001 
-2.386059e-001 
-2.433926e-001 
-2.459887e-001 
-2.467845e-001 
-2.477248e-001 
-2.507184e-001 
-2.535233e-001 
-2.542886e-001 
-2.561494e-001 
-2.585133e-001 
-2.583119e-001 
-2.558285e-001 
-2.543074e-001 
-2.538788e-001 
-2.530717e-001 
-2.498865e-001 
-2.458212e-001 
-2.447070e-001 
-2.431392e-001 
-2.386838e-001 
-2.354731e-001 
-2.344950e-001 
-2.306195e-001 
-2.238457e-001 
-2.193085e-001 
-2.173598e-001 
-2.158504e-001 
-2.098143e-001 
-2.029281e-001 
-1.987555e-001 
-1.906610e-001 
-1.759892e-001 
-1.638792e-001 
-1.552185e-001 
-1.432965e-001 
-1.311844e-001 
-1.253928e-001 
-1.253085e-001 
-1.214344e-001 
-1.120912e-001 
-1.065251e-001 
-1.081800e-001 
-1.089630e-001 
-1.081061e-001 
-1.153749e-001 
-1.259915e-001 
-1.167799e-001 
-7.144910e-002 
-1.100178e-002 
-2.727096e-002 
-1.250288e-001 
-2.540899e-001 
-3.719372e-001 
-4.436039e-001 
-4.605152e-001 
-4.173346e-001 
-3.402549e-001 
-3.367837e-001 
-4.439249e-001 
-5.255169e-001 
-5.312503e-001 
-4.623094e-001 
-3.598898e-001 
-2.653883e-001 
-1.978188e-001 
-1.832056e-001 
-2.165106e-001 
-2.065612e-001 
-1.014525e-001 
5.210482e-002 
2.137592e-001 
3.388809e-001 
4.227402e-001 
4.722486e-001 
5.045675e-001 
5.397653e-001 
5.823631e-001 
6.269764e-001 
6.736464e-001 
7.254172e-001 
7.789242e-001 
8.309985e-001 
8.823947e-001 
9.348076e-001 
9.843000e-001 
1.022734e+000 
1.046386e+000 
1.057637e+000 
1.053731e+000 
1.033970e+000 
1.004386e+000 
9.669634e-001 
9.200694e-001 
8.592739e-001 
7.852377e-001 
7.029406e-001 
6.147608e-001 
5.221353e-001 
4.319998e-001 
3.462260e-001 
2.614325e-001 
1.778175e-001 
9.971926e-002 
3.039084e-002 
-2.885937e-002 
-7.576624e-002 
-1.091358e-001 
-1.297517e-001 
-1.417168e-001 
-1.495698e-001 
-1.531777e-001 
-1.519790e-001 
-1.505329e-001 
-1.498220e-001 
-1.477354e-001 
-1.453397e-001 
-1.415863e-001 
-1.381625e-001 
-1.372473e-001 
-1.355104e-001 
-1.340926e-001 
-1.361380e-001 
-1.388193e-001 
-1.402095e-001 
-1.416734e-001 
-1.433313e-001 
-1.459970e-001 
-1.482561e-001 
-1.497311e-001 
-1.533639e-001 
-1.583646e-001 
-1.605009e-001 
-1.609810e-001 
-1.628162e-001 
-1.644406e-001 
-1.645683e-001 
-1.643148e-001 
-1.648832e-001 
-1.661193e-001 
-1.653171e-001 
-1.623441e-001 
-1.618515e-001 
-1.622327e-001 
-1.609104e-001 
-1.582642e-001 
-1.566042e-001 
-1.560246e-001 
-1.538896e-001 
-1.499353e-001 
-1.486319e-001 
-1.483004e-001 
-1.446734e-001 
-1.402988e-001 
-1.352001e-001 
-1.316839e-001 
-1.269590e-001 
-1.162690e-001 
-1.074148e-001 
-1.003995e-001 
-8.694995e-002 
-7.509116e-002 
-7.189705e-002 
-7.033458e-002 
-6.805512e-002 
-6.136203e-002 
-5.667946e-002 
-5.969102e-002 
-5.836174e-002 
-5.524430e-002 
-6.365087e-002 
-7.493511e-002 
-6.840502e-002 
-3.663048e-002 
2.632085e-002 
4.371922e-002 
-2.163424e-002 
-1.323164e-001 
-2.525815e-001 
-3.376712e-001 
-3.682917e-001 
-3.480249e-001 
-2.824971e-001 
-2.434196e-001 
-3.202471e-001 
-4.182966e-001 
-4.546151e-001 
-4.152401e-001 
-3.237633e-001 
-2.347034e-001 
-1.691949e-001 
-1.396650e-001 
-1.631257e-001 
-1.838150e-001 
-1.214021e-001 
4.869760e-003 
1.581578e-001 
2.877337e-001 
3.728822e-001 
4.282692e-001 
4.661161e-001 
4.985970e-001 
5.320914e-001 
5.690630e-001 
6.097160e-001 
6.557212e-001 
7.011523e-001 
7.469067e-001 
7.953103e-001 
8.434876e-001 
8.859424e-001 
9.202077e-001 
9.446982e-001 
9.569821e-001 
9.552913e-001 
9.411752e-001 
9.178386e-001 
8.835109e-001 
8.378162e-001 
7.803427e-001 
7.136390e-001 
6.395169e-001 
5.577160e-001 
4.730058e-001 
3.902748e-001 
3.072430e-001 
2.231544e-001 
1.431010e-001 
6.990645e-002 
3.200607e-003 
-5.611644e-002 
-1.041635e-001 
-1.396257e-001 
-1.648755e-001 
-1.836466e-001 
-1.947825e-001 
-1.978543e-001 
-1.991109e-001 
-2.019667e-001 
-2.025760e-001 
-2.005429e-001 
-2.000223e-001 
-2.005993e-001 
-2.008328e-001 
-1.985219e-001 
-1.979843e-001 
-2.012339e-001 
-2.026250e-001 
-2.019596e-001 
-2.044236e-001 
-2.087645e-001 
-2.121409e-001 
-2.142072e-001 
-2.155126e-001 
-2.195136e-001 
-2.220919e-001 
-2.214954e-001 
-2.240313e-001 
-2.280965e-001 
-2.298231e-001 
-2.307314e-001 
-2.311408e-001 
-2.314041e-001 
-2.309786e-001 
-2.282594e-001 
-2.275332e-001 
-2.291551e-001 
-2.289741e-001 
-2.265413e-001 
-2.233196e-001 
-2.208996e-001 
-2.184977e-001 
-2.140472e-001 
-2.096312e-001 
-2.066359e-001 
-2.014285e-001 
-1.910593e-001 
-1.785915e-001 
-1.684174e-001 
-1.597462e-001 
-1.533732e-001 
-1.497327e-001 
-1.483798e-001 
-1.468040e-001 
-1.415782e-001 
-1.372919e-001 
-1.391610e-001 
-1.408415e-001 
-1.420109e-001 
-1.479672e-001 
-1.512817e-001 
-1.376520e-001 
-9.291039e-002 
-5.196365e-002 
-8.148228e-002 
-1.682534e-001 
-2.773450e-001 
-3.802052e-001 
-4.442537e-001 
-4.586324e-001 
-4.168762e-001 
-3.593042e-001 
-3.788658e-001 
-4.638091e-001 
-5.170597e-001 
-5.176590e-001 
-4.605769e-001 
-3.743438e-001 
-2.924523e-001 
-2.337784e-001 
-2.260342e-001 
-2.456854e-001 
-2.171173e-001 
-1.184473e-001 
1.863264e-002 
1.605201e-001 
2.734017e-001 
3.555507e-001 
4.063751e-001 
4.415543e-001 
4.789346e-001 
5.200672e-001 
5.645410e-001 
6.109684e-001 
6.613989e-001 
7.201532e-001 
7.778722e-001 
8.321856e-001 
8.883679e-001 
9.397537e-001 
9.779769e-001 
9.988122e-001 
1.006663e+000 
1.003263e+000 
9.845850e-001 
9.506633e-001 
9.093979e-001 
8.582159e-001 
7.918050e-001 
7.102773e-001 
6.209763e-001 
5.300122e-001 
4.346773e-001 
3.387274e-001 
2.468460e-001 
1.569259e-001 
6.814372e-002 
-1.536418e-002 
-8.857913e-002 
-1.477429e-001 
-1.946436e-001 
-2.283227e-001 
-2.484116e-001 
-2.615406e-001 
-2.711181e-001 
-2.755345e-001 
-2.766354e-001 
-2.759187e-001 
-2.765347e-001 
-2.771985e-001 
-2.744860e-001 
-2.725836e-001 
-2.734530e-001 
-2.742788e-001 
-2.736877e-001 
-2.731456e-001 
-2.751108e-001 
-2.799280e-001 
-2.817769e-001 
-2.819299e-001 
-2.851711e-001 
-2.892104e-001 
-2.904471e-001 
-2.904318e-001 
-2.930096e-001 
-2.977175e-001 
-2.992327e-001 
-2.975143e-001 
-2.980624e-001 
-2.997859e-001 
-2.984541e-001 
-2.958694e-001 
-2.957638e-001 
-2.961723e-001 
-2.938898e-001 
-2.899447e-001 
-2.873124e-001 
-2.855432e-001 
-2.821083e-001 
-2.785824e-001 
-2.773252e-001 
-2.756593e-001 
-2.718141e-001 
-2.684890e-001 
-2.661682e-001 
-2.626225e-001 
-2.578366e-001 
-2.522659e-001 
-2.473653e-001 
-2.421721e-001 
-2.321102e-001 
-2.200482e-001 
-2.104268e-001 
-1.994444e-001 
-1.864070e-001 
-1.788705e-001 
-1.768681e-001 
-1.759303e-001 
-1.706223e-001 
-1.631147e-001 
-1.633456e-001 
-1.672023e-001 
-1.657446e-001 
-1.671256e-001 
-1.774844e-001 
-1.824706e-001 
-1.622593e-001 
-1.015033e-001 
-6.264175e-002 
-1.185271e-001 
-2.294534e-001 
-3.623318e-001 
-4.825433e-001 
-5.483482e-001 
-5.516856e-001 
-4.888458e-001 
-4.233208e-001 
-4.744019e-001 
-5.860841e-001 
-6.387141e-001 
-6.321477e-001 
-5.548637e-001 
-4.445363e-001 
-3.493977e-001 
-2.941216e-001 
-3.037089e-001 
-3.351086e-001 
-2.884545e-001 
-1.615011e-001 
2.469496e-003 
1.704015e-001 
2.950585e-001 
3.722684e-001 
4.157663e-001 
4.501366e-001 
4.876422e-001 
5.285761e-001 
5.745225e-001 
6.264238e-001 
6.810760e-001 
7.347556e-001 
7.877735e-001 
8.447638e-001 
9.015631e-001 
9.515817e-001 
9.937081e-001 
1.025575e+000 
1.041849e+000 
1.038245e+000 
1.017497e+000 
9.887455e-001 
9.515402e-001 
9.001378e-001 
8.370872e-001 
7.638236e-001 
6.794497e-001 
5.848850e-001 
4.847862e-001 
3.880751e-001 
2.968290e-001 
2.045522e-001 
1.142579e-001 
3.060355e-002 
-4.505690e-002 
-1.110312e-001 
-1.653886e-001 
-2.031986e-001 
-2.260268e-001 
-2.416123e-001 
-2.507485e-001 
-2.530143e-001 
-2.530019e-001 
-2.526926e-001 
-2.522976e-001 
-2.483305e-001 
-2.415255e-001 
-2.381179e-001 
-2.350667e-001 
-2.290738e-001 
-2.254873e-001 
-2.252028e-001 
-2.254795e-001 
-2.233395e-001 
-2.199818e-001 
-2.197512e-001 
-2.210234e-001 
-2.197724e-001 
-2.199932e-001 
-2.230016e-001 
-2.243149e-001 
-2.233416e-001 
-2.222162e-001 
-2.231062e-001 
-2.238342e-001 
-2.244162e-001 
-2.254953e-001 
-2.267266e-001 
-2.262137e-001 
-2.240294e-001 
-2.228275e-001 
-2.238821e-001 
-2.230568e-001 
-2.205677e-001 
-2.204419e-001 
-2.188277e-001 
-2.152545e-001 
-2.105891e-001 
-2.063890e-001 
-2.039237e-001 
-2.008258e-001 
-1.938236e-001 
-1.871978e-001 
-1.809817e-001 
-1.730781e-001 
-1.623219e-001 
-1.497346e-001 
-1.386562e-001 
-1.256603e-001 
-1.096988e-001 
-9.837320e-002 
-9.401639e-002 
-8.956896e-002 
-8.132460e-002 
-7.106362e-002 
-6.738590e-002 
-6.539790e-002 
-5.895819e-002 
-5.763936e-002 
-6.537521e-002 
-6.838190e-002 
-5.037295e-002 
-3.752212e-003 
5.178705e-002 
4.773859e-002 
-1.739158e-002 
-1.142159e-001 
-2.174254e-001 
-2.859090e-001 
-3.054119e-001 
-2.736014e-001 
-2.136766e-001 
-2.105534e-001 
-2.932638e-001 
-3.598367e-001 
-3.762315e-001 
-3.377155e-001 
-2.613374e-001 
-1.861847e-001 
-1.302995e-001 
-1.178798e-001 
-1.477373e-001 
-1.502613e-001 
-7.799801e-002 
3.743796e-002 
1.687456e-001 
2.786486e-001 
3.548245e-001 
4.039528e-001 
4.337692e-001 
4.584940e-001 
4.850393e-001 
5.153360e-001 
5.487432e-001 
5.868632e-001 
6.256120e-001 
6.646296e-001 
7.057733e-001 
7.469714e-001 
7.867198e-001 
8.215661e-001 
8.498698e-001 
8.702368e-001 
8.775264e-001 
8.690090e-001 
8.516220e-001 
8.258713e-001 
7.898617e-001 
7.442797e-001 
6.903214e-001 
6.285027e-001 
5.574538e-001 
4.801409e-001 
4.020966e-001 
3.252593e-001 
2.468993e-001 
1.699261e-001 
9.933119e-002 
3.349957e-002 
-2.845097e-002 
-7.986672e-002 
-1.182540e-001 
-1.470534e-001 
-1.693513e-001 
-1.858522e-001 
-1.924719e-001 
-1.948770e-001 
-1.985105e-001 
-1.994439e-001 
-1.976348e-001 
-1.966872e-001 
-1.976561e-001 
-2.005105e-001 
-2.010522e-001 
-1.999787e-001 
-2.033254e-001 
-2.067579e-001 
-2.089031e-001 
-2.128765e-001 
-2.174891e-001 
-2.227654e-001 
-2.267209e-001 
-2.283039e-001 
-2.313783e-001 
-2.348499e-001 
-2.359270e-001 
-2.371380e-001 
-2.391832e-001 
-2.404853e-001 
-2.404842e-001 
-2.399234e-001 
-2.397932e-001 
-2.392486e-001 
-2.358247e-001 
-2.304514e-001 
-2.263975e-001 
-2.204309e-001 
-2.095779e-001 
-1.990876e-001 
-1.902010e-001 
-1.800924e-001 
-1.718513e-001 
-1.673870e-001 
-1.670503e-001 
-1.651687e-001 
-1.576432e-001 
-1.536490e-001 
-1.569174e-001 
-1.577040e-001 
-1.571207e-001 
-1.639025e-001 
-1.726032e-001 
-1.661610e-001 
-1.278056e-001 
-6.773582e-002 
-6.725380e-002 
-1.403345e-001 
-2.478213e-001 
-3.657114e-001 
-4.504657e-001 
-4.824984e-001 
-4.562590e-001 
-3.868807e-001 
-3.668331e-001 
-4.519874e-001 
-5.310622e-001 
-5.556014e-001 
-5.193418e-001 
-4.322681e-001 
-3.412788e-001 
-2.702034e-001 
-2.472682e-001 
-2.760009e-001 
-2.809515e-001 
-2.033055e-001 
-7.623719e-002 
7.435418e-002 
2.053656e-001 
2.981705e-001 
3.558580e-001 
3.910917e-001 
4.281103e-001 
4.687534e-001 
5.080855e-001 
5.504101e-001 
5.993884e-001 
6.506528e-001 
7.026262e-001 
7.533851e-001 
8.045410e-001 
8.532685e-001 
8.890250e-001 
9.096260e-001 
9.209234e-001 
9.189807e-001 
9.016974e-001 
8.738367e-001 
8.374547e-001 
7.921000e-001 
7.335054e-001 
6.607898e-001 
5.819545e-001 
4.989722e-001 
4.108610e-001 
3.231791e-001 
2.390157e-001 
1.573166e-001 
7.547491e-002 
-3.394036e-003 
-7.148549e-002 
-1.277933e-001 
-1.742354e-001 
-2.077955e-001 
-2.293094e-001 
-2.429478e-001 
-2.527081e-001 
-2.595998e-001 
-2.613813e-001 
-2.607470e-001 
-2.614511e-001 
-2.615222e-001 
-2.592133e-001 
-2.570830e-001 
-2.563174e-001 
-2.562601e-001 
-2.541324e-001 
-2.528768e-001 
-2.551401e-001 
-2.576517e-001 
-2.581646e-001 
-2.586324e-001 
-2.614795e-001 
-2.651695e-001 
-2.662742e-001 
-2.659064e-001 
-2.692998e-001 
-2.720597e-001 
-2.709787e-001 
-2.697369e-001 
-2.708801e-001 
-2.732317e-001 
-2.722739e-001 
-2.692969e-001 
-2.690936e-001 
-2.695558e-001 
-2.666910e-001 
-2.630536e-001 
-2.616936e-001 
-2.609401e-001 
-2.553127e-001 
-2.454780e-001 
-2.389558e-001 
-2.301645e-001 
-2.173131e-001 
-2.049884e-001 
-1.933388e-001 
-1.841061e-001 
-1.774322e-001 
-1.691760e-001 
-1.635897e-001 
-1.577681e-001 
-1.474750e-001 
-1.432600e-001 
-1.428553e-001 
-1.421890e-001 
-1.451060e-001 
-1.486480e-001 
-1.423943e-001 
-1.110011e-001 
-5.426195e-002 
-5.228839e-002 
-1.285903e-001 
-2.365684e-001 
-3.434292e-001 
-4.164031e-001 
-4.437823e-001 
-4.207177e-001 
-3.549147e-001 
-3.349503e-001 
-4.190005e-001 
-4.985141e-001 
-5.145258e-001 
-4.711756e-001 
-3.880095e-001 
-3.019976e-001 
-2.348080e-001 
-2.100564e-001 
-2.337104e-001 
-2.356046e-001 
-1.551537e-001 
-2.389335e-002 
1.201685e-001 
2.426767e-001 
3.305115e-001 
3.858327e-001 
4.213594e-001 
4.560953e-001 
4.989844e-001 
5.470263e-001 
5.952853e-001 
6.457200e-001 
7.002076e-001 
7.558319e-001 
8.090162e-001 
8.618293e-001 
9.141657e-001 
9.576479e-001 
9.846860e-001 
9.970780e-001 
9.951380e-001 
9.779271e-001 
9.468169e-001 
9.058860e-001 
8.583206e-001 
7.983028e-001 
7.223174e-001 
6.370460e-001 
5.461727e-001 
4.504562e-001 
3.534452e-001 
2.591415e-001 
1.695491e-001 
8.331174e-002 
-1.447965e-003 
-7.829609e-002 
-1.420437e-001 
-1.934797e-001 
-2.327251e-001 
-2.601076e-001 
-2.763516e-001 
-2.857375e-001 
-2.917710e-001 
-2.948803e-001 
-2.940947e-001 
-2.930901e-001 
-2.934343e-001 
-2.936497e-001 
-2.915068e-001 
-2.889696e-001 
-2.888289e-001 
-2.882765e-001 
-2.862207e-001 
-2.855348e-001 
-2.880924e-001 
-2.911382e-001 
-2.916169e-001 
-2.909567e-001 
-2.930235e-001 
-2.952085e-001 
-2.956445e-001 
-2.958700e-001 
-2.973376e-001 
-3.002696e-001 
-3.001333e-001 
-2.984171e-001 
-2.990749e-001 
-2.995644e-001 
-2.996932e-001 
-2.992488e-001 
-2.979485e-001 
-2.986276e-001 
-2.977801e-001 
-2.944841e-001 
-2.937494e-001 
-2.920378e-001 
-2.888178e-001 
-2.867276e-001 
-2.842460e-001 
-2.822614e-001 
-2.789126e-001 
-2.732913e-001 
-2.707281e-001 
-2.668966e-001 
-2.580348e-001 
-2.510239e-001 
-2.433798e-001 
-2.321232e-001 
-2.199017e-001 
-2.054539e-001 
-1.947255e-001 
-1.917756e-001 
-1.862946e-001 
-1.800082e-001 
-1.781076e-001 
-1.748404e-001 
-1.723327e-001 
-1.726916e-001 
-1.724421e-001 
-1.787279e-001 
-1.873664e-001 
-1.797138e-001 
-1.435164e-001 
-9.110409e-002 
-1.010647e-001 
-1.886863e-001 
-3.072561e-001 
-4.242560e-001 
-5.069489e-001 
-5.386651e-001 
-5.119414e-001 
-4.441136e-001 
-4.351354e-001 
-5.305948e-001 
-6.066975e-001 
-6.152392e-001 
-5.672980e-001 
-4.779815e-001 
-3.865864e-001 
-3.170906e-001 
-2.931501e-001 
-3.190639e-001 
-3.137209e-001 
-2.184460e-001 
-7.646116e-002 
7.636414e-002 
2.043870e-001 
2.925687e-001 
3.497540e-001 
3.863047e-001 
4.174764e-001 
4.539306e-001 
4.959705e-001 
5.394223e-001 
5.834926e-001 
6.294148e-001 
6.804603e-001 
7.337846e-001 
7.828962e-001 
8.294563e-001 
8.737574e-001 
9.080807e-001 
9.266014e-001 
9.303434e-001 
9.240565e-001 
9.086507e-001 
8.797368e-001 
8.390289e-001 
7.910271e-001 
7.330569e-001 
6.610757e-001 
5.799665e-001 
4.973281e-001 
4.150892e-001 
3.312282e-001 
2.475719e-001 
1.679854e-001 
9.209918e-002 
1.798841e-002 
-4.843779e-002 
-1.013033e-001 
-1.421849e-001 
-1.737884e-001 
-1.961747e-001 
-2.090450e-001 
-2.164702e-001 
-2.234572e-001 
-2.284311e-001 
-2.278507e-001 
-2.271585e-001 
-2.282576e-001 
-2.280877e-001 
-2.278067e-001 
-2.280448e-001 
-2.314747e-001 
-2.359847e-001 
-2.371023e-001 
-2.383601e-001 
-2.428677e-001 
-2.453089e-001 
-2.479740e-001 
-2.533280e-001 
-2.595905e-001 
-2.658923e-001 
-2.689290e-001 
-2.710128e-001 
-2.748857e-001 
-2.777084e-001 
-2.795644e-001 
-2.836332e-001 
-2.884462e-001 
-2.908893e-001 
-2.892518e-001 
-2.873284e-001 
-2.880586e-001 
-2.885619e-001 
-2.872084e-001 
-2.868751e-001 
-2.886505e-001 
-2.902163e-001 
-2.864329e-001 
-2.824041e-001 
-2.815693e-001 
-2.802094e-001 
-2.763388e-001 
-2.716499e-001 
-2.685919e-001 
-2.652247e-001 
-2.560583e-001 
-2.430714e-001 
-2.331957e-001 
-2.219237e-001 
-2.101998e-001 
-2.050423e-001 
-2.052860e-001 
-2.044813e-001 
-1.996351e-001 
-1.930661e-001 
-1.918924e-001 
-1.924129e-001 
-1.904364e-001 
-1.955109e-001 
-2.075698e-001 
-2.089199e-001 
-1.825858e-001 
-1.202044e-001 
-8.907817e-002 
-1.469773e-001 
-2.524468e-001 
-3.777987e-001 
-4.809143e-001 
-5.281052e-001 
-5.181210e-001 
-4.500468e-001 
-3.943546e-001 
-4.547257e-001 
-5.544959e-001 
-5.948030e-001 
-5.769140e-001 
-4.916167e-001 
-3.886813e-001 
-3.045079e-001 
-2.581763e-001 
-2.723614e-001 
-2.958981e-001 
-2.395268e-001 
-1.144702e-001 
4.055146e-002 
1.915130e-001 
2.990934e-001 
3.678276e-001 
4.086278e-001 
4.430237e-001 
4.801747e-001 
5.202758e-001 
5.631552e-001 
6.108379e-001 
6.634365e-001 
7.150779e-001 
7.657522e-001 
8.186427e-001 
8.710829e-001 
9.161684e-001 
9.510392e-001 
9.746542e-001 
9.859399e-001 
9.793367e-001 
9.581228e-001 
9.294808e-001 
8.921477e-001 
8.421199e-001 
7.783723e-001 
7.054403e-001 
6.247077e-001 
5.363419e-001 
4.454917e-001 
3.598416e-001 
2.768096e-001 
1.929016e-001 
1.092893e-001 
3.350377e-002 
-3.172918e-002 
-8.842759e-002 
-1.323743e-001 
-1.613551e-001 
-1.797499e-001 
-1.933681e-001 
-2.026318e-001 
-2.054444e-001 
-2.025919e-001 
-2.009258e-001 
-1.997405e-001 
-1.962748e-001 
-1.932288e-001 
-1.927027e-001 
-1.927964e-001 
-1.902032e-001 
-1.872891e-001 
-1.866210e-001 
-1.866506e-001 
-1.850279e-001 
-1.846498e-001 
-1.855666e-001 
-1.856772e-001 
-1.832765e-001 
-1.813156e-001 
-1.809004e-001 
-1.789987e-001 
-1.749885e-001 
-1.721191e-001 
-1.722732e-001 
-1.715537e-001 
-1.691585e-001 
-1.658606e-001 
-1.638461e-001 
-1.605978e-001 
-1.558724e-001 
-1.524503e-001 
-1.521342e-001 
-1.523631e-001 
-1.504243e-001 
-1.467368e-001 
-1.435104e-001 
-1.416875e-001 
-1.380997e-001 
-1.352587e-001 
-1.346830e-001 
-1.334875e-001 
-1.281073e-001 
-1.209936e-001 
-1.122535e-001 
-1.023368e-001 
-9.211968e-002 
-8.098796e-002 
-7.290063e-002 
-7.054759e-002 
-6.764084e-002 
-6.334383e-002 
-6.060607e-002 
-5.604768e-002 
-5.452145e-002 
-5.678490e-002 
-5.961021e-002 
-6.687465e-002 
-7.628063e-002 
-7.699468e-002 
-6.211475e-002 
-1.623500e-002 
2.767820e-002 
-2.846128e-003 
-9.521923e-002 
-2.138172e-001 
-3.206531e-001 
-3.811102e-001 
-3.911439e-001 
-3.474754e-001 
-2.874787e-001 
-3.100125e-001 
-4.060870e-001 
-4.682624e-001 
-4.705243e-001 
-4.082265e-001 
-3.170633e-001 
-2.348046e-001 
-1.802536e-001 
-1.775876e-001 
-2.056707e-001 
-1.834751e-001 
-8.283019e-002 
6.013897e-002 
2.073233e-001 
3.204651e-001 
3.990872e-001 
4.480917e-001 
4.819610e-001 
5.145193e-001 
5.532026e-001 
6.004623e-001 
6.483918e-001 
6.961453e-001 
7.479707e-001 
8.014665e-001 
8.526681e-001 
9.011903e-001 
9.478702e-001 
9.903920e-001 
1.018513e+000 
1.028173e+000 
1.023130e+000 
1.006245e+000 
9.770431e-001 
9.367285e-001 
8.892017e-001 
8.338673e-001 
7.631754e-001 
6.801791e-001 
5.919374e-001 
5.015222e-001 
4.124829e-001 
3.240303e-001 
2.397953e-001 
1.611606e-001 
8.323550e-002 
1.022600e-002 
-4.834523e-002 
-9.515497e-002 
-1.305578e-001 
-1.545486e-001 
-1.683572e-001 
-1.742281e-001 
-1.783753e-001 
-1.816538e-001 
-1.805245e-001 
-1.785855e-001 
-1.794387e-001 
-1.796461e-001 
-1.766873e-001 
-1.732809e-001 
-1.741337e-001 
-1.767933e-001 
-1.764888e-001 
-1.770743e-001 
-1.807327e-001 
-1.838596e-001 
-1.844983e-001 
-1.841405e-001 
-1.869374e-001 
-1.905911e-001 
-1.900210e-001 
-1.887431e-001 
-1.911513e-001 
-1.926651e-001 
-1.916092e-001 
-1.902131e-001 
-1.903666e-001 
-1.901678e-001 
-1.874241e-001 
-1.843939e-001 
-1.839532e-001 
-1.837513e-001 
-1.807557e-001 
-1.777691e-001 
-1.769789e-001 
-1.761291e-001 
-1.735394e-001 
-1.709627e-001 
-1.695136e-001 
-1.670907e-001 
-1.615175e-001 
-1.530867e-001 
-1.458798e-001 
-1.387162e-001 
-1.289146e-001 
-1.214221e-001 
-1.205557e-001 
-1.221184e-001 
-1.200316e-001 
-1.159911e-001 
-1.149202e-001 
-1.177008e-001 
-1.184436e-001 
-1.205337e-001 
-1.295170e-001 
-1.401725e-001 
-1.316560e-001 
-9.047743e-002 
-3.268091e-002 
-3.679152e-002 
-1.118482e-001 
-2.252369e-001 
-3.435737e-001 
-4.218532e-001 
-4.520109e-001 
-4.267091e-001 
-3.622679e-001 
-3.525241e-001 
-4.419625e-001 
-5.196789e-001 
-5.451708e-001 
-5.007197e-001 
-4.119098e-001 
-3.315376e-001 
-2.694817e-001 
-2.471246e-001 
-2.750096e-001 
-2.776876e-001 
-2.004118e-001 
-7.446437e-002 
7.625010e-002 
1.995048e-001 
2.822027e-001 
3.404695e-001 
3.800864e-001 
4.107028e-001 
4.424923e-001 
4.760867e-001 
5.162114e-001 
5.628057e-001 
6.063507e-001 
6.514081e-001 
7.019368e-001 
7.492841e-001 
7.896059e-001 
8.245681e-001 
8.532927e-001 
8.735548e-001 
8.758588e-001 
8.624692e-001 
8.426754e-001 
8.127619e-001 
7.685150e-001 
7.135752e-001 
6.529878e-001 
5.852621e-001 
5.065336e-001 
4.212156e-001 
3.391626e-001 
2.590541e-001 
1.773197e-001 
9.798352e-002 
2.550796e-002 
-3.972451e-002 
-9.950504e-002 
-1.490193e-001 
-1.843085e-001 
-2.091342e-001 
-2.275454e-001 
-2.389728e-001 
-2.429911e-001 
-2.436380e-001 
-2.448366e-001 
-2.437543e-001 
-2.395960e-001 
-2.377545e-001 
-2.383409e-001 
-2.381550e-001 
-2.356636e-001 
-2.345253e-001 
-2.363908e-001 
-2.380288e-001 
-2.368435e-001 
-2.385050e-001 
-2.432049e-001 
-2.482689e-001 
-2.503269e-001 
-2.510238e-001 
-2.550205e-001 
-2.580661e-001 
-2.580638e-001 
-2.586017e-001 
-2.621378e-001 
-2.651240e-001 
-2.653548e-001 
-2.622143e-001 
-2.616252e-001 
-2.624026e-001 
-2.594065e-001 
-2.565533e-001 
-2.568307e-001 
-2.572358e-001 
-2.533705e-001 
-2.477595e-001 
-2.443572e-001 
-2.426235e-001 
-2.376658e-001 
-2.304355e-001 
-2.259057e-001 
-2.201571e-001 
-2.087843e-001 
-1.966612e-001 
-1.865650e-001 
-1.763049e-001 
-1.695159e-001 
-1.654336e-001 
-1.637492e-001 
-1.633609e-001 
-1.593685e-001 
-1.574628e-001 
-1.605448e-001 
-1.615615e-001 
-1.650469e-001 
-1.753331e-001 
-1.798610e-001 
-1.618955e-001 
-1.019431e-001 
-6.881013e-002 
-1.320347e-001 
-2.471456e-001 
-3.783761e-001 
-4.841548e-001 
-5.323239e-001 
-5.236539e-001 
-4.538091e-001 
-3.925809e-001 
-4.575837e-001 
-5.666033e-001 
-6.077717e-001 
-5.875607e-001 
-4.989847e-001 
-3.904699e-001 
-3.052715e-001 
-2.624570e-001 
-2.821122e-001 
-3.104543e-001 
-2.495756e-001 
-1.173298e-001 
4.080226e-002 
1.939859e-001 
3.013998e-001 
3.647108e-001 
3.998051e-001 
4.332391e-001 
4.746049e-001 
5.178078e-001 
5.611520e-001 
6.095777e-001 
6.638747e-001 
7.187937e-001 
7.718563e-001 
8.256067e-001 
8.792073e-001 
9.238000e-001 
9.534418e-001 
9.699240e-001 
9.738394e-001 
9.638912e-001 
9.391764e-001 
9.049439e-001 
8.628670e-001 
8.093567e-001 
7.404677e-001 
6.600309e-001 
5.741851e-001 
4.859309e-001 
3.942436e-001 
3.037430e-001 
2.176142e-001 
1.324655e-001 
4.911368e-002 
-2.802376e-002 
-9.309711e-002 
-1.446015e-001 
-1.855301e-001 
-2.145358e-001 
-2.305554e-001 
-2.412594e-001 
-2.488094e-001 
-2.521522e-001 
-2.506177e-001 
-2.470856e-001 
-2.450772e-001 
-2.428781e-001 
-2.378379e-001 
-2.336753e-001 
-2.328185e-001 
-2.328346e-001 
-2.299452e-001 
-2.253652e-001 
-2.251661e-001 
-2.265937e-001 
-2.260219e-001 
-2.267559e-001 
-2.304188e-001 
-2.340639e-001 
-2.351383e-001 
-2.337547e-001 
-2.359520e-001 
-2.397595e-001 
-2.392849e-001 
-2.396611e-001 
-2.433155e-001 
-2.451059e-001 
-2.432254e-001 
-2.410393e-001 
-2.417728e-001 
-2.429599e-001 
-2.389564e-001 
-2.349507e-001 
-2.355897e-001 
-2.362032e-001 
-2.322585e-001 
-2.273174e-001 
-2.258894e-001 
-2.249822e-001 
-2.197388e-001 
-2.115598e-001 
-2.071304e-001 
-2.024978e-001 
-1.916284e-001 
-1.772465e-001 
-1.660184e-001 
-1.564546e-001 
-1.496505e-001 
-1.456670e-001 
-1.438157e-001 
-1.421950e-001 
-1.367104e-001 
-1.323180e-001 
-1.330741e-001 
-1.338563e-001 
-1.352262e-001 
-1.444723e-001 
-1.490657e-001 
-1.300589e-001 
-6.802790e-002 
-3.023938e-002 
-9.055582e-002 
-2.065907e-001 
-3.362323e-001 
-4.411029e-001 
-4.960573e-001 
-4.964814e-001 
-4.292479e-001 
-3.618214e-001 
-4.212156e-001 
-5.336276e-001 
-5.768248e-001 
-5.534094e-001 
-4.660865e-001 
-3.644464e-001 
-2.762080e-001 
-2.189586e-001 
-2.298649e-001 
-2.591267e-001 
-2.007549e-001 
-6.669861e-002 
9.372396e-002 
2.486953e-001 
3.609187e-001 
4.347711e-001 
4.754787e-001 
5.060140e-001 
5.429839e-001 
5.826391e-001 
6.217927e-001 
6.648864e-001 
7.158924e-001 
7.675979e-001 
8.149956e-001 
8.626588e-001 
9.137863e-001 
9.607849e-001 
9.974613e-001 
1.021534e+000 
1.032665e+000 
1.031749e+000 
1.013591e+000 
9.814236e-001 
9.436176e-001 
8.982745e-001 
8.376494e-001 
7.634295e-001 
6.818895e-001 
5.949139e-001 
5.055760e-001 
4.155024e-001 
3.280274e-001 
2.441908e-001 
1.603111e-001 
7.751641e-002 
5.660999e-003 
-5.383474e-002 
-1.037363e-001 
-1.386020e-001 
-1.601677e-001 
-1.752991e-001 
-1.850858e-001 
-1.908322e-001 
-1.915682e-001 
-1.882806e-001 
-1.860166e-001 
-1.826284e-001 
-1.778360e-001 
-1.758583e-001 
-1.755312e-001 
-1.757737e-001 
-1.754831e-001 
-1.723800e-001 
-1.713189e-001 
-1.709364e-001 
-1.719084e-001 
-1.742981e-001 
-1.768692e-001 
-1.804136e-001 
-1.836687e-001 
-1.825389e-001 
-1.822220e-001 
-1.844011e-001 
-1.861894e-001 
-1.878817e-001 
-1.876264e-001 
-1.876287e-001 
-1.850254e-001 
-1.786075e-001 
-1.710647e-001 
-1.647264e-001 
-1.560948e-001 
-1.458893e-001 
-1.385803e-001 
-1.371447e-001 
-1.348798e-001 
-1.291766e-001 
-1.259765e-001 
-1.236818e-001 
-1.218336e-001 
-1.198578e-001 
-1.201503e-001 
-1.268084e-001 
-1.320894e-001 
-1.171021e-001 
-7.614083e-002 
-1.957599e-002 
-3.836909e-003 
-5.222211e-002 
-1.432525e-001 
-2.425153e-001 
-3.082687e-001 
-3.301766e-001 
-3.036760e-001 
-2.440071e-001 
-2.249564e-001 
-2.896721e-001 
-3.619078e-001 
-3.948985e-001 
-3.620654e-001 
-2.856134e-001 
-2.174466e-001 
-1.662723e-001 
-1.497383e-001 
-1.790433e-001 
-1.954988e-001 
-1.463160e-001 
-4.533363e-002 
8.345294e-002 
1.881043e-001 
2.594503e-001 
3.115018e-001 
3.460464e-001 
3.695851e-001 
3.947397e-001 
4.276161e-001 
4.655160e-001 
5.027037e-001 
5.398460e-001 
5.835436e-001 
6.261308e-001 
6.633508e-001 
6.976547e-001 
7.325412e-001 
7.595325e-001 
7.712510e-001 
7.688189e-001 
7.588867e-001 
7.403673e-001 
7.084127e-001 
6.693875e-001 
6.268391e-001 
5.752092e-001 
5.109728e-001 
4.399993e-001 
3.686022e-001 
2.994240e-001 
2.293588e-001 
1.602472e-001 
9.675538e-002 
3.768856e-002 
-1.966347e-002 
-6.906989e-002 
-1.067025e-001 
-1.340499e-001 
-1.539743e-001 
-1.672130e-001 
-1.726818e-001 
-1.722045e-001 
-1.705455e-001 
-1.695156e-001 
-1.648860e-001 
-1.607381e-001 
-1.604299e-001 
-1.607409e-001 
-1.582369e-001 
-1.543975e-001 
-1.521254e-001 
-1.510962e-001 
-1.502822e-001 
-1.496302e-001 
-1.519499e-001 
-1.546441e-001 
-1.531916e-001 
-1.491854e-001 
-1.457177e-001 
-1.402108e-001 
-1.337808e-001 
-1.298283e-001 
-1.256166e-001 
-1.228723e-001 
-1.212620e-001 
-1.187244e-001 
-1.158961e-001 
-1.131033e-001 
-1.131150e-001 
-1.174494e-001 
-1.211099e-001 
-1.259875e-001 
-1.336685e-001 
-1.374008e-001 
-1.276652e-001 
-9.338941e-002 
-3.770740e-002 
-1.730370e-002 
-5.678865e-002 
-1.444403e-001 
-2.415700e-001 
-3.019347e-001 
-3.261388e-001 
-3.118816e-001 
-2.572969e-001 
-2.309429e-001 
-2.874643e-001 
-3.641261e-001 
-4.044766e-001 
-3.718901e-001 
-2.997736e-001 
-2.396924e-001 
-1.910317e-001 
-1.695240e-001 
-1.973215e-001 
-2.213761e-001 
-1.832487e-001 
-8.783164e-002 
3.341261e-002 
1.331927e-001 
2.054316e-001 
2.586772e-001 
2.927471e-001 
3.167403e-001 
3.432893e-001 
3.759861e-001 
4.100326e-001 
4.450582e-001 
4.848549e-001 
5.238069e-001 
5.592923e-001 
5.930543e-001 
6.249747e-001 
6.521585e-001 
6.675128e-001 
6.702486e-001 
6.664018e-001 
6.525134e-001 
6.264595e-001 
5.946179e-001 
5.592352e-001 
5.151584e-001 
4.587735e-001 
3.956601e-001 
3.330025e-001 
2.688978e-001 
2.011868e-001 
1.368566e-001 
7.771509e-002 
2.029639e-002 
-3.705916e-002 
-8.733202e-002 
-1.242427e-001 
-1.526687e-001 
-1.773989e-001 
-1.921301e-001 
-1.979532e-001 
-2.034105e-001 
-2.080342e-001 
-2.105588e-001 
-2.094089e-001 
-2.069210e-001 
-2.087223e-001 
-2.104094e-001 
-2.061704e-001 
-2.050795e-001 
-2.085364e-001 
-2.101694e-001 
-2.104519e-001 
-2.108778e-001 
-2.129467e-001 
-2.166787e-001 
-2.151790e-001 
-2.125341e-001 
-2.140817e-001 
-2.114914e-001 
-2.047614e-001 
-1.988795e-001 
-1.931842e-001 
-1.886964e-001 
-1.861284e-001 
-1.830420e-001 
-1.838557e-001 
-1.814456e-001 
-1.763752e-001 
-1.786478e-001 
-1.835821e-001 
-1.867828e-001 
-1.920818e-001 
-1.991675e-001 
-2.015108e-001 
-1.840762e-001 
-1.260983e-001 
-7.838088e-002 
-1.052842e-001 
-1.901397e-001 
-3.072445e-001 
-4.042172e-001 
-4.499954e-001 
-4.488256e-001 
-3.897674e-001 
-3.241068e-001 
-3.557816e-001 
-4.523590e-001 
-5.196672e-001 
-5.261596e-001 
-4.509135e-001 
-3.563860e-001 
-2.815376e-001 
-2.383537e-001 
-2.550599e-001 
-2.980968e-001 
-2.801757e-001 
-1.884710e-001 
-5.163227e-002 
9.220823e-002 
1.937476e-001 
2.577066e-001 
2.952554e-001 
3.241742e-001 
3.598535e-001 
4.043192e-001 
4.486186e-001 
4.962717e-001 
5.510143e-001 
6.037600e-001 
6.521995e-001 
6.994390e-001 
7.450642e-001 
7.877299e-001 
8.147995e-001 
8.218034e-001 
8.178131e-001 
8.013819e-001 
7.700569e-001 
7.301047e-001 
6.846702e-001 
6.317348e-001 
5.646916e-001 
4.829919e-001 
3.976325e-001 
3.130425e-001 
2.274728e-001 
1.429545e-001 
6.405864e-002 
-1.117218e-002 
-8.481118e-002 
-1.534154e-001 
-2.088083e-001 
-2.494923e-001 
-2.794046e-001 
-2.997367e-001 
-3.100502e-001 
-3.133879e-001 
-3.154081e-001 
-3.163053e-001 
-3.146075e-001 
-3.110008e-001 
-3.097222e-001 
-3.100245e-001 
-3.074609e-001 
-3.033905e-001 
-3.019534e-001 
-3.018565e-001 
-3.006900e-001 
-2.996675e-001 
-3.015474e-001 
-3.055643e-001 
-3.069457e-001 
-3.072346e-001 
-3.107831e-001 
-3.140710e-001 
-3.143181e-001 
-3.146560e-001 
-3.174933e-001 
-3.210154e-001 
-3.188331e-001 
-3.138487e-001 
-3.100200e-001 
-3.027646e-001 
-2.929915e-001 
-2.846665e-001 
-2.781912e-001 
-2.772049e-001 
-2.771308e-001 
-2.734933e-001 
-2.708331e-001 
-2.679402e-001 
-2.668918e-001 
-2.710119e-001 
-2.742901e-001 
-2.804042e-001 
-2.916820e-001 
-2.975625e-001 
-2.846348e-001 
-2.352343e-001 
-1.817370e-001 
-2.096132e-001 
-3.099723e-001 
-4.397787e-001 
-5.532659e-001 
-6.089977e-001 
-6.076444e-001 
-5.474853e-001 
-4.690010e-001 
-4.844187e-001 
-5.948211e-001 
-6.704738e-001 
-6.706373e-001 
-5.893414e-001 
-4.770683e-001 
-3.836037e-001 
-3.295329e-001 
-3.341717e-001 
-3.733108e-001 
-3.579356e-001 
-2.502161e-001 
-9.332618e-002 
6.360649e-002 
1.749655e-001 
2.436755e-001 
2.808430e-001 
3.098609e-001 
3.444944e-001 
3.863114e-001 
4.341973e-001 
4.833267e-001 
5.349959e-001 
5.911938e-001 
6.466203e-001 
6.973275e-001 
7.449275e-001 
7.864293e-001 
8.132985e-001 
8.219808e-001 
8.175389e-001 
8.015093e-001 
7.735436e-001 
7.346744e-001 
6.849341e-001 
6.260785e-001 
5.535042e-001 
4.665693e-001 
3.756481e-001 
2.860102e-001 
1.952255e-001 
1.048203e-001 
1.575793e-002 
-6.914919e-002 
-1.478880e-001 
-2.214570e-001 
-2.823388e-001 
-3.261309e-001 
-3.577822e-001 
-3.817884e-001 
-3.976787e-001 
-4.048699e-001 
-4.062618e-001 
-4.089359e-001 
-4.107141e-001 
-4.085355e-001 
-4.073258e-001 
-4.084827e-001 
-4.097724e-001 
-4.083849e-001 
-4.060863e-001 
-4.079066e-001 
-4.116447e-001 
-4.117494e-001 
-4.135721e-001 
-4.189984e-001 
-4.236127e-001 
-4.257662e-001 
-4.268361e-001 
-4.294432e-001 
-4.317837e-001 
-4.316566e-001 
-4.322405e-001 
-4.351625e-001 
-4.360566e-001 
-4.334322e-001 
-4.292234e-001 
-4.258048e-001 
-4.213711e-001 
-4.151767e-001 
-4.101051e-001 
-4.055503e-001 
-3.997730e-001 
-3.918356e-001 
-3.827790e-001 
-3.749394e-001 
-3.671450e-001 
-3.582017e-001 
-3.505032e-001 
-3.434218e-001 
-3.357464e-001 
-3.277450e-001 
-3.190623e-001 
-3.127838e-001 
-3.080186e-001 
-3.011348e-001 
-2.951962e-001 
-2.908557e-001 
-2.869762e-001 
-2.830258e-001 
-2.790552e-001 
-2.774232e-001 
-2.769237e-001 
-2.727098e-001 
-2.682738e-001 
-2.666262e-001 
-2.657148e-001 
-2.643633e-001 
-2.616799e-001 
-2.610035e-001 
-2.593421e-001 
-2.530622e-001 
-2.461539e-001 
-2.425960e-001 
-2.398475e-001 
-2.356810e-001 
-2.293604e-001 
-2.230483e-001 
-2.156436e-001 
-2.038546e-001 
-1.898110e-001 
-1.778555e-001 
-1.665107e-001 
-1.545229e-001 
-1.469381e-001 
-1.440956e-001 
-1.398915e-001 
-1.318187e-001 
-1.238535e-001 
-1.197787e-001 
-1.194482e-001 
-1.175517e-001 
-1.194020e-001 
-1.272577e-001 
-1.266208e-001 
-1.008854e-001 
-4.373667e-002 
-1.543520e-002 
-7.076700e-002 
-1.706610e-001 
-2.881709e-001 
-3.919778e-001 
-4.424065e-001 
-4.323828e-001 
-3.683759e-001 
-3.162125e-001 
-3.712540e-001 
-4.628441e-001 
-4.971053e-001 
-4.843451e-001 
-4.097857e-001 
-3.038581e-001 
-2.145734e-001 
-1.694090e-001 
-1.821874e-001 
-2.012683e-001 
-1.432684e-001 
-2.299804e-002 
1.246314e-001 
2.745778e-001 
3.843009e-001 
4.494393e-001 
4.834731e-001 
5.134464e-001 
5.517380e-001 
5.915372e-001 
6.325520e-001 
6.790744e-001 
7.291697e-001 
7.801884e-001 
8.306454e-001 
8.835583e-001 
9.397045e-001 
9.898540e-001 
1.029159e+000 
1.058027e+000 
1.070618e+000 
1.066053e+000 
1.046015e+000 
1.015696e+000 
9.783046e-001 
9.285979e-001 
8.658916e-001 
7.923778e-001 
7.069487e-001 
6.113270e-001 
5.141025e-001 
4.205453e-001 
3.311947e-001 
2.416925e-001 
1.542676e-001 
7.238327e-002 
-3.746224e-003 
-6.987951e-002 
-1.228668e-001 
-1.579425e-001 
-1.783386e-001 
-1.928077e-001 
-2.018649e-001 
-2.033818e-001 
-2.039915e-001 
-2.045953e-001 
-2.037295e-001 
-2.006672e-001 
-1.951201e-001 
-1.919485e-001 
-1.907832e-001 
-1.873313e-001 
-1.846856e-001 
-1.864745e-001 
-1.890150e-001 
-1.887068e-001 
-1.869792e-001 
-1.883147e-001 
-1.902943e-001 
-1.901407e-001 
-1.910954e-001 
-1.949614e-001 
-1.984282e-001 
-1.986735e-001 
-1.964999e-001 
-1.963231e-001 
-1.970892e-001 
-1.949606e-001 
-1.933050e-001 
-1.947303e-001 
-1.942378e-001 
-1.901291e-001 
-1.870341e-001 
-1.850048e-001 
-1.820346e-001 
-1.777558e-001 
-1.743777e-001 
-1.734400e-001 
-1.719069e-001 
-1.662419e-001 
-1.617424e-001 
-1.603542e-001 
-1.563343e-001 
-1.509616e-001 
-1.476810e-001 
-1.472196e-001 
-1.466889e-001 
-1.428301e-001 
-1.376972e-001 
-1.358222e-001 
-1.334495e-001 
-1.284433e-001 
-1.253214e-001 
-1.251821e-001 
-1.250150e-001 
-1.207088e-001 
-1.132846e-001 
-1.089992e-001 
-1.054618e-001 
-9.678386e-002 
-8.688587e-002 
-7.768137e-002 
-6.945316e-002 
-6.410639e-002 
-5.970008e-002 
-5.697594e-002 
-5.516358e-002 
-4.871250e-002 
-4.334644e-002 
-4.278707e-002 
-4.292864e-002 
-4.736397e-002 
-5.440366e-002 
-5.145374e-002 
-2.344455e-002 
4.061551e-002 
6.813653e-002 
7.360233e-003 
-9.731178e-002 
-2.196918e-001 
-3.191814e-001 
-3.640656e-001 
-3.514196e-001 
-2.817378e-001 
-2.351217e-001 
-3.055365e-001 
-3.992021e-001 
-4.340004e-001 
-4.184937e-001 
-3.378212e-001 
-2.361863e-001 
-1.531677e-001 
-1.140820e-001 
-1.368905e-001 
-1.599566e-001 
-9.918851e-002 
2.277576e-002 
1.714401e-001 
3.181308e-001 
4.215929e-001 
4.837309e-001 
5.171484e-001 
5.449090e-001 
5.788693e-001 
6.193280e-001 
6.619067e-001 
7.079186e-001 
7.578914e-001 
8.080512e-001 
8.578096e-001 
9.064074e-001 
9.546966e-001 
9.977948e-001 
1.028104e+000 
1.042326e+000 
1.041084e+000 
1.024538e+000 
9.956742e-001 
9.583049e-001 
9.148003e-001 
8.628927e-001 
7.958133e-001 
7.150125e-001 
6.262904e-001 
5.344705e-001 
4.417765e-001 
3.517001e-001 
2.672110e-001 
1.853542e-001 
1.029988e-001 
2.618165e-002 
-3.878736e-002 
-9.062485e-002 
-1.297207e-001 
-1.574200e-001 
-1.730505e-001 
-1.803880e-001 
-1.861695e-001 
-1.895762e-001 
-1.882341e-001 
-1.871314e-001 
-1.874192e-001 
-1.867550e-001 
-1.835571e-001 
-1.787763e-001 
-1.759171e-001 
-1.752058e-001 
-1.731642e-001 
-1.720078e-001 
-1.738128e-001 
-1.766410e-001 
-1.787718e-001 
-1.794648e-001 
-1.812501e-001 
-1.844004e-001 
-1.864268e-001 
-1.877846e-001 
-1.914228e-001 
-1.963067e-001 
-1.996493e-001 
-1.999560e-001 
-1.995012e-001 
-1.996037e-001 
-1.992453e-001 
-1.987859e-001 
-1.995990e-001 
-2.018939e-001 
-2.014164e-001 
-1.974740e-001 
-1.941732e-001 
-1.916683e-001 
-1.885823e-001 
-1.867052e-001 
-1.857168e-001 
-1.852694e-001 
-1.836522e-001 
-1.783253e-001 
-1.756638e-001 
-1.737585e-001 
-1.702612e-001 
-1.685391e-001 
-1.677051e-001 
-1.668468e-001 
-1.658288e-001 
-1.611346e-001 
-1.577152e-001 
-1.569801e-001 
-1.531954e-001 
-1.516176e-001 
-1.514199e-001 
-1.498581e-001 
-1.464012e-001 
-1.409451e-001 
-1.347702e-001 
-1.282869e-001 
-1.146225e-001 
-1.004317e-001 
-9.743614e-002 
-9.945510e-002 
-9.658027e-002 
-9.033318e-002 
-8.838515e-002 
-8.746342e-002 
-8.098850e-002 
-7.313518e-002 
-7.798107e-002 
-9.181511e-002 
-8.196002e-002 
-2.900758e-002 
3.239821e-002 
1.922365e-002 
-5.956305e-002 
-1.698442e-001 
-2.907800e-001 
-3.795728e-001 
-4.108343e-001 
-3.704864e-001 
-2.975454e-001 
-3.027728e-001 
-4.013184e-001 
-4.671730e-001 
-4.830241e-001 
-4.415615e-001 
-3.485822e-001 
-2.515727e-001 
-1.810196e-001 
-1.666747e-001 
-1.980700e-001 
-1.867189e-001 
-9.264827e-002 
4.236679e-002 
2.002343e-001 
3.358895e-001 
4.280690e-001 
4.850003e-001 
5.228794e-001 
5.581553e-001 
5.956551e-001 
6.385580e-001 
6.878592e-001 
7.402971e-001 
7.933250e-001 
8.494925e-001 
9.079243e-001 
9.655965e-001 
1.018225e+000 
1.064448e+000 
1.104157e+000 
1.129107e+000 
1.135560e+000 
1.129518e+000 
1.112289e+000 
1.081507e+000 
1.039460e+000 
9.866838e-001 
9.243479e-001 
8.518927e-001 
7.679002e-001 
6.798065e-001 
5.927590e-001 
5.036272e-001 
4.126598e-001 
3.246830e-001 
2.429057e-001 
1.667117e-001 
9.775711e-002 
4.176818e-002 
1.146068e-003 
-2.860590e-002 
-5.211075e-002 
-6.890516e-002 
-7.636043e-002 
-7.827928e-002 
-8.176309e-002 
-8.327278e-002 
-8.156245e-002 
-8.084571e-002 
-8.313605e-002 
-8.588136e-002 
-8.514104e-002 
-8.106206e-002 
-7.952299e-002 
-7.981026e-002 
-7.801660e-002 
-7.850621e-002 
-8.196037e-002 
-8.558318e-002 
-8.615596e-002 
-8.517436e-002 
-8.620605e-002 
-8.786808e-002 
-8.728281e-002 
-8.718515e-002 
-8.880977e-002 
-8.944532e-002 
-8.756697e-002 
-8.441682e-002 
-8.303264e-002 
-8.172501e-002 
-7.822002e-002 
-7.543162e-002 
-7.545187e-002 
-7.580119e-002 
-7.442697e-002 
-7.259728e-002 
-7.231669e-002 
-7.204767e-002 
-7.020295e-002 
-6.915637e-002 
-7.182106e-002 
-7.595433e-002 
-7.783810e-002 
-7.868422e-002 
-8.135005e-002 
-8.271527e-002 
-8.213491e-002 
-8.330708e-002 
-8.733822e-002 
-9.199081e-002 
-9.350841e-002 
-9.287259e-002 
-9.356154e-002 
-9.278750e-002 
-8.977833e-002 
-8.999337e-002 
-9.303099e-002 
-9.434439e-002 
-9.115366e-002 
-8.679176e-002 
-8.395162e-002 
-7.634662e-002 
-5.988559e-002 
-4.810965e-002 
-4.877404e-002 
-5.123840e-002 
-4.778350e-002 
-4.405531e-002 
-4.694506e-002 
-4.791402e-002 
-3.989759e-002 
-3.447995e-002 
-4.624182e-002 
-6.198966e-002 
-4.875622e-002 
4.133446e-003 
5.829921e-002 
4.700472e-002 
-2.019030e-002 
-1.292910e-001 
-2.436998e-001 
-3.215144e-001 
-3.473020e-001 
-3.038053e-001 
-2.379025e-001 
-2.489788e-001 
-3.360660e-001 
-4.037583e-001 
-4.288846e-001 
-3.783268e-001 
-2.922610e-001 
-2.108081e-001 
-1.502991e-001 
-1.465323e-001 
-1.819073e-001 
-1.749921e-001 
-9.664421e-002 
2.763253e-002 
1.732347e-001 
2.870632e-001 
3.647892e-001 
4.109948e-001 
4.405808e-001 
4.696968e-001 
5.016643e-001 
5.368633e-001 
5.749061e-001 
6.168598e-001 
6.593875e-001 
7.027376e-001 
7.483629e-001 
7.944559e-001 
8.367414e-001 
8.738676e-001 
9.021693e-001 
9.177468e-001 
9.200138e-001 
9.114036e-001 
8.948117e-001 
8.666652e-001 
8.284484e-001 
7.800966e-001 
7.214747e-001 
6.527439e-001 
5.751282e-001 
4.948527e-001 
4.188056e-001 
3.409570e-001 
2.606952e-001 
1.834997e-001 
1.106642e-001 
4.407834e-002 
-1.674864e-002 
-6.741841e-002 
-1.016763e-001 
-1.266184e-001 
-1.477679e-001 
-1.603736e-001 
-1.650053e-001 
-1.644663e-001 
-1.651635e-001 
-1.657620e-001 
-1.615461e-001 
-1.577238e-001 
-1.584346e-001 
-1.576578e-001 
-1.542140e-001 
-1.508626e-001 
-1.509553e-001 
-1.529804e-001 
-1.520447e-001 
-1.518801e-001 
-1.556070e-001 
-1.595236e-001 
-1.600248e-001 
-1.606743e-001 
-1.637441e-001 
-1.669270e-001 
-1.673973e-001 
-1.680572e-001 
-1.706999e-001 
-1.735499e-001 
-1.742325e-001 
-1.734161e-001 
-1.741472e-001 
-1.750876e-001 
-1.749863e-001 
-1.749064e-001 
-1.766293e-001 
-1.781867e-001 
-1.782929e-001 
-1.756965e-001 
-1.733849e-001 
-1.719562e-001 
-1.710268e-001 
-1.705577e-001 
-1.713051e-001 
-1.725625e-001 
-1.717470e-001 
-1.690197e-001 
-1.672572e-001 
-1.670631e-001 
-1.653901e-001 
-1.648993e-001 
-1.647541e-001 
-1.631805e-001 
-1.587323e-001 
-1.521666e-001 
-1.448215e-001 
-1.388086e-001 
-1.297868e-001 
-1.203874e-001 
-1.177065e-001 
-1.170086e-001 
-1.134335e-001 
-1.081927e-001 
-1.044153e-001 
-1.034974e-001 
-1.044843e-001 
-1.032697e-001 
-1.069578e-001 
-1.167803e-001 
-1.175094e-001 
-9.641137e-002 
-4.897231e-002 
-1.817872e-002 
-4.067964e-002 
-1.041718e-001 
-1.959413e-001 
-2.811131e-001 
-3.308466e-001 
-3.371910e-001 
-2.958867e-001 
-2.551552e-001 
-2.867061e-001 
-3.511498e-001 
-3.969033e-001 
-4.059011e-001 
-3.571649e-001 
-2.886101e-001 
-2.267683e-001 
-1.869403e-001 
-1.928466e-001 
-2.152579e-001 
-1.918952e-001 
-1.204725e-001 
-1.088605e-002 
1.078164e-001 
1.982032e-001 
2.635875e-001 
3.091963e-001 
3.430912e-001 
3.746162e-001 
4.100842e-001 
4.509986e-001 
4.974409e-001 
5.438000e-001 
5.916716e-001 
6.442430e-001 
6.965423e-001 
7.432402e-001 
7.869551e-001 
8.268214e-001 
8.565131e-001 
8.691253e-001 
8.682038e-001 
8.580703e-001 
8.361856e-001 
8.022294e-001 
7.584332e-001 
7.080466e-001 
6.476293e-001 
5.741301e-001 
4.940374e-001 
4.153909e-001 
3.349917e-001 
2.540247e-001 
1.746156e-001 
9.988402e-002 
3.161991e-002 
-3.275445e-002 
-8.806449e-002 
-1.278784e-001 
-1.564849e-001 
-1.775947e-001 
-1.906868e-001 
-1.960855e-001 
-1.951355e-001 
-1.935911e-001 
-1.911146e-001 
-1.843164e-001 
-1.770371e-001 
-1.718615e-001 
-1.671207e-001 
-1.609185e-001 
-1.527259e-001 
-1.475935e-001 
-1.434602e-001 
-1.377908e-001 
-1.341670e-001 
-1.341816e-001 
-1.343271e-001 
-1.332810e-001 
-1.317433e-001 
-1.325834e-001 
-1.339662e-001 
-1.334933e-001 
-1.351056e-001 
-1.392781e-001 
-1.438172e-001 
-1.458316e-001 
-1.485018e-001 
-1.536965e-001 
-1.585150e-001 
-1.603700e-001 
-1.637525e-001 
-1.684112e-001 
-1.719446e-001 
-1.729780e-001 
-1.721308e-001 
-1.722430e-001 
-1.709059e-001 
-1.670687e-001 
-1.596470e-001 
-1.531138e-001 
-1.460533e-001 
-1.352306e-001 
-1.246615e-001 
-1.216982e-001 
-1.203723e-001 
-1.168906e-001 
-1.122979e-001 
-1.078677e-001 
-1.108391e-001 
-1.123449e-001 
-1.120802e-001 
-1.206887e-001 
-1.328555e-001 
-1.305236e-001 
-1.086497e-001 
-5.719301e-002 
-1.175712e-002 
-1.971100e-002 
-7.513833e-002 
-1.748547e-001 
-2.722048e-001 
-3.260346e-001 
-3.358173e-001 
-2.950840e-001 
-2.423727e-001 
-2.587655e-001 
-3.252249e-001 
-3.873760e-001 
-4.136185e-001 
-3.657873e-001 
-2.916565e-001 
-2.267870e-001 
-1.823998e-001 
-1.892674e-001 
-2.235134e-001 
-2.200895e-001 
-1.608289e-001 
-5.128158e-002 
7.568684e-002 
1.728922e-001 
2.419324e-001 
2.875047e-001 
3.180757e-001 
3.451548e-001 
3.743668e-001 
4.087344e-001 
4.444140e-001 
4.812785e-001 
5.190783e-001 
5.593811e-001 
6.003484e-001 
6.377843e-001 
6.708927e-001 
6.986658e-001 
7.142133e-001 
7.155468e-001 
7.065425e-001 
6.903868e-001 
6.664135e-001 
6.318408e-001 
5.896326e-001 
5.401110e-001 
4.803849e-001 
4.100958e-001 
3.377857e-001 
2.675912e-001 
1.996833e-001 
1.299527e-001 
6.159456e-002 
-1.766777e-003 
-6.157660e-002 
-1.177188e-001 
-1.629889e-001 
-1.949815e-001 
-2.189974e-001 
-2.370915e-001 
-2.491494e-001 
-2.531878e-001 
-2.543125e-001 
-2.559566e-001 
-2.568619e-001 
-2.536501e-001 
-2.518417e-001 
-2.521941e-001 
-2.505720e-001 
-2.458626e-001 
-2.428506e-001 
-2.437158e-001 
-2.454000e-001 
-2.458701e-001 
-2.458035e-001 
-2.490872e-001 
-2.508199e-001 
-2.498378e-001 
-2.506926e-001 
-2.561281e-001 
-2.612586e-001 
-2.642549e-001 
-2.673587e-001 
-2.722984e-001 
-2.759047e-001 
-2.763812e-001 
-2.785482e-001 
-2.842844e-001 
-2.912279e-001 
-2.944467e-001 
-2.961554e-001 
-2.994714e-001 
-3.000178e-001 
-2.960415e-001 
-2.940775e-001 
-2.910384e-001 
-2.869649e-001 
-2.801285e-001 
-2.687917e-001 
-2.604760e-001 
-2.578573e-001 
-2.554627e-001 
-2.536237e-001 
-2.525867e-001 
-2.502553e-001 
-2.514249e-001 
-2.519825e-001 
-2.534202e-001 
-2.594702e-001 
-2.675474e-001 
-2.667529e-001 
-2.481113e-001 
-2.046508e-001 
-1.551241e-001 
-1.496211e-001 
-1.953760e-001 
-2.892012e-001 
-3.888405e-001 
-4.527807e-001 
-4.741502e-001 
-4.429965e-001 
-3.888024e-001 
-3.854135e-001 
-4.432456e-001 
-5.072530e-001 
-5.448566e-001 
-5.103811e-001 
-4.402515e-001 
-3.708601e-001 
-3.145388e-001 
-3.078547e-001 
-3.407738e-001 
-3.462671e-001 
-2.948542e-001 
-1.927831e-001 
-6.345399e-002 
4.327295e-002 
1.249476e-001 
1.785320e-001 
2.075063e-001 
2.345535e-001 
2.671646e-001 
3.001291e-001 
3.336749e-001 
3.693217e-001 
4.076459e-001 
4.486471e-001 
4.866054e-001 
5.235356e-001 
5.621767e-001 
5.926559e-001 
6.119314e-001 
6.200055e-001 
6.185397e-001 
6.095637e-001 
5.896112e-001 
5.603458e-001 
5.277973e-001 
4.847487e-001 
4.293433e-001 
3.645127e-001 
2.963159e-001 
2.304684e-001 
1.625414e-001 
9.425520e-002 
3.063530e-002 
-3.149115e-002 
-9.510207e-002 
-1.535530e-001 
-2.025128e-001 
-2.379937e-001 
-2.655472e-001 
-2.864125e-001 
-2.983557e-001 
-3.053938e-001 
-3.113662e-001 
-3.150095e-001 
-3.136270e-001 
-3.099572e-001 
-3.073641e-001 
-3.061017e-001 
-3.035388e-001 
-3.019921e-001 
-3.024792e-001 
-3.041104e-001 
-3.041280e-001 
-3.026250e-001 
-3.036986e-001 
-3.050250e-001 
-3.059596e-001 
-3.078399e-001 
-3.099893e-001 
-3.136647e-001 
-3.160264e-001 
-3.163887e-001 
-3.183852e-001 
-3.210153e-001 
-3.214722e-001 
-3.237571e-001 
-3.255226e-001 
-3.266215e-001 
-3.272642e-001 
-3.240128e-001 
-3.212192e-001 
-3.185997e-001 
-3.089379e-001 
-2.969205e-001 
-2.887781e-001 
-2.791643e-001 
-2.697177e-001 
-2.650671e-001 
-2.630839e-001 
-2.600634e-001 
-2.530485e-001 
-2.440138e-001 
-2.437482e-001 
-2.475823e-001 
-2.482403e-001 
-2.519263e-001 
-2.610473e-001 
-2.547893e-001 
-2.236797e-001 
-1.633495e-001 
-1.222385e-001 
-1.440472e-001 
-2.063377e-001 
-3.084591e-001 
-4.115007e-001 
-4.707144e-001 
-4.768611e-001 
-4.288653e-001 
-3.782789e-001 
-4.115198e-001 
-4.789186e-001 
-5.290887e-001 
-5.549428e-001 
-5.073379e-001 
-4.256752e-001 
-3.515220e-001 
-3.031228e-001 
-3.135557e-001 
-3.464683e-001 
-3.259301e-001 
-2.549552e-001 
-1.367074e-001 
4.601355e-003 
1.155330e-001 
1.938443e-001 
2.408822e-001 
2.722902e-001 
3.034761e-001 
3.346083e-001 
3.698623e-001 
4.115931e-001 
4.526474e-001 
4.927005e-001 
5.324776e-001 
5.768983e-001 
6.236193e-001 
6.635890e-001 
6.971066e-001 
7.262055e-001 
7.428688e-001 
7.431990e-001 
7.311556e-001 
7.113355e-001 
6.865941e-001 
6.503458e-001 
6.048676e-001 
5.536437e-001 
4.942209e-001 
4.245379e-001 
3.503329e-001 
2.777224e-001 
2.087160e-001 
1.390768e-001 
7.266491e-002 
1.271575e-002 
-4.388290e-002 
-9.600024e-002 
-1.398327e-001 
-1.710464e-001 
-1.901776e-001 
-2.033414e-001 
-2.105450e-001 
-2.094185e-001 
-2.094377e-001 
-2.110837e-001 
-2.118419e-001 
-2.099653e-001 
-2.053406e-001 
-2.023424e-001 
-2.012272e-001 
-1.969382e-001 
-1.940585e-001 
-1.960210e-001 
-1.966443e-001 
-1.964225e-001 
-1.948368e-001 
-1.947333e-001 
-1.963537e-001 
-1.952422e-001 
-1.940504e-001 
-1.967248e-001 
-1.989213e-001 
-1.980674e-001 
-1.971678e-001 
-1.976232e-001 
-1.975105e-001 
-1.945660e-001 
-1.907112e-001 
-1.893330e-001 
-1.867136e-001 
-1.776680e-001 
-1.659229e-001 
-1.575822e-001 
-1.479024e-001 
-1.357393e-001 
-1.306324e-001 
-1.303110e-001 
-1.292309e-001 
-1.226294e-001 
-1.155294e-001 
-1.168797e-001 
-1.208986e-001 
-1.201233e-001 
-1.253857e-001 
-1.375763e-001 
-1.381426e-001 
-1.144484e-001 
-5.859219e-002 
-1.448536e-002 
-3.009792e-002 
-9.131900e-002 
-1.894254e-001 
-2.865068e-001 
-3.429665e-001 
-3.525214e-001 
-3.065765e-001 
-2.525449e-001 
-2.763422e-001 
-3.492138e-001 
-4.067088e-001 
-4.287944e-001 
-3.825942e-001 
-3.090842e-001 
-2.403843e-001 
-1.927009e-001 
-2.011156e-001 
-2.365590e-001 
-2.272723e-001 
-1.616722e-001 
-5.133083e-002 
7.780133e-002 
1.796917e-001 
2.529099e-001 
2.987797e-001 
3.297061e-001 
3.584118e-001 
3.880553e-001 
4.209409e-001 
4.598128e-001 
5.028327e-001 
5.426299e-001 
5.824453e-001 
6.251146e-001 
6.651524e-001 
6.987981e-001 
7.264994e-001 
7.462818e-001 
7.570514e-001 
7.528215e-001 
7.368308e-001 
7.160498e-001 
6.862933e-001 
6.452097e-001 
5.948394e-001 
5.381045e-001 
4.757989e-001 
4.069658e-001 
3.340628e-001 
2.654995e-001 
1.979720e-001 
1.292501e-001 
6.205667e-002 
8.141197e-004 
-5.163404e-002 
-9.683722e-002 
-1.342078e-001 
-1.598316e-001 
-1.756818e-001 
-1.873335e-001 
-1.947690e-001 
-1.968123e-001 
-1.946161e-001 
-1.923787e-001 
-1.901591e-001 
-1.871078e-001 
-1.838446e-001 
-1.825027e-001 
-1.825149e-001 
-1.823886e-001 
-1.806079e-001 
-1.808570e-001 
-1.818228e-001 
-1.821145e-001 
-1.834999e-001 
-1.870026e-001 
-1.910028e-001 
-1.932376e-001 
-1.949103e-001 
-1.972018e-001 
-1.991728e-001 
-1.984786e-001 
-1.986790e-001 
-2.014139e-001 
-2.045625e-001 
-2.038047e-001 
-2.016486e-001 
-1.995376e-001 
-1.951191e-001 
-1.880956e-001 
-1.788862e-001 
-1.699810e-001 
-1.625780e-001 
-1.517646e-001 
-1.402184e-001 
-1.357177e-001 
-1.324105e-001 
-1.279654e-001 
-1.224335e-001 
-1.174836e-001 
-1.190567e-001 
-1.226044e-001 
-1.226695e-001 
-1.279544e-001 
-1.357845e-001 
-1.343007e-001 
-1.120905e-001 
-5.772590e-002 
-1.400884e-002 
-3.307107e-002 
-9.863419e-002 
-2.052706e-001 
-3.092436e-001 
-3.666475e-001 
-3.760019e-001 
-3.267112e-001 
-2.696986e-001 
-2.937394e-001 
-3.684632e-001 
-4.263596e-001 
-4.516394e-001 
-3.981740e-001 
-3.121583e-001 
-2.355048e-001 
-1.853310e-001 
-1.941422e-001 
-2.296972e-001 
-2.169405e-001 
-1.433981e-001 
-2.053127e-002 
1.225661e-001 
2.296892e-001 
3.031086e-001 
3.477572e-001 
3.775416e-001 
4.071144e-001 
4.415685e-001 
4.817454e-001 
5.249436e-001 
5.665510e-001 
6.077267e-001 
6.529686e-001 
7.003241e-001 
7.437732e-001 
7.832518e-001 
8.161332e-001 
8.352113e-001 
8.381542e-001 
8.278306e-001 
8.106365e-001 
7.872823e-001 
7.532903e-001 
7.093004e-001 
6.583225e-001 
5.945897e-001 
5.197468e-001 
4.425102e-001 
3.682081e-001 
2.957419e-001 
2.207491e-001 
1.471653e-001 
7.992335e-002 
1.620643e-002 
-4.415660e-002 
-9.231487e-002 
-1.245621e-001 
-1.459399e-001 
-1.633224e-001 
-1.745402e-001 
-1.771331e-001 
-1.777185e-001 
-1.803634e-001 
-1.815355e-001 
-1.778337e-001 
-1.728159e-001 
-1.723309e-001 
-1.720877e-001 
-1.685611e-001 
-1.664278e-001 
-1.673824e-001 
-1.691922e-001 
-1.687562e-001 
-1.682093e-001 
-1.723555e-001 
-1.771753e-001 
-1.772306e-001 
-1.791450e-001 
-1.821575e-001 
-1.854342e-001 
-1.869708e-001 
-1.864761e-001 
-1.889855e-001 
-1.919097e-001 
-1.896556e-001 
-1.881038e-001 
-1.900899e-001 
-1.907266e-001 
-1.905938e-001 
-1.873781e-001 
-1.862086e-001 
-1.860515e-001 
-1.821061e-001 
-1.778721e-001 
-1.777702e-001 
-1.768968e-001 
-1.740686e-001 
-1.696680e-001 
-1.659470e-001 
-1.632377e-001 
-1.573160e-001 
-1.482605e-001 
-1.385661e-001 
-1.291493e-001 
-1.167109e-001 
-1.044625e-001 
-9.866736e-002 
-9.763188e-002 
-9.409334e-002 
-8.897759e-002 
-8.295295e-002 
-8.234198e-002 
-8.358663e-002 
-8.277607e-002 
-8.841985e-002 
-9.880289e-002 
-1.014785e-001 
-8.657166e-002 
-4.827147e-002 
1.786551e-003 
4.429588e-003 
-4.444423e-002 
-1.346464e-001 
-2.379447e-001 
-3.082952e-001 
-3.342335e-001 
-3.101292e-001 
-2.547534e-001 
-2.424167e-001 
-3.034097e-001 
-3.634986e-001 
-3.951390e-001 
-3.676037e-001 
-2.965687e-001 
-2.212444e-001 
-1.620514e-001 
-1.436906e-001 
-1.677165e-001 
-1.747443e-001 
-1.201700e-001 
-1.844375e-002 
1.097948e-001 
2.209958e-001 
3.015055e-001 
3.534971e-001 
3.863106e-001 
4.092741e-001 
4.323000e-001 
4.608646e-001 
4.912015e-001 
5.193338e-001 
5.481538e-001 
5.803031e-001 
6.151925e-001 
6.476882e-001 
6.758982e-001 
7.028935e-001 
7.252072e-001 
7.352054e-001 
7.339986e-001 
7.279751e-001 
7.156270e-001 
6.939481e-001 
6.638385e-001 
6.279647e-001 
5.864159e-001 
5.352165e-001 
4.757045e-001 
4.165270e-001 
3.576952e-001 
2.953447e-001 
2.332225e-001 
1.739104e-001 
1.172646e-001 
6.180843e-002 
9.380084e-003 
-3.285345e-002 
-6.533387e-002 
-9.340531e-002 
-1.146135e-001 
-1.281527e-001 
-1.367952e-001 
-1.449439e-001 
-1.537969e-001 
-1.582552e-001 
-1.592860e-001 
-1.629205e-001 
-1.658221e-001 
-1.653135e-001 
-1.658812e-001 
-1.682630e-001 
-1.730586e-001 
-1.756792e-001 
-1.761010e-001 
-1.791099e-001 
-1.829414e-001 
-1.838157e-001 
-1.862656e-001 
-1.906907e-001 
-1.957866e-001 
-1.988473e-001 
-1.989964e-001 
-2.016962e-001 
-2.042093e-001 
-2.039415e-001 
-2.049954e-001 
-2.069646e-001 
-2.083358e-001 
-2.086261e-001 
-2.064114e-001 
-2.064589e-001 
-2.072276e-001 
-2.043742e-001 
-2.029718e-001 
-2.031062e-001 
-2.020175e-001 
-2.007128e-001 
-1.979778e-001 
-1.969372e-001 
-1.965805e-001 
-1.929442e-001 
-1.903975e-001 
-1.914385e-001 
-1.906150e-001 
-1.885945e-001 
-1.862265e-001 
-1.847138e-001 
-1.835374e-001 
-1.801501e-001 
-1.775018e-001 
-1.775329e-001 
-1.756256e-001 
-1.693864e-001 
-1.611881e-001 
-1.508449e-001 
-1.390161e-001 
-1.256854e-001 
-1.148929e-001 
-1.104382e-001 
-1.095988e-001 
-1.055975e-001 
-9.957088e-002 
-9.341966e-002 
-8.950049e-002 
-8.998536e-002 
-9.169274e-002 
-9.766979e-002 
-1.080060e-001 
-1.111366e-001 
-9.057600e-002 
-4.165609e-002 
1.132806e-002 
-3.280006e-003 
-8.010191e-002 
-1.985675e-001 
-3.151353e-001 
-3.819364e-001 
-3.932180e-001 
-3.477449e-001 
-2.846586e-001 
-2.919429e-001 
-3.783302e-001 
-4.487186e-001 
-4.755533e-001 
-4.190192e-001 
-3.235162e-001 
-2.386967e-001 
-1.822584e-001 
-1.788239e-001 
-2.124431e-001 
-2.057219e-001 
-1.254111e-001 
7.585684e-003 
1.605960e-001 
2.756967e-001 
3.553835e-001 
4.042083e-001 
4.351810e-001 
4.649064e-001 
4.983259e-001 
5.373219e-001 
5.796875e-001 
6.204430e-001 
6.662973e-001 
7.152281e-001 
7.613502e-001 
8.057464e-001 
8.467553e-001 
8.826217e-001 
9.093498e-001 
9.200326e-001 
9.175664e-001 
9.060226e-001 
8.817457e-001 
8.472006e-001 
8.032871e-001 
7.505400e-001 
6.892837e-001 
6.149759e-001 
5.343552e-001 
4.543565e-001 
3.726793e-001 
2.911872e-001 
2.107654e-001 
1.335868e-001 
6.213469e-002 
-5.361524e-003 
-6.427147e-002 
-1.075800e-001 
-1.403343e-001 
-1.663351e-001 
-1.831193e-001 
-1.915550e-001 
-1.929310e-001 
-1.937862e-001 
-1.927947e-001 
-1.888324e-001 
-1.849108e-001 
-1.847499e-001 
-1.858589e-001 
-1.827554e-001 
-1.771276e-001 
-1.754145e-001 
-1.768678e-001 
-1.757644e-001 
-1.775300e-001 
-1.816620e-001 
-1.873060e-001 
-1.905275e-001 
-1.902309e-001 
-1.929887e-001 
-1.986701e-001 
-1.997314e-001 
-2.004339e-001 
-2.049985e-001 
-2.082359e-001 
-2.093744e-001 
-2.082385e-001 
-2.085364e-001 
-2.091094e-001 
-2.058026e-001 
-2.022817e-001 
-2.034890e-001 
-2.045469e-001 
-2.011877e-001 
-1.966515e-001 
-1.950766e-001 
-1.926658e-001 
-1.870641e-001 
-1.834632e-001 
-1.840269e-001 
-1.842586e-001 
-1.805284e-001 
-1.741788e-001 
-1.720294e-001 
-1.703977e-001 
-1.646484e-001 
-1.614151e-001 
-1.612000e-001 
-1.599781e-001 
-1.550292e-001 
-1.488045e-001 
-1.429019e-001 
-1.382575e-001 
-1.303439e-001 
-1.197417e-001 
-1.107030e-001 
-1.020745e-001 
-8.877820e-002 
-7.815954e-002 
-7.603578e-002 
-7.318707e-002 
-6.924318e-002 
-6.357507e-002 
-5.905520e-002 
-6.099154e-002 
-6.131691e-002 
-5.903766e-002 
-6.864292e-002 
-7.458230e-002 
-5.160340e-002 
7.677660e-003 
5.205483e-002 
1.552244e-002 
-7.184794e-002 
-1.850560e-001 
-2.933270e-001 
-3.579906e-001 
-3.679358e-001 
-3.136169e-001 
-2.535867e-001 
-2.940567e-001 
-3.866596e-001 
-4.355283e-001 
-4.431967e-001 
-3.814776e-001 
-2.879205e-001 
-2.064491e-001 
-1.512840e-001 
-1.573342e-001 
-1.897066e-001 
-1.583619e-001 
-5.954712e-002 
7.762852e-002 
2.266813e-001 
3.382896e-001 
4.121197e-001 
4.573403e-001 
4.878052e-001 
5.200499e-001 
5.548741e-001 
5.942832e-001 
6.361461e-001 
6.796224e-001 
7.248557e-001 
7.706558e-001 
8.213739e-001 
8.726550e-001 
9.201542e-001 
9.610726e-001 
9.947209e-001 
1.014988e+000 
1.021148e+000 
1.011961e+000 
9.928462e-001 
9.660384e-001 
9.270522e-001 
8.786171e-001 
8.220377e-001 
7.542437e-001 
6.753349e-001 
5.907772e-001 
5.063662e-001 
4.262024e-001 
3.458767e-001 
2.688135e-001 
1.978999e-001 
1.296840e-001 
6.604395e-002 
1.276321e-002 
-2.648664e-002 
-5.142732e-002 
-6.782894e-002 
-7.677688e-002 
-7.783369e-002 
-7.775545e-002 
-7.878822e-002 
-7.809722e-002 
-7.441287e-002 
-6.948958e-002 
-6.529315e-002 
-6.164240e-002 
-5.663962e-002 
-5.326615e-002 
-5.375892e-002 
-5.524644e-002 
-5.424212e-002 
-5.258847e-002 
-5.395625e-002 
-5.493984e-002 
-5.343152e-002 
-5.309564e-002 
-5.687904e-002 
-6.145738e-002 
-6.245094e-002 
-6.279535e-002 
-6.613264e-002 
-6.847370e-002 
-6.699168e-002 
-6.653922e-002 
-7.032153e-002 
-7.356983e-002 
-7.219080e-002 
-6.988152e-002 
-7.185231e-002 
-7.306143e-002 
-7.046730e-002 
-6.900025e-002 
-6.997674e-002 
-6.983164e-002 
-6.590962e-002 
-5.843683e-002 
-5.063891e-002 
-4.400377e-002 
-3.349058e-002 
-2.448892e-002 
-2.521615e-002 
-2.919979e-002 
-3.001599e-002 
-2.719010e-002 
-2.471230e-002 
-2.811632e-002 
-3.367110e-002 
-3.780549e-002 
-4.984788e-002 
-6.718987e-002 
-6.620234e-002 
-3.251343e-002 
2.974799e-002 
4.460484e-002 
-1.415484e-002 
-1.078023e-001 
-2.356049e-001 
-3.553666e-001 
-4.134694e-001 
-4.011172e-001 
-3.355528e-001 
-3.042941e-001 
-3.800813e-001 
-4.594695e-001 
-5.023935e-001 
-5.185252e-001 
-4.573523e-001 
-3.557105e-001 
-2.746445e-001 
-2.443687e-001 
-2.767239e-001 
-3.055324e-001 
-2.572809e-001 
-1.601637e-001 
-2.372867e-002 
1.256673e-001 
2.332529e-001 
2.957693e-001 
3.294970e-001 
3.541487e-001 
3.808555e-001 
4.148501e-001 
4.559171e-001 
5.012638e-001 
5.459075e-001 
5.928837e-001 
6.439240e-001 
6.959957e-001 
7.459084e-001 
7.925081e-001 
8.345879e-001 
8.646222e-001 
8.754646e-001 
8.706120e-001 
8.553461e-001 
8.281328e-001 
7.900386e-001 
7.435043e-001 
6.877619e-001 
6.196015e-001 
5.402396e-001 
4.550644e-001 
3.690039e-001 
2.836498e-001 
1.984530e-001 
1.175185e-001 
4.301563e-002 
-3.043815e-002 
-9.930411e-002 
-1.540243e-001 
-1.963025e-001 
-2.272128e-001 
-2.473797e-001 
-2.587386e-001 
-2.592939e-001 
-2.570901e-001 
-2.581052e-001 
-2.560121e-001 
-2.507405e-001 
-2.483992e-001 
-2.484949e-001 
-2.500944e-001 
-2.487798e-001 
-2.466396e-001 
-2.502341e-001 
-2.541439e-001 
-2.552505e-001 
-2.564333e-001 
-2.615961e-001 
-2.705744e-001 
-2.765285e-001 
-2.795088e-001 
-2.853696e-001 
-2.921232e-001 
-2.971036e-001 
-3.010850e-001 
-3.055729e-001 
-3.138324e-001 
-3.205971e-001 
-3.219708e-001 
-3.228714e-001 
-3.243798e-001 
-3.272234e-001 
-3.288776e-001 
-3.289282e-001 
-3.313791e-001 
-3.352043e-001 
-3.350569e-001 
-3.314780e-001 
-3.294618e-001 
-3.295775e-001 
-3.291127e-001 
-3.257454e-001 
-3.221709e-001 
-3.189401e-001 
-3.140983e-001 
-3.047288e-001 
-2.917242e-001 
-2.807074e-001 
-2.682987e-001 
-2.553362e-001 
-2.442394e-001 
-2.390230e-001 
-2.369800e-001 
-2.315443e-001 
-2.229512e-001 
-2.174176e-001 
-2.173987e-001 
-2.167593e-001 
-2.173843e-001 
-2.240458e-001 
-2.325426e-001 
-2.133380e-001 
-1.512140e-001 
-1.151494e-001 
-1.679640e-001 
-2.748723e-001 
-3.941344e-001 
-4.866086e-001 
-5.305189e-001 
-5.210930e-001 
-4.517617e-001 
-3.925324e-001 
-4.466884e-001 
-5.491282e-001 
-5.925725e-001 
-5.669257e-001 
-4.793788e-001 
-3.792298e-001 
-2.997662e-001 
-2.592189e-001 
-2.742841e-001 
-2.997084e-001 
-2.504252e-001 
-1.267256e-001 
2.787045e-002 
1.708116e-001 
2.711314e-001 
3.351833e-001 
3.750433e-001 
4.123344e-001 
4.543582e-001 
5.011691e-001 
5.520932e-001 
6.042563e-001 
6.586883e-001 
7.131303e-001 
7.627023e-001 
8.083021e-001 
8.472377e-001 
8.741266e-001 
8.850166e-001 
8.812039e-001 
8.653487e-001 
8.387377e-001 
7.991869e-001 
7.497626e-001 
6.917851e-001 
6.226338e-001 
5.421168e-001 
4.544992e-001 
3.676312e-001 
2.812427e-001 
1.939344e-001 
1.071686e-001 
2.413355e-002 
-5.188956e-002 
-1.207012e-001 
-1.814487e-001 
-2.264225e-001 
-2.562745e-001 
-2.788806e-001 
-2.948196e-001 
-3.040224e-001 
-3.067055e-001 
-3.053213e-001 
-3.053190e-001 
-3.034766e-001 
-2.967947e-001 
-2.925990e-001 
-2.909925e-001 
-2.887822e-001 
-2.854068e-001 
-2.811877e-001 
-2.798108e-001 
-2.796097e-001 
-2.769394e-001 
-2.762938e-001 
-2.789423e-001 
-2.812713e-001 
-2.834895e-001 
-2.837163e-001 
-2.845782e-001 
-2.869359e-001 
-2.867493e-001 
-2.865758e-001 
-2.889032e-001 
-2.904306e-001 
-2.910262e-001 
-2.908172e-001 
-2.903156e-001 
-2.903810e-001 
-2.884729e-001 
-2.865743e-001 
-2.866584e-001 
-2.874365e-001 
-2.861872e-001 
-2.841729e-001 
-2.838703e-001 
-2.835407e-001 
-2.803383e-001 
-2.772722e-001 
-2.771163e-001 
-2.770522e-001 
-2.754149e-001 
-2.717751e-001 
-2.699976e-001 
-2.669688e-001 
-2.600499e-001 
-2.514104e-001 
-2.426949e-001 
-2.342820e-001 
-2.234225e-001 
-2.112740e-001 
-2.053004e-001 
-2.040808e-001 
-1.994658e-001 
-1.944080e-001 
-1.906430e-001 
-1.897902e-001 
-1.912083e-001 
-1.907183e-001 
-1.947210e-001 
-2.041635e-001 
-2.074610e-001 
-1.884523e-001 
-1.357476e-001 
-9.419563e-002 
-1.306451e-001 
-2.255429e-001 
-3.512197e-001 
-4.632594e-001 
-5.266703e-001 
-5.414064e-001 
-4.930834e-001 
-4.328251e-001 
-4.653055e-001 
-5.621495e-001 
-6.219073e-001 
-6.247151e-001 
-5.538044e-001 
-4.603462e-001 
-3.786326e-001 
-3.198064e-001 
-3.178019e-001 
-3.444205e-001 
-3.144884e-001 
-2.084896e-001 
-5.825074e-002 
9.686167e-002 
2.105496e-001 
2.895029e-001 
3.404920e-001 
3.757469e-001 
4.078315e-001 
4.439985e-001 
4.874963e-001 
5.326480e-001 
5.767935e-001 
6.232414e-001 
6.747964e-001 
7.296735e-001 
7.819264e-001 
8.308210e-001 
8.770401e-001 
9.122009e-001 
9.300623e-001 
9.327466e-001 
9.258847e-001 
9.095949e-001 
8.800468e-001 
8.385384e-001 
7.884471e-001 
7.272426e-001 
6.514882e-001 
5.656639e-001 
4.790331e-001 
3.950027e-001 
3.082104e-001 
2.210974e-001 
1.385267e-001 
5.918967e-002 
-1.709839e-002 
-8.665230e-002 
-1.418045e-001 
-1.803621e-001 
-2.093301e-001 
-2.300863e-001 
-2.403046e-001 
-2.453256e-001 
-2.497487e-001 
-2.535802e-001 
-2.531079e-001 
-2.484777e-001 
-2.447798e-001 
-2.425329e-001 
-2.382976e-001 
-2.356236e-001 
-2.368697e-001 
-2.395570e-001 
-2.399035e-001 
-2.373479e-001 
-2.379468e-001 
-2.401381e-001 
-2.406466e-001 
-2.415021e-001 
-2.459350e-001 
-2.502016e-001 
-2.509424e-001 
-2.490545e-001 
-2.502700e-001 
-2.538017e-001 
-2.538463e-001 
-2.530316e-001 
-2.542644e-001 
-2.569709e-001 
-2.561458e-001 
-2.525727e-001 
-2.511117e-001 
-2.509871e-001 
-2.482666e-001 
-2.449931e-001 
-2.424707e-001 
-2.413245e-001 
-2.401037e-001 
-2.355701e-001 
-2.319665e-001 
-2.290090e-001 
-2.243429e-001 
-2.203216e-001 
-2.162344e-001 
-2.101651e-001 
-2.035598e-001 
-1.931738e-001 
-1.802038e-001 
-1.686291e-001 
-1.555457e-001 
-1.433348e-001 
-1.369201e-001 
-1.349329e-001 
-1.306770e-001 
-1.236760e-001 
-1.173280e-001 
-1.148575e-001 
-1.143022e-001 
-1.119914e-001 
-1.144969e-001 
-1.238571e-001 
-1.278590e-001 
-1.107174e-001 
-6.572234e-002 
-1.018855e-002 
-2.094688e-002 
-1.007695e-001 
-2.147225e-001 
-3.319749e-001 
-4.075293e-001 
-4.287934e-001 
-3.910888e-001 
-3.220950e-001 
-3.194765e-001 
-4.130088e-001 
-4.847121e-001 
-5.014982e-001 
-4.542078e-001 
-3.630357e-001 
-2.737060e-001 
-2.069295e-001 
-1.921623e-001 
-2.226507e-001 
-2.166020e-001 
-1.278462e-001 
7.811127e-003 
1.633048e-001 
2.902743e-001 
3.781895e-001 
4.349902e-001 
4.716588e-001 
5.053508e-001 
5.404719e-001 
5.820145e-001 
6.291017e-001 
6.769320e-001 
7.256585e-001 
7.799318e-001 
8.341242e-001 
8.856745e-001 
9.334184e-001 
9.764391e-001 
1.011697e+000 
1.029366e+000 
1.031750e+000 
1.025623e+000 
1.005208e+000 
9.694309e-001 
9.249972e-001 
8.715725e-001 
8.073068e-001 
7.297513e-001 
6.434083e-001 
5.575940e-001 
4.703111e-001 
3.777975e-001 
2.879190e-001 
2.039277e-001 
1.226993e-001 
4.580913e-002 
-1.975288e-002 
-7.130439e-002 
-1.103604e-001 
-1.405524e-001 
-1.613963e-001 
-1.707932e-001 
-1.744396e-001 
-1.776379e-001 
-1.761748e-001 
-1.703911e-001 
-1.665516e-001 
-1.644699e-001 
-1.623797e-001 
-1.576007e-001 
-1.521709e-001 
-1.510476e-001 
-1.499698e-001 
-1.450968e-001 
-1.426597e-001 
-1.452699e-001 
-1.491122e-001 
-1.495979e-001 
-1.496248e-001 
-1.534205e-001 
-1.567475e-001 
-1.564549e-001 
-1.565213e-001 
-1.605480e-001 
-1.659055e-001 
-1.663234e-001 
-1.646219e-001 
-1.672244e-001 
-1.682960e-001 
-1.657855e-001 
-1.643713e-001 
-1.655429e-001 
-1.669278e-001 
-1.643288e-001 
-1.592392e-001 
-1.586997e-001 
-1.576621e-001 
-1.514166e-001 
-1.462240e-001 
-1.423571e-001 
-1.376571e-001 
-1.299893e-001 
-1.173223e-001 
-1.060213e-001 
-9.544823e-002 
-7.912121e-002 
-6.460461e-002 
-5.829814e-002 
-5.455927e-002 
-4.853196e-002 
-3.830177e-002 
-2.845380e-002 
-2.535293e-002 
-2.165250e-002 
-1.754274e-002 
-2.105303e-002 
-2.849729e-002 
-2.691700e-002 
-5.372840e-003 
4.471906e-002 
8.943312e-002 
7.333498e-002 
6.111950e-003 
-9.605856e-002 
-1.977051e-001 
-2.582881e-001 
-2.729143e-001 
-2.353356e-001 
-1.815817e-001 
-1.995181e-001 
-2.780171e-001 
-3.367811e-001 
-3.568154e-001 
-3.125255e-001 
-2.343516e-001 
-1.635176e-001 
-1.125928e-001 
-1.108010e-001 
-1.411742e-001 
-1.301659e-001 
-5.776046e-002 
5.837512e-002 
1.928794e-001 
2.981678e-001 
3.731477e-001 
4.230221e-001 
4.551810e-001 
4.845846e-001 
5.157613e-001 
5.525487e-001 
5.963861e-001 
6.387158e-001 
6.837507e-001 
7.325693e-001 
7.790177e-001 
8.232824e-001 
8.635243e-001 
8.983050e-001 
9.234281e-001 
9.309868e-001 
9.240411e-001 
9.091569e-001 
8.813216e-001 
8.429736e-001 
7.958657e-001 
7.407683e-001 
6.753934e-001 
5.968552e-001 
5.128521e-001 
4.315822e-001 
3.497268e-001 
2.664200e-001 
1.849073e-001 
1.081562e-001 
3.718368e-002 
-2.992064e-002 
-8.626700e-002 
-1.275855e-001 
-1.570398e-001 
-1.796179e-001 
-1.939648e-001 
-1.997489e-001 
-1.995899e-001 
-1.996762e-001 
-1.993084e-001 
-1.963668e-001 
-1.935332e-001 
-1.927384e-001 
-1.934025e-001 
-1.908785e-001 
-1.879508e-001 
-1.878737e-001 
-1.899327e-001 
-1.906908e-001 
-1.915772e-001 
-1.949637e-001 
-2.004798e-001 
-2.037455e-001 
-2.052859e-001 
-2.086262e-001 
-2.126556e-001 
-2.145529e-001 
-2.166098e-001 
-2.216356e-001 
-2.270067e-001 
-2.281885e-001 
-2.271546e-001 
-2.277482e-001 
-2.274727e-001 
-2.260111e-001 
-2.256633e-001 
-2.291421e-001 
-2.320235e-001 
-2.292640e-001 
-2.243299e-001 
-2.242818e-001 
-2.230102e-001 
-2.183973e-001 
-2.139691e-001 
-2.113042e-001 
-2.061884e-001 
-1.933421e-001 
-1.793235e-001 
-1.705430e-001 
-1.626501e-001 
-1.559354e-001 
-1.542014e-001 
-1.540678e-001 
-1.526428e-001 
-1.463468e-001 
-1.429934e-001 
-1.479877e-001 
-1.509067e-001 
-1.531813e-001 
-1.629833e-001 
-1.698032e-001 
-1.555489e-001 
-9.965614e-002 
-5.162629e-002 
-9.659948e-002 
-2.011933e-001 
-3.246810e-001 
-4.327772e-001 
-4.937106e-001 
-5.017240e-001 
-4.432409e-001 
-3.707508e-001 
-4.082719e-001 
-5.194368e-001 
-5.737938e-001 
-5.657951e-001 
-4.926404e-001 
-3.960681e-001 
-3.076058e-001 
-2.490857e-001 
-2.545974e-001 
-2.900447e-001 
-2.539451e-001 
-1.365300e-001 
1.327610e-002 
1.644133e-001 
2.794197e-001 
3.576391e-001 
4.009180e-001 
4.338185e-001 
4.721709e-001 
5.146348e-001 
5.570212e-001 
6.020495e-001 
6.548393e-001 
7.115847e-001 
7.640565e-001 
8.160342e-001 
8.686382e-001 
9.134851e-001 
9.446903e-001 
9.609418e-001 
9.673542e-001 
9.625013e-001 
9.402206e-001 
9.060229e-001 
8.655687e-001 
8.133796e-001 
7.458679e-001 
6.675365e-001 
5.835542e-001 
4.984678e-001 
4.078705e-001 
3.170091e-001 
2.319856e-001 
1.496815e-001 
6.798099e-002 
-8.513226e-003 
-7.288762e-002 
-1.245823e-001 
-1.646184e-001 
-1.943520e-001 
-2.102081e-001 
-2.186633e-001 
-2.241046e-001 
-2.276244e-001 
-2.267748e-001 
-2.233031e-001 
-2.206708e-001 
-2.176154e-001 
-2.140990e-001 
-2.102944e-001 
-2.100095e-001 
-2.115744e-001 
-2.114562e-001 
-2.101997e-001 
-2.122999e-001 
-2.151805e-001 
-2.165480e-001 
-2.201494e-001 
-2.256355e-001 
-2.318459e-001 
-2.356513e-001 
-2.389082e-001 
-2.451794e-001 
-2.514538e-001 
-2.545641e-001 
-2.580502e-001 
-2.640560e-001 
-2.682355e-001 
-2.693473e-001 
-2.696509e-001 
-2.736266e-001 
-2.768083e-001 
-2.755826e-001 
-2.753623e-001 
-2.775793e-001 
-2.794127e-001 
-2.784687e-001 
-2.758062e-001 
-2.759157e-001 
-2.763885e-001 
-2.723754e-001 
-2.687671e-001 
-2.687009e-001 
-2.682476e-001 
-2.648357e-001 
-2.580929e-001 
-2.528116e-001 
-2.464662e-001 
-2.341343e-001 
-2.220292e-001 
-2.116776e-001 
-2.007910e-001 
-1.908021e-001 
-1.845854e-001 
-1.820398e-001 
-1.792842e-001 
-1.710896e-001 
-1.664522e-001 
-1.688102e-001 
-1.702938e-001 
-1.719225e-001 
-1.785119e-001 
-1.877962e-001 
-1.819425e-001 
-1.458623e-001 
-8.389383e-002 
-8.218817e-002 
-1.624869e-001 
-2.779928e-001 
-3.957692e-001 
-4.821342e-001 
-5.187739e-001 
-4.941661e-001 
-4.226938e-001 
-3.964915e-001 
-4.867166e-001 
-5.728406e-001 
-5.910209e-001 
-5.479286e-001 
-4.626677e-001 
-3.689088e-001 
-2.903474e-001 
-2.607763e-001 
-2.886091e-001 
-2.960540e-001 
-2.126908e-001 
-7.742086e-002 
7.677332e-002 
2.122171e-001 
3.106231e-001 
3.725949e-001 
4.079492e-001 
4.419339e-001 
4.813572e-001 
5.215397e-001 
5.647582e-001 
6.146240e-001 
6.644831e-001 
7.129833e-001 
7.611728e-001 
8.109086e-001 
8.596826e-001 
8.973323e-001 
9.239249e-001 
9.400094e-001 
9.404559e-001 
9.247767e-001 
8.979460e-001 
8.636644e-001 
8.226748e-001 
7.663909e-001 
6.971151e-001 
6.218540e-001 
5.389108e-001 
4.511821e-001 
3.638590e-001 
2.804406e-001 
2.003283e-001 
1.189280e-001 
3.961176e-002 
-2.828515e-002 
-8.628218e-002 
-1.344503e-001 
-1.703516e-001 
-1.933548e-001 
-2.067564e-001 
-2.171235e-001 
-2.234825e-001 
-2.215456e-001 
-2.178993e-001 
-2.169442e-001 
-2.162311e-001 
-2.138153e-001 
-2.099785e-001 
-2.089251e-001 
-2.097903e-001 
-2.078106e-001 
-2.064025e-001 
-2.104038e-001 
-2.155323e-001 
-2.193582e-001 
-2.215298e-001 
-2.247071e-001 
-2.290625e-001 
-2.324159e-001 
-2.352502e-001 
-2.410854e-001 
-2.469962e-001 
-2.496865e-001 
-2.516252e-001 
-2.532018e-001 
-2.538321e-001 
-2.536272e-001 
-2.547659e-001 
-2.567978e-001 
-2.587407e-001 
-2.571624e-001 
-2.547625e-001 
-2.545048e-001 
-2.527178e-001 
-2.491807e-001 
-2.477833e-001 
-2.487807e-001 
-2.490788e-001 
-2.464083e-001 
-2.413560e-001 
-2.392669e-001 
-2.371659e-001 
-2.309482e-001 
-2.246589e-001 
-2.206426e-001 
-2.147546e-001 
-2.032925e-001 
-1.897150e-001 
-1.782926e-001 
-1.684788e-001 
-1.622563e-001 
-1.587808e-001 
-1.563853e-001 
-1.540022e-001 
-1.484180e-001 
-1.447850e-001 
-1.473131e-001 
-1.484716e-001 
-1.517181e-001 
-1.614152e-001 
-1.626675e-001 
-1.409703e-001 
-7.984953e-002 
-3.584739e-002 
-7.808231e-002 
-1.765282e-001 
-2.925416e-001 
-3.872994e-001 
-4.350750e-001 
-4.334147e-001 
-3.705517e-001 
-3.065064e-001 
-3.531387e-001 
-4.543842e-001 
-5.047350e-001 
-4.910498e-001 
-4.134181e-001 
-3.228888e-001 
-2.460981e-001 
-1.976609e-001 
-2.127579e-001 
-2.479232e-001 
-2.106246e-001 
-1.019599e-001 
4.048542e-002 
1.788653e-001 
2.782542e-001 
3.459356e-001 
3.857155e-001 
4.148471e-001 
4.485038e-001 
4.844768e-001 
5.221693e-001 
5.640832e-001 
6.105273e-001 
6.585330e-001 
7.052604e-001 
7.525514e-001 
8.014724e-001 
8.464407e-001 
8.821846e-001 
9.067590e-001 
9.195917e-001 
9.177166e-001 
9.006143e-001 
8.756567e-001 
8.430752e-001 
7.985952e-001 
7.407985e-001 
6.697752e-001 
5.901732e-001 
5.070074e-001 
4.182840e-001 
3.319371e-001 
2.507613e-001 
1.670325e-001 
8.324851e-002 
2.997258e-003 
-6.913334e-002 
-1.266253e-001 
-1.726886e-001 
-2.089906e-001 
-2.301312e-001 
-2.444158e-001 
-2.559164e-001 
-2.622861e-001 
-2.630541e-001 
-2.582091e-001 
-2.527723e-001 
-2.488784e-001 
-2.436263e-001 
-2.375587e-001 
-2.349571e-001 
-2.333299e-001 
-2.297700e-001 
-2.232067e-001 
-2.190309e-001 
-2.180446e-001 
-2.160409e-001 
-2.150413e-001 
-2.158692e-001 
-2.173655e-001 
-2.161725e-001 
-2.120902e-001 
-2.094072e-001 
-2.095607e-001 
-2.073886e-001 
-2.046609e-001 
-2.042981e-001 
-2.031635e-001 
-1.993454e-001 
-1.932716e-001 
-1.899085e-001 
-1.879406e-001 
-1.834793e-001 
-1.791323e-001 
-1.780458e-001 
-1.762434e-001 
-1.719488e-001 
-1.682355e-001 
-1.666518e-001 
-1.654858e-001 
-1.622112e-001 
-1.602922e-001 
-1.620238e-001 
-1.638848e-001 
-1.632933e-001 
-1.631712e-001 
-1.650244e-001 
-1.643731e-001 
-1.606498e-001 
-1.594451e-001 
-1.586572e-001 
-1.550373e-001 
-1.486759e-001 
-1.401301e-001 
-1.332061e-001 
-1.313373e-001 
-1.307195e-001 
-1.325735e-001 
-1.349750e-001 
-1.341925e-001 
-1.356721e-001 
-1.391611e-001 
-1.434643e-001 
-1.520356e-001 
-1.639153e-001 
-1.704083e-001 
-1.561585e-001 
-1.020515e-001 
-5.427405e-002 
-9.357026e-002 
-1.956711e-001 
-3.265493e-001 
-4.442576e-001 
-5.126769e-001 
-5.275096e-001 
-4.751462e-001 
-4.059007e-001 
-4.389259e-001 
-5.480094e-001 
-6.073797e-001 
-6.073055e-001 
-5.373318e-001 
-4.388610e-001 
-3.485643e-001 
-2.853044e-001 
-2.854694e-001 
-3.218795e-001 
-2.923901e-001 
-1.774115e-001 
-2.476443e-002 
1.340686e-001 
2.537990e-001 
3.376259e-001 
3.889734e-001 
4.203036e-001 
4.518935e-001 
4.920946e-001 
5.348739e-001 
5.764154e-001 
6.198507e-001 
6.683512e-001 
7.207826e-001 
7.699451e-001 
8.167742e-001 
8.648157e-001 
9.066210e-001 
9.327161e-001 
9.428806e-001 
9.421270e-001 
9.306308e-001 
9.039431e-001 
8.668723e-001 
8.239783e-001 
7.704609e-001 
7.013838e-001 
6.194125e-001 
5.334014e-001 
4.484165e-001 
3.596468e-001 
2.708836e-001 
1.885849e-001 
1.076464e-001 
2.612307e-002 
-5.098441e-002 
-1.154081e-001 
-1.642739e-001 
-2.028008e-001 
-2.311772e-001 
-2.469866e-001 
-2.569603e-001 
-2.663300e-001 
-2.728783e-001 
-2.739985e-001 
-2.718004e-001 
-2.718650e-001 
-2.719517e-001 
-2.684576e-001 
-2.672432e-001 
-2.686469e-001 
-2.700687e-001 
-2.685684e-001 
-2.671649e-001 
-2.685008e-001 
-2.701601e-001 
-2.689366e-001 
-2.699988e-001 
-2.745799e-001 
-2.768556e-001 
-2.776971e-001 
-2.772957e-001 
-2.792915e-001 
-2.799456e-001 
-2.775001e-001 
-2.758159e-001 
-2.788866e-001 
-2.805113e-001 
-2.781947e-001 
-2.761117e-001 
-2.757113e-001 
-2.755922e-001 
-2.725560e-001 
-2.699926e-001 
-2.711594e-001 
-2.732501e-001 
-2.694819e-001 
-2.642953e-001 
-2.621077e-001 
-2.604875e-001 
-2.565423e-001 
-2.539813e-001 
-2.540126e-001 
-2.544440e-001 
-2.508191e-001 
-2.443959e-001 
-2.402215e-001 
-2.353162e-001 
-2.274312e-001 
-2.198606e-001 
-2.118301e-001 
-2.004941e-001 
-1.873767e-001 
-1.721355e-001 
-1.627832e-001 
-1.588638e-001 
-1.537130e-001 
-1.493575e-001 
-1.462558e-001 
-1.421033e-001 
-1.407621e-001 
-1.399672e-001 
-1.402653e-001 
-1.482908e-001 
-1.551567e-001 
-1.444869e-001 
-1.054988e-001 
-4.248706e-002 
-4.051981e-002 
-1.221171e-001 
-2.386665e-001 
-3.648287e-001 
-4.567260e-001 
-4.878733e-001 
-4.541074e-001 
-3.767409e-001 
-3.516430e-001 
-4.415029e-001 
-5.220884e-001 
-5.386013e-001 
-4.959799e-001 
-3.961837e-001 
-2.871333e-001 
-2.041667e-001 
-1.744204e-001 
-1.982390e-001 
-1.992338e-001 
-1.075295e-001 
3.937180e-002 
2.082555e-001 
3.567525e-001 
4.594345e-001 
5.251891e-001 
5.678544e-001 
6.049393e-001 
6.450819e-001 
6.931588e-001 
7.436683e-001 
7.949980e-001 
8.487597e-001 
9.080660e-001 
9.706068e-001 
1.028535e+000 
1.084000e+000 
1.138480e+000 
1.182134e+000 
1.208818e+000 
1.220589e+000 
1.219557e+000 
1.205641e+000 
1.174826e+000 
1.132492e+000 
1.084604e+000 
1.023486e+000 
9.456143e-001 
8.576094e-001 
7.654555e-001 
6.719194e-001 
5.759935e-001 
4.805622e-001 
3.919018e-001 
3.052700e-001 
2.186806e-001 
1.409761e-001 
7.746876e-002 
2.835054e-002 
-7.681981e-003 
-3.324068e-002 
-4.755517e-002 
-5.511979e-002 
-6.199202e-002 
-6.534750e-002 
-6.326156e-002 
-6.051144e-002 
-5.733067e-002 
-5.305779e-002 
-4.807769e-002 
-4.215829e-002 
-3.860087e-002 
-3.624238e-002 
-3.188172e-002 
-2.785178e-002 
-2.662544e-002 
-2.368314e-002 
-2.069290e-002 
-1.929148e-002 
-1.891363e-002 
-2.047672e-002 
-2.084625e-002 
-1.947848e-002 
-2.058518e-002 
-2.111577e-002 
-1.957089e-002 
-2.117278e-002 
-2.406113e-002 
-2.672068e-002 
-2.885271e-002 
-3.022426e-002 
-3.355613e-002 
-3.581408e-002 
-3.476509e-002 
-3.620922e-002 
-3.956862e-002 
-4.064380e-002 
-4.036776e-002 
-4.047016e-002 
-4.235738e-002 
-4.229502e-002 
-3.842011e-002 
-3.730043e-002 
-3.832929e-002 
-3.604108e-002 
-2.995823e-002 
-2.324595e-002 
-1.457460e-002 
-2.580834e-003 
1.149880e-002 
2.428001e-002 
3.357377e-002 
3.837997e-002 
4.437939e-002 
5.336398e-002 
6.194753e-002 
7.284717e-002 
8.072154e-002 
8.601509e-002 
9.154930e-002 
9.245664e-002 
9.277311e-002 
1.084164e-001 
1.480029e-001 
2.241628e-001 
2.771931e-001 
2.533712e-001 
1.823180e-001 
8.306482e-002 
5.769395e-003 
-1.966673e-002 
1.165025e-005 
7.922586e-002 
1.576431e-001 
1.306963e-001 
6.640888e-002 
3.938586e-002 
6.448389e-002 
1.638872e-001 
2.722906e-001 
3.631648e-001 
4.331955e-001 
4.400306e-001 
4.233040e-001 
4.713193e-001 
5.794666e-001 
7.285965e-001 
8.750170e-001 
9.777800e-001 
1.052034e+000 
1.097422e+000 
1.122062e+000 
1.142522e+000 
1.166670e+000 
1.195605e+000 
1.225874e+000 
1.253826e+000 
1.284967e+000 
1.314704e+000 
1.341535e+000 
1.367668e+000 
1.392900e+000 
1.414613e+000 
1.424893e+000 
1.421300e+000 
1.406890e+000 
1.380813e+000 
1.341534e+000 
1.293009e+000 
1.238505e+000 
1.177533e+000 
1.104935e+000 
1.022105e+000 
9.358822e-001 
8.457507e-001 
7.527128e-001 
6.615689e-001 
5.740385e-001 
4.922669e-001 
4.118821e-001 
3.368621e-001 
2.727159e-001 
2.183832e-001 
1.717185e-001 
1.366370e-001 
1.136463e-001 
9.823277e-002 
8.359906e-002 
7.139673e-002 
6.522278e-002 
5.780251e-002 
4.888377e-002 
4.075247e-002 
3.649344e-002 
3.303257e-002 
2.487579e-002 
1.572049e-002 
1.217146e-002 
5.599180e-003 
-5.003080e-003 
-1.428879e-002 
-2.177066e-002 
-2.950979e-002 
-4.077211e-002 
-5.088436e-002 
-5.706445e-002 
-6.497115e-002 
-7.696350e-002 
-8.700702e-002 
-9.439702e-002 
-1.002612e-001 
-1.097123e-001 
-1.167540e-001 
-1.187821e-001 
-1.238355e-001 
-1.323931e-001 
-1.390683e-001 
-1.405237e-001 
-1.386808e-001 
-1.383585e-001 
-1.357379e-001 
-1.258305e-001 
-1.187241e-001 
-1.151615e-001 
-1.130610e-001 
-1.118242e-001 
-1.111667e-001 
-1.116108e-001 
-1.116112e-001 
-1.091136e-001 
-1.128563e-001 
-1.215297e-001 
-1.287963e-001 
-1.387722e-001 
-1.490451e-001 
-1.491108e-001 
-1.246558e-001 
-7.008401e-002 
-5.633090e-002 
-1.215281e-001 
-2.261762e-001 
-3.406583e-001 
-4.276494e-001 
-4.694084e-001 
-4.606601e-001 
-3.999650e-001 
-3.619761e-001 
-4.301794e-001 
-5.170166e-001 
-5.483654e-001 
-5.203808e-001 
-4.438851e-001 
-3.592734e-001 
-2.865159e-001 
-2.485131e-001 
-2.672950e-001 
-2.872484e-001 
-2.288309e-001 
-1.097298e-001 
3.259442e-002 
1.613142e-001 
2.571470e-001 
3.212529e-001 
3.587858e-001 
3.872356e-001 
4.212015e-001 
4.629236e-001 
5.044495e-001 
5.478692e-001 
5.965768e-001 
6.467858e-001 
6.948187e-001 
7.413204e-001 
7.879733e-001 
8.325109e-001 
8.630437e-001 
8.778421e-001 
8.812450e-001 
8.705772e-001 
8.438641e-001 
8.052435e-001 
7.593168e-001 
7.059856e-001 
6.385882e-001 
5.579165e-001 
4.714042e-001 
3.805743e-001 
2.870354e-001 
1.925797e-001 
1.026352e-001 
1.679765e-002 
-6.781831e-002 
-1.472783e-001 
-2.141094e-001 
-2.710062e-001 
-3.150447e-001 
-3.462700e-001 
-3.670200e-001 
-3.787547e-001 
-3.870944e-001 
-3.907573e-001 
-3.886413e-001 
-3.875614e-001 
-3.883020e-001 
-3.863366e-001 
-3.847193e-001 
-3.821338e-001 
-3.814887e-001 
-3.801782e-001 
-3.758971e-001 
-3.741847e-001 
-3.759862e-001 
-3.761560e-001 
-3.756025e-001 
-3.745860e-001 
-3.745160e-001 
-3.749732e-001 
-3.717571e-001 
-3.687328e-001 
-3.681080e-001 
-3.671551e-001 
-3.624933e-001 
-3.573959e-001 
-3.531371e-001 
-3.478043e-001 
-3.396009e-001 
-3.308786e-001 
-3.248580e-001 
-3.198593e-001 
-3.117529e-001 
-3.012328e-001 
-2.924298e-001 
-2.833544e-001 
-2.706756e-001 
-2.564919e-001 
-2.446776e-001 
-2.335834e-001 
-2.200812e-001 
-2.090042e-001 
-2.025299e-001 
-1.964273e-001 
-1.895390e-001 
-1.816988e-001 
-1.778979e-001 
-1.777088e-001 
-1.748733e-001 
-1.745798e-001 
-1.810537e-001 
-1.838060e-001 
-1.726949e-001 
-1.401924e-001 
-1.064345e-001 
-1.199612e-001 
-1.758946e-001 
-2.602008e-001 
-3.506700e-001 
-4.158037e-001 
-4.444982e-001 
-4.273714e-001 
-3.900383e-001 
-4.022715e-001 
-4.649970e-001 
-5.151941e-001 
-5.366495e-001 
-5.095629e-001 
-4.514180e-001 
-3.893913e-001 
-3.383006e-001 
-3.247442e-001 
-3.390494e-001 
-3.246337e-001 
-2.619796e-001 
-1.626932e-001 
-4.387664e-002 
5.705466e-002 
1.328467e-001 
1.875146e-001 
2.286075e-001 
2.645813e-001 
3.000781e-001 
3.401994e-001 
3.874700e-001 
4.349054e-001 
4.812833e-001 
5.298745e-001 
5.815382e-001 
6.314788e-001 
6.749087e-001 
7.130327e-001 
7.444359e-001 
7.597230e-001 
7.570864e-001 
7.432151e-001 
7.192687e-001 
6.858191e-001 
6.414887e-001 
5.860499e-001 
5.208394e-001 
4.438758e-001 
3.553630e-001 
2.655808e-001 
1.802172e-001 
9.664465e-002 
1.241011e-002 
-6.835289e-002 
-1.443330e-001 
-2.154667e-001 
-2.787648e-001 
-3.302271e-001 
-3.650802e-001 
-3.871767e-001 
-4.056598e-001 
-4.183020e-001 
-4.223700e-001 
-4.248601e-001 
-4.267629e-001 
-4.270114e-001 
-4.248433e-001 
-4.205152e-001 
-4.192143e-001 
-4.205398e-001 
-4.180646e-001 
-4.164268e-001 
-4.178947e-001 
-4.203442e-001 
-4.208089e-001 
-4.200498e-001 
-4.207309e-001 
-4.233955e-001 
-4.231784e-001 
-4.223100e-001 
-4.248477e-001 
-4.276497e-001 
-4.276628e-001 
-4.254868e-001 
-4.262103e-001 
-4.261999e-001 
-4.236587e-001 
-4.209429e-001 
-4.221231e-001 
-4.229606e-001 
-4.196899e-001 
-4.147332e-001 
-4.132246e-001 
-4.108711e-001 
-4.040439e-001 
-3.997583e-001 
-3.985299e-001 
-3.929863e-001 
-3.814392e-001 
-3.691153e-001 
-3.657085e-001 
-2.535027e-001 
-2.488264e-001 
-2.500840e-001 
-2.006964e-001 
-2.035930e-001 
-1.908587e-001 
-1.832909e-001 
-2.035698e-001 
-1.296851e-001 
-7.165376e-002 
-2.172673e-001 
-1.617398e-001 
-1.575621e-001 
-2.056892e-001 
-2.034458e-001 
-2.180456e-001 
-2.276263e-001 
-2.057779e-001 
-2.583135e-001 
-2.519215e-001 
-1.538795e-001 
-2.140821e-001 
-2.774969e-001 
-3.701478e-001 
-4.842725e-001 
-5.722655e-001 
-6.067711e-001 
-5.789125e-001 
-5.208705e-001 
-5.374059e-001 
-6.218092e-001 
-6.757402e-001 
-6.989065e-001 
-6.917796e-001 
-6.156356e-001 
-5.251428e-001 
-4.581015e-001 
-4.409521e-001 
-4.712669e-001 
-4.644729e-001 
-3.867418e-001 
-2.710722e-001 
-1.243430e-001 
2.286611e-002 
1.274698e-001 
1.980312e-001 
2.390778e-001 
2.638484e-001 
2.887892e-001 
3.189415e-001 
3.529283e-001 
3.916759e-001 
4.326879e-001 
4.756542e-001 
5.228605e-001 
5.708462e-001 
6.156011e-001 
6.608561e-001 
7.052585e-001 
7.432001e-001 
7.698263e-001 
7.796248e-001 
7.759109e-001 
7.609886e-001 
7.309414e-001 
6.903470e-001 
6.489382e-001 
5.964262e-001 
5.285956e-001 
4.496835e-001 
3.660070e-001 
2.806907e-001 
1.936205e-001 
1.062812e-001 
2.699650e-002 
-4.759474e-002 
-1.258985e-001 
-1.979000e-001 
-2.557297e-001 
-3.003945e-001 
-3.362463e-001 
-3.605189e-001 
-3.733066e-001 
-3.782813e-001 
-3.840732e-001 
-3.877132e-001 
-3.855185e-001 
-3.827749e-001 
-3.837341e-001 
-3.848332e-001 
-3.819112e-001 
-3.790154e-001 
-3.800847e-001 
-3.825050e-001 
-3.812207e-001 
-3.823497e-001 
-3.883884e-001 
-3.935707e-001 
-3.947253e-001 
-3.966184e-001 
-4.020767e-001 
-4.075706e-001 
-4.092744e-001 
-4.117963e-001 
-4.183421e-001 
-4.225716e-001 
-4.219369e-001 
-4.223686e-001 
-4.251770e-001 
-4.248088e-001 
-4.200856e-001 
-4.153465e-001 
-4.092247e-001 
-3.996738e-001 
-3.882391e-001 
-3.780327e-001 
-3.718878e-001 
-3.685645e-001 
-3.651075e-001 
-3.624728e-001 
-3.595597e-001 
-3.553287e-001 
-3.554309e-001 
-3.582010e-001 
-3.602582e-001 
-3.655072e-001 
-3.737574e-001 
-3.757863e-001 
-3.590522e-001 
-3.051738e-001 
-2.576731e-001 
-2.913651e-001 
-3.816318e-001 
-5.021899e-001 
-6.126499e-001 
-6.740107e-001 
-6.845258e-001 
-6.300241e-001 
-5.592162e-001 
-5.889822e-001 
-6.895312e-001 
-7.476403e-001 
-7.539639e-001 
-6.868783e-001 
-5.914710e-001 
-5.046323e-001 
-4.426899e-001 
-4.465785e-001 
-4.849636e-001 
-4.586077e-001 
-3.541255e-001 
-2.099848e-001 
-5.572534e-002 
6.001114e-002 
1.413780e-001 
1.894525e-001 
2.220048e-001 
2.592820e-001 
3.020132e-001 
3.453098e-001 
3.916508e-001 
4.426371e-001 
4.928816e-001 
5.428944e-001 
5.935799e-001 
6.441516e-001 
6.872517e-001 
7.155154e-001 
7.276865e-001 
7.293577e-001 
7.151598e-001 
6.863464e-001 
6.516398e-001 
6.098084e-001 
5.558941e-001 
4.870277e-001 
4.066034e-001 
3.226182e-001 
2.380511e-001 
1.506806e-001 
6.651087e-002 
-1.538129e-002 
-9.599655e-002 
-1.711741e-001 
-2.372003e-001 
-2.876531e-001 
-3.286969e-001 
-3.591126e-001 
-3.756341e-001 
-3.864657e-001 
-3.946482e-001 
-3.926866e-001 
-3.840181e-001 
-3.743803e-001 
-3.701354e-001 
-3.741433e-001 
-3.696811e-001 
-3.643951e-001 
-3.656073e-001 
-3.638774e-001 
-3.569136e-001 
-3.557144e-001 
-3.605982e-001 
-3.690292e-001 
-3.740053e-001 
-3.744415e-001 
-3.784333e-001 
-3.821877e-001 
-3.830326e-001 
-3.836066e-001 
-3.869510e-001 
-3.866516e-001 
-3.839221e-001 
-3.822480e-001 
-3.809032e-001 
-3.780975e-001 
-3.764268e-001 
-3.748988e-001 
-3.710452e-001 
-3.641205e-001 
-3.513051e-001 
-3.394854e-001 
-3.276652e-001 
-3.142228e-001 
-3.078751e-001 
-3.078684e-001 
-3.031658e-001 
-2.967538e-001 
-2.922216e-001 
-2.872019e-001 
-2.854403e-001 
-2.829729e-001 
-2.868177e-001 
-2.957023e-001 
-2.780397e-001 
-2.130998e-001 
-1.828926e-001 
-2.320799e-001 
-3.241932e-001 
-4.425391e-001 
-5.388029e-001 
-5.923122e-001 
-5.961751e-001 
-5.291833e-001 
-4.724248e-001 
-5.329834e-001 
-6.182553e-001 
-6.568298e-001 
-6.450231e-001 
-5.650385e-001 
-4.710090e-001 
-3.889284e-001 
-3.380105e-001 
-3.508085e-001 
-3.735333e-001 
-3.211806e-001 
-2.083467e-001 
-6.114566e-002 
7.975957e-002 
1.809043e-001 
2.496501e-001 
2.905196e-001 
3.212239e-001 
3.526428e-001 
3.918724e-001 
4.376091e-001 
4.815703e-001 
5.265755e-001 
5.775100e-001 
6.290447e-001 
6.782799e-001 
7.241287e-001 
7.689131e-001 
8.120301e-001 
8.439066e-001 
8.582805e-001 
8.597090e-001 
8.499521e-001 
8.243905e-001 
7.862126e-001 
7.392935e-001 
6.878986e-001 
6.270736e-001 
5.511676e-001 
4.656203e-001 
3.797007e-001 
2.937462e-001 
2.060657e-001 
1.218122e-001 
4.443241e-002 
-2.724342e-002 
-9.836885e-002 
-1.623282e-001 
-2.113493e-001 
-2.471604e-001 
-2.734111e-001 
-2.905301e-001 
-2.973890e-001 
-2.982845e-001 
-2.992409e-001 
-2.976647e-001 
-2.917124e-001 
-2.864327e-001 
-2.855290e-001 
-2.851044e-001 
-2.821699e-001 
-2.773599e-001 
-2.763537e-001 
-2.757143e-001 
-2.722644e-001 
-2.723237e-001 
-2.766524e-001 
-2.818336e-001 
-2.826204e-001 
-2.810806e-001 
-2.825714e-001 
-2.859268e-001 
-2.850233e-001 
-2.848578e-001 
-2.881652e-001 
-2.921618e-001 
-2.917327e-001 
-2.886172e-001 
-2.886911e-001 
-2.894008e-001 
-2.864530e-001 
-2.829474e-001 
-2.825264e-001 
-2.824353e-001 
-2.797489e-001 
-2.750368e-001 
-2.739300e-001 
-2.719260e-001 
-2.671646e-001 
-2.601146e-001 
-2.549355e-001 
-2.499139e-001 
-2.378128e-001 
-2.227991e-001 
-2.120917e-001 
-2.000144e-001 
-1.882188e-001 
-1.837290e-001 
-1.812004e-001 
-1.810368e-001 
-1.752146e-001 
-1.651603e-001 
-1.652026e-001 
-1.697805e-001 
-1.704480e-001 
-1.780185e-001 
-1.889435e-001 
-1.935487e-001 
-1.784634e-001 
-1.297908e-001 
-7.334569e-002 
-9.054335e-002 
-1.764058e-001 
-2.961835e-001 
-4.127836e-001 
-4.811640e-001 
-4.927569e-001 
-4.439821e-001 
-3.730277e-001 
-3.756465e-001 
-4.743114e-001 
-5.508060e-001 
-5.674948e-001 
-5.107510e-001 
-4.127302e-001 
-3.181979e-001 
-2.568951e-001 
-2.534683e-001 
-2.877794e-001 
-2.816189e-001 
-1.909950e-001 
-5.112140e-002 
1.064395e-001 
2.320585e-001 
3.140391e-001 
3.606994e-001 
3.960751e-001 
4.324988e-001 
4.703815e-001 
5.109313e-001 
5.561592e-001 
6.058415e-001 
6.527126e-001 
6.982443e-001 
7.476518e-001 
7.966811e-001 
8.394579e-001 
8.740982e-001 
8.978009e-001 
9.101009e-001 
9.054507e-001 
8.876478e-001 
8.643976e-001 
8.326613e-001 
7.889196e-001 
7.331434e-001 
6.674189e-001 
5.943824e-001 
5.137302e-001 
4.317031e-001 
3.547392e-001 
2.785267e-001 
2.006157e-001 
1.245854e-001 
5.414187e-002 
-8.169636e-003 
-6.348829e-002 
-1.080818e-001 
-1.363701e-001 
-1.569370e-001 
-1.725216e-001 
-1.816470e-001 
-1.848486e-001 
-1.853137e-001 
-1.858742e-001 
-1.870609e-001 
-1.842245e-001 
-1.810534e-001 
-1.823555e-001 
-1.833535e-001 
-1.845082e-001 
-1.857965e-001 
-1.889564e-001 
-1.917028e-001 
-1.927802e-001 
-1.934459e-001 
-1.978838e-001 
-2.038937e-001 
-2.079847e-001 
-2.107241e-001 
-2.141481e-001 
-2.167376e-001 
-2.159434e-001 
-2.166446e-001 
-2.200848e-001 
-2.240350e-001 
-2.243103e-001 
-2.228894e-001 
-2.223400e-001 
-2.208997e-001 
-2.160196e-001 
-2.128215e-001 
-2.132769e-001 
-2.139506e-001 
-2.108162e-001 
-2.053657e-001 
-2.026514e-001 
-1.992340e-001 
-1.938739e-001 
-1.903909e-001 
-1.900858e-001 
-1.883948e-001 
-1.823655e-001 
-1.726265e-001 
-1.648648e-001 
-1.546140e-001 
-1.408627e-001 
-1.289594e-001 
-1.194024e-001 
-1.124028e-001 
-1.078227e-001 
-1.023302e-001 
-9.799287e-002 
-9.344306e-002 
-8.746921e-002 
-8.763156e-002 
-9.073326e-002 
-9.533794e-002 
-1.032797e-001 
-1.099569e-001 
-1.004867e-001 
-6.404645e-002 
-2.959956e-004 
2.432966e-003 
-7.888424e-002 
-1.957180e-001 
-3.193645e-001 
-4.063809e-001 
-4.356423e-001 
-4.035556e-001 
-3.281650e-001 
-3.031084e-001 
-3.975032e-001 
-4.834998e-001 
-5.044845e-001 
-4.652066e-001 
-3.723095e-001 
-2.691459e-001 
-1.911875e-001 
-1.680880e-001 
-2.024910e-001 
-2.142026e-001 
-1.300046e-001 
7.759527e-003 
1.636615e-001 
3.012054e-001 
3.982426e-001 
4.523488e-001 
4.804303e-001 
5.081860e-001 
5.456148e-001 
5.894083e-001 
6.308137e-001 
6.736691e-001 
7.241025e-001 
7.724948e-001 
8.168530e-001 
8.635930e-001 
9.123271e-001 
9.563536e-001 
9.854486e-001 
9.986094e-001 
1.001577e+000 
9.911004e-001 
9.634778e-001 
9.287960e-001 
8.893298e-001 
8.393860e-001 
7.736975e-001 
6.972194e-001 
6.151197e-001 
5.298560e-001 
4.409132e-001 
3.528971e-001 
2.707385e-001 
1.907807e-001 
1.103681e-001 
3.694017e-002 
-2.402099e-002 
-7.562338e-002 
-1.166276e-001 
-1.459230e-001 
-1.627312e-001 
-1.722478e-001 
-1.796181e-001 
-1.829839e-001 
-1.806012e-001 
-1.789646e-001 
-1.795306e-001 
-1.790080e-001 
-1.756805e-001 
-1.720796e-001 
-1.725544e-001 
-1.732661e-001 
-1.711397e-001 
-1.699846e-001 
-1.734142e-001 
-1.780658e-001 
-1.798291e-001 
-1.800193e-001 
-1.835907e-001 
-1.877804e-001 
-1.880870e-001 
-1.885835e-001 
-1.924784e-001 
-1.982609e-001 
-2.003018e-001 
-1.984202e-001 
-1.991061e-001 
-2.022541e-001 
-2.002659e-001 
-1.982656e-001 
-1.998703e-001 
-2.025038e-001 
-2.026501e-001 
-1.990214e-001 
-1.960400e-001 
-1.969696e-001 
-1.964074e-001 
-1.926007e-001 
-1.929960e-001 
-1.944890e-001 
-1.929648e-001 
-1.890093e-001 
-1.862531e-001 
-1.851330e-001 
-1.843466e-001 
-1.801887e-001 
-1.751272e-001 
-1.728419e-001 
-1.662318e-001 
-1.529151e-001 
-1.419253e-001 
-1.320257e-001 
-1.191644e-001 
-1.106925e-001 
-1.090955e-001 
-1.100039e-001 
-1.085700e-001 
-1.015066e-001 
-9.846092e-002 
-1.030837e-001 
-1.028815e-001 
-1.042841e-001 
-1.165242e-001 
-1.266524e-001 
-1.106371e-001 
-5.832321e-002 
-3.756481e-003 
-2.712184e-002 
-1.169162e-001 
-2.366827e-001 
-3.503677e-001 
-4.158157e-001 
-4.190843e-001 
-3.620566e-001 
-2.922751e-001 
-3.054583e-001 
-4.040322e-001 
-4.716973e-001 
-4.808659e-001 
-4.170054e-001 
-3.146480e-001 
-2.217038e-001 
-1.697063e-001 
-1.728927e-001 
-2.078839e-001 
-1.946007e-001 
-1.003868e-001 
3.837355e-002 
1.901101e-001 
3.050968e-001 
3.751950e-001 
4.143674e-001 
4.448119e-001 
4.755145e-001 
5.105441e-001 
5.493291e-001 
5.943123e-001 
6.415944e-001 
6.878980e-001 
7.370727e-001 
7.883806e-001 
8.359299e-001 
8.800623e-001 
9.166109e-001 
9.437363e-001 
9.575180e-001 
9.521738e-001 
9.359498e-001 
9.125419e-001 
8.769819e-001 
8.288988e-001 
7.696755e-001 
7.007351e-001 
6.234641e-001 
5.359273e-001 
4.465828e-001 
3.614796e-001 
2.772192e-001 
1.907447e-001 
1.060607e-001 
2.908295e-002 
-3.941918e-002 
-1.005933e-001 
-1.493070e-001 
-1.829784e-001 
-2.061591e-001 
-2.228477e-001 
-2.349917e-001 
-2.394861e-001 
-2.390262e-001 
-2.393014e-001 
-2.391094e-001 
-2.365164e-001 
-2.346388e-001 
-2.334743e-001 
-2.333703e-001 
-2.328775e-001 
-2.302962e-001 
-2.294754e-001 
-2.304124e-001 
-2.305023e-001 
-2.316932e-001 
-2.351590e-001 
-2.387575e-001 
-2.415586e-001 
-2.422791e-001 
-2.430027e-001 
-2.448942e-001 
-2.449874e-001 
-2.446138e-001 
-2.471287e-001 
-2.493435e-001 
-2.484071e-001 
-2.457151e-001 
-2.441005e-001 
-2.446877e-001 
-2.434764e-001 
-2.410482e-001 
-2.407265e-001 
-2.414651e-001 
-2.387109e-001 
-2.339337e-001 
-2.311537e-001 
-2.298599e-001 
-2.266053e-001 
-2.218136e-001 
-2.188960e-001 
-2.174065e-001 
-2.151587e-001 
-2.107904e-001 
-2.077095e-001 
-2.029342e-001 
-1.950218e-001 
-1.854162e-001 
-1.749254e-001 
-1.656047e-001 
-1.550723e-001 
-1.426773e-001 
-1.362801e-001 
-1.344247e-001 
-1.295063e-001 
-1.254337e-001 
-1.224348e-001 
-1.224666e-001 
-1.259810e-001 
-1.261626e-001 
-1.303773e-001 
-1.412470e-001 
-1.444993e-001 
-1.264039e-001 
-7.889136e-002 
-2.708603e-002 
-4.368916e-002 
-1.245946e-001 
-2.366121e-001 
-3.578812e-001 
-4.398925e-001 
-4.635957e-001 
-4.244830e-001 
-3.604688e-001 
-3.686511e-001 
-4.601184e-001 
-5.264672e-001 
-5.451078e-001 
-5.068909e-001 
-4.174477e-001 
-3.246865e-001 
-2.593871e-001 
-2.513897e-001 
-2.824779e-001 
-2.737848e-001 
-1.868893e-001 
-5.411932e-002 
1.011084e-001 
2.338093e-001 
3.236132e-001 
3.775722e-001 
4.128277e-001 
4.452980e-001 
4.785593e-001 
5.208245e-001 
5.670148e-001 
6.132673e-001 
6.586931e-001 
7.065298e-001 
7.585351e-001 
8.096817e-001 
8.561093e-001 
9.012377e-001 
9.379738e-001 
9.564862e-001 
9.586620e-001 
9.485132e-001 
9.309002e-001 
9.023537e-001 
8.637461e-001 
8.168516e-001 
7.582946e-001 
6.851636e-001 
6.016806e-001 
5.160806e-001 
4.334844e-001 
3.508787e-001 
2.695320e-001 
1.915604e-001 
1.137595e-001 
4.105021e-002 
-2.377210e-002 
-7.620446e-002 
-1.138954e-001 
-1.423952e-001 
-1.607285e-001 
-1.694600e-001 
-1.771784e-001 
-1.808409e-001 
-1.793469e-001 
-1.766716e-001 
-1.729440e-001 
-1.729681e-001 
-1.724939e-001 
-1.661905e-001 
-1.629312e-001 
-1.633010e-001 
-1.626710e-001 
-1.609883e-001 
-1.621847e-001 
-1.670666e-001 
-1.700821e-001 
-1.684303e-001 
-1.673666e-001 
-1.711141e-001 
-1.768372e-001 
-1.801083e-001 
-1.818964e-001 
-1.870425e-001 
-1.882146e-001 
-1.862482e-001 
-1.874068e-001 
-1.905598e-001 
-1.940094e-001 
-1.960101e-001 
-1.942390e-001 
-1.952649e-001 
-1.948694e-001 
-1.902071e-001 
-1.893988e-001 
-1.889432e-001 
-1.864435e-001 
-1.831384e-001 
-1.787478e-001 
-1.753625e-001 
-1.732513e-001 
-1.658210e-001 
-1.595273e-001 
-1.558225e-001 
-1.485806e-001 
-1.386061e-001 
-1.271617e-001 
-1.143262e-001 
-1.013696e-001 
-8.732798e-002 
-7.129762e-002 
-6.189176e-002 
-5.890200e-002 
-5.427861e-002 
-4.779934e-002 
-4.285830e-002 
-4.001588e-002 
-3.923435e-002 
-3.855180e-002 
-4.017580e-002 
-5.093462e-002 
-6.283645e-002 
-5.821534e-002 
-2.732296e-002 
3.115460e-002 
4.459673e-002 
-2.395792e-002 
-1.345344e-001 
-2.580348e-001 
-3.485588e-001 
-3.809060e-001 
-3.538978e-001 
-2.780898e-001 
-2.385739e-001 
-3.134389e-001 
-4.019094e-001 
-4.318322e-001 
-3.998761e-001 
-3.075186e-001 
-2.073177e-001 
-1.280871e-001 
-9.037563e-002 
-1.112697e-001 
-1.247525e-001 
-5.548270e-002 
7.476659e-002 
2.330382e-001 
3.745602e-001 
4.719392e-001 
5.371544e-001 
5.764561e-001 
6.061757e-001 
6.409283e-001 
6.826235e-001 
7.323002e-001 
7.837182e-001 
8.357837e-001 
8.880845e-001 
9.380378e-001 
9.840434e-001 
1.029141e+000 
1.072220e+000 
1.105539e+000 
1.123788e+000 
1.123065e+000 
1.107100e+000 
1.078097e+000 
1.038309e+000 
9.905703e-001 
9.378555e-001 
8.747997e-001 
7.979367e-001 
7.117161e-001 
6.233193e-001 
5.361824e-001 
4.496539e-001 
3.636252e-001 
2.832470e-001 
2.089116e-001 
1.358571e-001 
7.072191e-002 
2.107244e-002 
-1.679662e-002 
-4.840430e-002 
-7.252508e-002 
-8.943457e-002 
-1.011830e-001 
-1.162035e-001 
-1.329026e-001 
-1.462633e-001 
-1.597344e-001 
-1.790846e-001 
-1.963884e-001 
-2.049376e-001 
-2.108476e-001 
-2.196866e-001 
-2.274442e-001 
-2.275912e-001 
-2.269553e-001 
-2.284047e-001 
-2.287368e-001 
-2.216536e-001 
-2.106027e-001 
-2.034029e-001 
-1.950722e-001 
-1.776797e-001 
-1.608050e-001 
-1.490964e-001 
-1.369089e-001 
-1.247524e-001 
-1.130326e-001 
-1.050049e-001 
-1.005764e-001 
-9.423531e-002 
-9.002149e-002 
-9.152580e-002 
-9.202677e-002 
-8.795307e-002 
-8.243011e-002 
-7.730175e-002 
-7.019095e-002 
-6.025686e-002 
-5.035069e-002 
-4.345494e-002 
-3.488585e-002 
-2.339611e-002 
-1.289868e-002 
-6.373235e-003 
2.370846e-004 
1.027620e-002 
1.721803e-002 
1.616476e-002 
1.306618e-002 
1.398110e-002 
1.185364e-002 
6.394671e-003 
7.777560e-003 
3.235284e-002 
9.022748e-002 
1.319560e-001 
9.823038e-002 
9.789702e-003 
-1.021362e-001 
-1.971792e-001 
-2.438616e-001 
-2.434738e-001 
-1.912208e-001 
-1.402201e-001 
-1.834509e-001 
-2.839264e-001 
-3.437593e-001 
-3.414360e-001 
-2.716503e-001 
-1.832196e-001 
-1.130098e-001 
-7.457675e-002 
-9.122282e-002 
-1.234561e-001 
-9.171451e-002 
9.992040e-003 
1.471142e-001 
2.849037e-001 
3.817933e-001 
4.417750e-001 
4.775848e-001 
5.078620e-001 
5.440565e-001 
5.783889e-001 
6.118941e-001 
6.503762e-001 
6.900965e-001 
7.260740e-001 
7.609590e-001 
7.986178e-001 
8.357008e-001 
8.629122e-001 
8.775819e-001 
8.852026e-001 
8.807111e-001 
8.611227e-001 
8.332427e-001 
8.014225e-001 
7.639134e-001 
7.156699e-001 
6.565623e-001 
5.903461e-001 
5.174740e-001 
4.368089e-001 
3.570582e-001 
2.829159e-001 
2.095616e-001 
1.367297e-001 
6.856872e-002 
7.401838e-003 
-4.835457e-002 
-9.693185e-002 
-1.339701e-001 
-1.576752e-001 
-1.750912e-001 
-1.896360e-001 
-1.982745e-001 
-2.023970e-001 
-2.074114e-001 
-2.147520e-001 
-2.204328e-001 
-2.234413e-001 
-2.260573e-001 
-2.312009e-001 
-2.361492e-001 
-2.391730e-001 
-2.426192e-001 
-2.484440e-001 
-2.542112e-001 
-2.582690e-001 
-2.618341e-001 
-2.669171e-001 
-2.720159e-001 
-2.745562e-001 
-2.767383e-001 
-2.797937e-001 
-2.836612e-001 
-2.856841e-001 
-2.860656e-001 
-2.883671e-001 
-2.900628e-001 
-2.878026e-001 
-2.872332e-001 
-2.895478e-001 
-2.899914e-001 
-2.880373e-001 
-2.832528e-001 
-2.785183e-001 
-2.720580e-001 
-2.616347e-001 
-2.511549e-001 
-2.459176e-001 
-2.452192e-001 
-2.426980e-001 
-2.381539e-001 
-2.345447e-001 
-2.318202e-001 
-2.291196e-001 
-2.303641e-001 
-2.327311e-001 
-2.398904e-001 
-2.485482e-001 
-2.468027e-001 
-2.265732e-001 
-1.713494e-001 
-1.132221e-001 
-1.301016e-001 
-2.153880e-001 
-3.333692e-001 
-4.442141e-001 
-5.064319e-001 
-5.202710e-001 
-4.736647e-001 
-4.027741e-001 
-4.204870e-001 
-5.206584e-001 
-5.921975e-001 
-6.038835e-001 
-5.429956e-001 
-4.522966e-001 
-3.729199e-001 
-3.138122e-001 
-3.146101e-001 
-3.579459e-001 
-3.513409e-001 
-2.627733e-001 
-1.236721e-001 
2.501197e-002 
1.373887e-001 
2.172083e-001 
2.692180e-001 
3.002348e-001 
3.292125e-001 
3.639357e-001 
4.060915e-001 
4.504396e-001 
4.949386e-001 
5.440570e-001 
5.963122e-001 
6.456724e-001 
6.910542e-001 
7.355951e-001 
7.747724e-001 
8.011306e-001 
8.137337e-001 
8.139880e-001 
8.008398e-001 
7.723714e-001 
7.323339e-001 
6.876261e-001 
6.345578e-001 
5.674398e-001 
4.921206e-001 
4.124058e-001 
3.293328e-001 
2.426083e-001 
1.572883e-001 
8.057198e-002 
8.608425e-003 
-6.521347e-002 
-1.321701e-001 
-1.853795e-001 
-2.277431e-001 
-2.606325e-001 
-2.840040e-001 
-2.947309e-001 
-2.969574e-001 
-3.005605e-001 
-3.032694e-001 
-2.992063e-001 
-2.948912e-001 
-2.948526e-001 
-2.948944e-001 
-2.920071e-001 
-2.886083e-001 
-2.884110e-001 
-2.903560e-001 
-2.888192e-001 
-2.868567e-001 
-2.899250e-001 
-2.942307e-001 
-2.943403e-001 
-2.947145e-001 
-2.983256e-001 
-3.010241e-001 
-3.009910e-001 
-3.010277e-001 
-3.033286e-001 
-3.078188e-001 
-3.093180e-001 
-3.076132e-001 
-3.088260e-001 
-3.090809e-001 
-3.053012e-001 
-3.034551e-001 
-3.039409e-001 
-3.045803e-001 
-3.031203e-001 
-2.961105e-001 
-2.896048e-001 
-2.821330e-001 
-2.697452e-001 
-2.594062e-001 
-2.516633e-001 
-2.449177e-001 
-2.404965e-001 
-2.348181e-001 
-2.291646e-001 
-2.243903e-001 
-2.182986e-001 
-2.173043e-001 
-2.206264e-001 
-2.225162e-001 
-2.267048e-001 
-2.314046e-001 
-2.271765e-001 
-1.993157e-001 
-1.370797e-001 
-1.049882e-001 
-1.563971e-001 
-2.579094e-001 
-3.757505e-001 
-4.663070e-001 
-5.072235e-001 
-4.973292e-001 
-4.317468e-001 
-3.808824e-001 
-4.403107e-001 
-5.393172e-001 
-5.837400e-001 
-5.624496e-001 
-4.806080e-001 
-3.890904e-001 
