56
0.7292
1.3514e+003
47.2977
1.031780e-002 
2.738787e-002 
4.333100e-002 
5.956069e-002 
7.560948e-002 
9.147829e-002 
1.076340e-001 
1.226674e-001 
1.444295e-001 
1.773446e-001 
2.016589e-001 
2.200973e-001 
2.395990e-001 
2.589554e-001 
2.797711e-001 
3.058051e-001 
3.419463e-001 
4.040671e-001 
4.892878e-001 
5.671255e-001 
6.210475e-001 
6.522565e-001 
6.753425e-001 
6.995925e-001 
7.277831e-001 
7.662685e-001 
8.217298e-001 
8.642946e-001 
8.604757e-001 
8.261489e-001 
7.995645e-001 
7.888841e-001 
7.802642e-001 
7.643611e-001 
7.378092e-001 
6.917719e-001 
6.171558e-001 
5.274423e-001 
4.498218e-001 
3.964345e-001 
3.535144e-001 
3.135393e-001 
2.761573e-001 
2.403923e-001 
2.056745e-001 
1.731158e-001 
1.388094e-001 
1.050490e-001 
7.355840e-002 
4.255165e-002 
1.274722e-002 
-1.605213e-002 
-4.359775e-002 
-6.926769e-002 
-9.247337e-002 
-1.176901e-001 
-1.456014e-001 
-1.764038e-001 
-2.102240e-001 
-2.463955e-001 
-2.831792e-001 
-3.219693e-001 
-3.617067e-001 
-4.035529e-001 
-4.490583e-001 
-4.958470e-001 
-5.427119e-001 
-5.911118e-001 
-6.396052e-001 
-6.885812e-001 
-7.375649e-001 
-7.858384e-001 
-8.354022e-001 
-8.835609e-001 
-9.273909e-001 
-9.660759e-001 
-9.969200e-001 
-1.017127e+000 
-1.028811e+000 
-1.032449e+000 
-1.030010e+000 
-1.020496e+000 
-1.000187e+000 
-9.682187e-001 
-9.262431e-001 
-8.762207e-001 
-8.202079e-001 
-7.595957e-001 
-6.940141e-001 
-6.226245e-001 
-5.458765e-001 
-4.663943e-001 
-3.881543e-001 
-3.138415e-001 
-2.420757e-001 
-1.724434e-001 
-1.059964e-001 
-4.299828e-002 
1.618110e-002 
6.998727e-002 
1.185521e-001 
1.632148e-001 
2.066767e-001 
2.487616e-001 
2.863286e-001 
3.205853e-001 
3.529741e-001 
3.835503e-001 
4.119519e-001 
4.386265e-001 
4.635788e-001 
4.875261e-001 
5.097180e-001 
5.296906e-001 
5.492723e-001 
5.661737e-001 
5.785263e-001 
5.878878e-001 
5.951909e-001 
6.017637e-001 
6.090556e-001 
6.147914e-001 
6.173341e-001 
6.182378e-001 
6.180573e-001 
6.189538e-001 
6.221803e-001 
6.266487e-001 
6.307263e-001 
6.333927e-001 
6.348631e-001 
6.358943e-001 
6.391311e-001 
6.435678e-001 
6.471752e-001 
6.513336e-001 
6.549678e-001 
6.573521e-001 
6.614592e-001 
6.663226e-001 
6.698888e-001 
6.739516e-001 
6.777757e-001 
6.825818e-001 
6.888836e-001 
6.937424e-001 
6.982482e-001 
7.028209e-001 
7.065669e-001 
7.104303e-001 
7.167745e-001 
7.233910e-001 
7.285413e-001 
7.327686e-001 
7.372431e-001 
7.420067e-001 
7.475011e-001 
7.540050e-001 
7.597715e-001 
7.649371e-001 
7.681100e-001 
7.723827e-001 
7.787499e-001 
7.841629e-001 
7.876674e-001 
7.909385e-001 
7.933268e-001 
7.957194e-001 
7.978839e-001 
7.997529e-001 
8.013770e-001 
7.997719e-001 
7.959974e-001 
7.929991e-001 
7.902513e-001 
7.868979e-001 
7.822592e-001 
7.749010e-001 
7.678338e-001 
7.587537e-001 
7.485017e-001 
7.386015e-001 
7.276471e-001 
7.150137e-001 
7.019795e-001 
6.889265e-001 
6.768624e-001 
6.644897e-001 
6.493633e-001 
6.341366e-001 
6.183734e-001 
6.032323e-001 
5.886562e-001 
5.733765e-001 
5.569602e-001 
5.392725e-001 
5.213930e-001 
5.042911e-001 
4.885892e-001 
4.733003e-001 
4.578439e-001 
4.402086e-001 
4.217752e-001 
4.046683e-001 
3.897471e-001 
3.754562e-001 
3.596116e-001 
3.427784e-001 
3.259338e-001 
3.106976e-001 
2.968395e-001 
2.851185e-001 
2.742825e-001 
2.631273e-001 
2.510040e-001 
2.392199e-001 
2.285348e-001 
2.201726e-001 
2.124377e-001 
2.050266e-001 
1.977086e-001 
1.904729e-001 
1.842871e-001 
1.791885e-001 
1.740340e-001 
1.692954e-001 
1.664975e-001 
1.634139e-001 
1.602258e-001 
1.560170e-001 
1.521304e-001 
1.481479e-001 
1.452763e-001 
1.422113e-001 
1.400628e-001 
1.384684e-001 
1.346468e-001 
1.294968e-001 
1.256800e-001 
1.237204e-001 
1.226570e-001 
1.217320e-001 
1.182203e-001 
1.146623e-001 
1.119741e-001 
1.089712e-001 
1.075646e-001 
1.087507e-001 
1.090272e-001 
1.068582e-001 
1.045546e-001 
1.035149e-001 
1.038183e-001 
1.041170e-001 
1.030410e-001 
1.025917e-001 
1.023763e-001 
1.003058e-001 
9.863804e-002 
9.873972e-002 
9.669739e-002 
9.363754e-002 
9.173514e-002 
8.962704e-002 
8.772190e-002 
8.485316e-002 
8.048600e-002 
7.674008e-002 
7.248366e-002 
6.782274e-002 
6.670333e-002 
6.567565e-002 
6.153620e-002 
5.704283e-002 
5.251871e-002 
4.866176e-002 
4.686214e-002 
4.402419e-002 
4.076033e-002 
3.848785e-002 
3.411027e-002 
3.000091e-002 
2.901191e-002 
2.732351e-002 
2.506090e-002 
2.264557e-002 
1.792965e-002 
1.627766e-002 
1.574625e-002 
1.324946e-002 
1.092920e-002 
9.024977e-003 
5.796560e-003 
4.193064e-003 
2.690852e-003 
1.416998e-003 
2.140736e-003 
-2.287705e-004 
-3.071716e-003 
-3.973465e-003 
-2.949059e-003 
-2.175611e-003 
-3.356603e-003 
-5.578124e-003 
-5.238862e-003 
-4.306084e-003 
-3.863057e-003 
-2.212720e-003 
-1.198106e-004 
2.202783e-003 
3.217206e-003 
6.055534e-003 
1.652680e-002 
3.620906e-002 
7.542696e-002 
1.434579e-001 
2.204023e-001 
2.783229e-001 
3.131497e-001 
3.367084e-001 
3.605408e-001 
3.875458e-001 
4.230456e-001 
4.780592e-001 
5.305053e-001 
5.398865e-001 
5.120763e-001 
4.857500e-001 
4.767392e-001 
4.752607e-001 
4.688537e-001 
4.512407e-001 
4.165968e-001 
3.516665e-001 
2.652224e-001 
1.894285e-001 
1.392309e-001 
1.027719e-001 
6.739807e-002 
3.004731e-002 
-7.207513e-003 
-4.214175e-002 
-7.670122e-002 
-1.119414e-001 
-1.488105e-001 
-1.856552e-001 
-2.235527e-001 
-2.595046e-001 
-2.924418e-001 
-3.250027e-001 
-3.584372e-001 
-3.920684e-001 
-4.270926e-001 
-4.635429e-001 
-5.026365e-001 
-5.442023e-001 
-5.856287e-001 
-6.287420e-001 
-6.736171e-001 
-7.191562e-001 
-7.654162e-001 
-8.134982e-001 
-8.658081e-001 
-9.208534e-001 
-9.737631e-001 
-1.026454e+000 
-1.080007e+000 
-1.134974e+000 
-1.192267e+000 
-1.246150e+000 
-1.293176e+000 
-1.333641e+000 
-1.363274e+000 
-1.384239e+000 
-1.398724e+000 
-1.404671e+000 
-1.402712e+000 
-1.389575e+000 
-1.361514e+000 
-1.323553e+000 
-1.279241e+000 
-1.227824e+000 
-1.170140e+000 
-1.104472e+000 
-1.031029e+000 
-9.542568e-001 
-8.748683e-001 
-7.945578e-001 
-7.169813e-001 
-6.411754e-001 
-5.668048e-001 
-4.967561e-001 
-4.300784e-001 
-3.680220e-001 
-3.119982e-001 
-2.575935e-001 
-2.052542e-001 
-1.565784e-001 
-1.109950e-001 
-6.887908e-002 
-2.856730e-002 
1.179105e-002 
4.951449e-002 
8.638741e-002 
1.215501e-001 
1.523276e-001 
1.812878e-001 
2.095858e-001 
2.380098e-001 
2.646417e-001 
2.860801e-001 
3.044779e-001 
3.214681e-001 
3.345172e-001 
3.467074e-001 
3.580905e-001 
3.672816e-001 
3.750224e-001 
3.802424e-001 
3.842213e-001 
3.902474e-001 
3.964056e-001 
4.009965e-001 
4.052616e-001 
4.084405e-001 
4.131878e-001 
4.197312e-001 
4.251051e-001 
4.293323e-001 
4.340915e-001 
4.385648e-001 
4.426720e-001 
4.469226e-001 
4.520557e-001 
4.578453e-001 
4.625011e-001 
4.660367e-001 
4.707106e-001 
4.765925e-001 
4.821963e-001 
4.866255e-001 
4.918419e-001 
4.981415e-001 
5.048657e-001 
5.128414e-001 
5.207501e-001 
5.281418e-001 
5.347641e-001 
5.411187e-001 
5.488932e-001 
5.587568e-001 
5.673696e-001 
5.751667e-001 
5.824845e-001 
5.889282e-001 
5.960044e-001 
6.036410e-001 
6.115389e-001 
6.182944e-001 
6.236563e-001 
6.276778e-001 
6.328257e-001 
6.390156e-001 
6.444011e-001 
6.482748e-001 
6.510300e-001 
6.525115e-001 
6.530935e-001 
6.541208e-001 
6.542923e-001 
6.533401e-001 
6.505647e-001 
6.463543e-001 
6.412305e-001 
6.359704e-001 
6.292371e-001 
6.207627e-001 
6.108063e-001 
5.994008e-001 
5.872227e-001 
5.755418e-001 
5.627403e-001 
5.474901e-001 
5.311982e-001 
5.135801e-001 
4.964557e-001 
4.798401e-001 
4.624121e-001 
4.436136e-001 
4.247821e-001 
4.053782e-001 
3.859096e-001 
3.677823e-001 
3.504893e-001 
3.321178e-001 
3.123193e-001 
2.935617e-001 
2.766299e-001 
2.619523e-001 
2.464535e-001 
2.298693e-001 
2.150505e-001 
2.002436e-001 
1.855280e-001 
1.743166e-001 
1.653411e-001 
1.542383e-001 
1.423957e-001 
1.300307e-001 
1.195775e-001 
1.123382e-001 
1.039846e-001 
9.470814e-002 
8.700412e-002 
7.856721e-002 
7.006619e-002 
6.410818e-002 
5.753043e-002 
5.101470e-002 
4.561219e-002 
3.809645e-002 
3.273370e-002 
3.129318e-002 
2.824658e-002 
2.421627e-002 
1.947449e-002 
1.359278e-002 
1.075834e-002 
1.105342e-002 
9.777556e-003 
9.505875e-003 
7.619243e-003 
3.289875e-003 
7.413064e-004 
3.113155e-004 
3.375894e-004 
1.650415e-003 
8.799686e-004 
-2.227524e-003 
-3.684715e-003 
-5.305444e-003 
-6.603405e-003 
-7.742358e-003 
-9.602300e-003 
-1.188741e-002 
-1.381859e-002 
-1.583085e-002 
-1.607124e-002 
-1.798475e-002 
-2.095428e-002 
-2.394517e-002 
-2.654499e-002 
-2.770464e-002 
-3.036681e-002 
-3.477064e-002 
-3.792736e-002 
-4.028880e-002 
-4.435887e-002 
-4.571967e-002 
-4.700668e-002 
-4.948487e-002 
-5.373550e-002 
-5.963475e-002 
-6.305942e-002 
-6.420123e-002 
-6.653449e-002 
-7.020157e-002 
-7.324572e-002 
-7.778029e-002 
-8.280291e-002 
-8.630570e-002 
-8.744590e-002 
-8.938079e-002 
-9.261433e-002 
-9.529420e-002 
-9.769115e-002 
-9.904095e-002 
-1.002322e-001 
-1.022637e-001 
-1.036835e-001 
-1.051637e-001 
-1.070576e-001 
-1.064496e-001 
-1.054442e-001 
-1.068320e-001 
-1.076272e-001 
-1.089516e-001 
-1.111206e-001 
-1.110200e-001 
-1.107631e-001 
-1.109802e-001 
-1.117331e-001 
-1.146773e-001 
-1.165774e-001 
-1.160902e-001 
-1.176003e-001 
-1.200576e-001 
-1.208479e-001 
-1.216915e-001 
-1.227770e-001 
-1.238241e-001 
-1.240715e-001 
-1.229301e-001 
-1.230695e-001 
-1.251052e-001 
-1.247626e-001 
-1.215992e-001 
-1.190507e-001 
-1.169275e-001 
-1.141408e-001 
-1.087122e-001 
-9.919490e-002 
-7.928366e-002 
-3.475258e-002 
3.825246e-002 
1.152994e-001 
1.707797e-001 
2.039058e-001 
2.279574e-001 
2.520413e-001 
2.783415e-001 
3.174444e-001 
3.734577e-001 
4.189131e-001 
4.215078e-001 
3.915696e-001 
3.638969e-001 
3.517614e-001 
3.430401e-001 
3.295147e-001 
3.066804e-001 
2.618676e-001 
1.867532e-001 
9.464125e-002 
1.407383e-002 
-4.311754e-002 
-8.789367e-002 
-1.305807e-001 
-1.731546e-001 
-2.165692e-001 
-2.587347e-001 
-2.997565e-001 
-3.403295e-001 
-3.801305e-001 
-4.205797e-001 
-4.601833e-001 
-4.969011e-001 
-5.316696e-001 
-5.644917e-001 
-5.974544e-001 
-6.340332e-001 
-6.722993e-001 
-7.129795e-001 
-7.557392e-001 
-7.955086e-001 
-8.351933e-001 
-8.782374e-001 
-9.241533e-001 
-9.742166e-001 
-1.026490e+000 
-1.076956e+000 
-1.128533e+000 
-1.180014e+000 
-1.229938e+000 
-1.281837e+000 
-1.330725e+000 
-1.373101e+000 
-1.408094e+000 
-1.432543e+000 
-1.444994e+000 
-1.448183e+000 
-1.439971e+000 
-1.420447e+000 
-1.390092e+000 
-1.347953e+000 
-1.296047e+000 
-1.235337e+000 
-1.165859e+000 
-1.089233e+000 
-1.008736e+000 
-9.240293e-001 
-8.359835e-001 
-7.471025e-001 
-6.589597e-001 
-5.742670e-001 
-4.941432e-001 
-4.173655e-001 
-3.460855e-001 
-2.805652e-001 
-2.193384e-001 
-1.618846e-001 
-1.093256e-001 
-6.188602e-002 
-1.976318e-002 
2.083614e-002 
5.970178e-002 
9.596602e-002 
1.291142e-001 
1.590519e-001 
1.878666e-001 
2.157439e-001 
2.423416e-001 
2.675682e-001 
2.903086e-001 
3.080652e-001 
3.232456e-001 
3.353273e-001 
3.467842e-001 
3.590468e-001 
3.690921e-001 
3.742682e-001 
3.764414e-001 
3.779796e-001 
3.810848e-001 
3.870447e-001 
3.934462e-001 
3.986654e-001 
4.018147e-001 
4.029766e-001 
4.040133e-001 
4.079315e-001 
4.140266e-001 
4.199201e-001 
4.255633e-001 
4.308288e-001 
4.351863e-001 
4.408751e-001 
4.486316e-001 
4.562147e-001 
4.635747e-001 
4.711317e-001 
4.788495e-001 
4.879143e-001 
4.965782e-001 
5.043990e-001 
5.136793e-001 
5.230460e-001 
5.318483e-001 
5.418407e-001 
5.523804e-001 
5.628746e-001 
5.714423e-001 
5.797530e-001 
5.907819e-001 
6.017813e-001 
6.109741e-001 
6.190117e-001 
6.261788e-001 
6.333260e-001 
6.406149e-001 
6.470035e-001 
6.542046e-001 
6.589275e-001 
6.601546e-001 
6.607596e-001 
6.619720e-001 
6.641500e-001 
6.650505e-001 
6.629286e-001 
6.576666e-001 
6.513405e-001 
6.443415e-001 
6.365298e-001 
6.278446e-001 
6.184895e-001 
6.068559e-001 
5.924762e-001 
5.764729e-001 
5.622432e-001 
5.487664e-001 
5.311522e-001 
5.112092e-001 
4.923601e-001 
4.741291e-001 
4.551013e-001 
4.342447e-001 
4.133803e-001 
3.938744e-001 
3.715736e-001 
3.489165e-001 
3.297190e-001 
3.115652e-001 
2.918687e-001 
2.705587e-001 
2.497746e-001 
2.314156e-001 
2.127959e-001 
1.941882e-001 
1.778980e-001 
1.613584e-001 
1.438666e-001 
1.275980e-001 
1.131007e-001 
9.922864e-002 
8.381544e-002 
6.802295e-002 
5.568932e-002 
4.443406e-002 
3.198207e-002 
2.055507e-002 
9.439680e-003 
-2.395099e-003 
-1.355504e-002 
-2.241924e-002 
-2.820550e-002 
-3.333424e-002 
-4.122633e-002 
-4.951900e-002 
-5.681589e-002 
-6.305077e-002 
-6.717835e-002 
-7.020401e-002 
-7.382865e-002 
-7.803198e-002 
-8.188506e-002 
-8.508217e-002 
-8.666473e-002 
-8.698433e-002 
-8.733040e-002 
-8.937221e-002 
-9.181333e-002 
-9.342204e-002 
-9.295064e-002 
-9.297746e-002 
-9.479796e-002 
-9.633788e-002 
-9.747734e-002 
-9.896536e-002 
-9.934236e-002 
-9.774106e-002 
-9.731475e-002 
-9.856757e-002 
-1.006119e-001 
-1.015837e-001 
-1.018389e-001 
-1.026216e-001 
-1.046519e-001 
-1.067123e-001 
-1.088129e-001 
-1.119084e-001 
-1.130513e-001 
-1.129739e-001 
-1.155221e-001 
-1.202326e-001 
-1.242059e-001 
-1.269089e-001 
-1.278504e-001 
-1.293162e-001 
-1.326585e-001 
-1.351724e-001 
-1.385167e-001 
-1.440560e-001 
-1.473468e-001 
-1.484654e-001 
-1.500039e-001 
-1.522681e-001 
-1.567661e-001 
-1.608662e-001 
-1.619252e-001 
-1.648776e-001 
-1.694537e-001 
-1.716307e-001 
-1.739083e-001 
-1.759094e-001 
-1.769735e-001 
-1.792356e-001 
-1.809096e-001 
-1.830459e-001 
-1.869894e-001 
-1.887456e-001 
-1.875169e-001 
-1.875487e-001 
-1.888203e-001 
-1.903217e-001 
-1.918587e-001 
-1.921008e-001 
-1.910619e-001 
-1.894844e-001 
-1.883083e-001 
-1.875947e-001 
-1.895800e-001 
-1.909571e-001 
-1.895527e-001 
-1.883340e-001 
-1.881333e-001 
-1.881133e-001 
-1.895024e-001 
-1.899882e-001 
-1.882516e-001 
-1.873785e-001 
-1.857588e-001 
-1.840289e-001 
-1.833464e-001 
-1.820575e-001 
-1.811231e-001 
-1.798267e-001 
-1.751640e-001 
-1.693208e-001 
-1.610428e-001 
-1.344266e-001 
-7.524664e-002 
-1.431707e-003 
5.304473e-002 
8.216489e-002 
1.037437e-001 
1.261920e-001 
1.474478e-001 
1.752216e-001 
2.249614e-001 
2.800908e-001 
2.942846e-001 
2.666345e-001 
2.403112e-001 
2.331559e-001 
2.290715e-001 
2.173696e-001 
2.000445e-001 
1.714519e-001 
1.150238e-001 
3.245378e-002 
-4.587253e-002 
-1.014293e-001 
-1.437581e-001 
-1.867954e-001 
-2.293353e-001 
-2.692596e-001 
-3.088825e-001 
-3.491305e-001 
-3.898634e-001 
-4.298549e-001 
-4.668100e-001 
-5.026819e-001 
-5.387421e-001 
-5.729349e-001 
-6.066747e-001 
-6.418238e-001 
-6.781232e-001 
-7.162602e-001 
-7.563648e-001 
-7.969104e-001 
-8.387763e-001 
-8.807014e-001 
-9.233980e-001 
-9.682805e-001 
-1.016349e+000 
-1.066302e+000 
-1.117037e+000 
-1.166742e+000 
-1.214474e+000 
-1.260285e+000 
-1.303699e+000 
-1.342602e+000 
-1.373452e+000 
-1.394467e+000 
-1.404238e+000 
-1.403687e+000 
-1.393341e+000 
-1.371893e+000 
-1.339391e+000 
-1.297407e+000 
-1.245689e+000 
-1.185802e+000 
-1.120706e+000 
-1.050788e+000 
-9.752003e-001 
-8.940392e-001 
-8.086404e-001 
-7.245573e-001 
-6.449718e-001 
-5.674200e-001 
-4.933309e-001 
-4.241806e-001 
-3.579771e-001 
-2.956389e-001 
-2.391200e-001 
-1.885766e-001 
-1.432198e-001 
-9.964601e-002 
-5.626299e-002 
-1.760960e-002 
1.644174e-002 
4.777484e-002 
7.734933e-002 
1.061802e-001 
1.337256e-001 
1.594218e-001 
1.830718e-001 
2.031306e-001 
2.202744e-001 
2.364960e-001 
2.516015e-001 
2.660913e-001 
2.778971e-001 
2.854290e-001 
2.912093e-001 
2.965099e-001 
3.020919e-001 
3.079715e-001 
3.116083e-001 
3.161243e-001 
3.217468e-001 
3.265953e-001 
3.320455e-001 
3.382628e-001 
3.440203e-001 
3.496672e-001 
3.536818e-001 
3.591145e-001 
3.674170e-001 
3.740879e-001 
3.809192e-001 
3.891619e-001 
3.970079e-001 
4.059756e-001 
4.156410e-001 
4.250390e-001 
4.357542e-001 
4.464041e-001 
4.569498e-001 
4.695761e-001 
4.820234e-001 
4.928004e-001 
5.045033e-001 
5.159827e-001 
5.274401e-001 
5.402011e-001 
5.521924e-001 
5.617616e-001 
5.701823e-001 
5.768628e-001 
5.834847e-001 
5.920432e-001 
5.990390e-001 
6.038152e-001 
6.074231e-001 
6.090902e-001 
6.105355e-001 
6.135090e-001 
6.161051e-001 
6.174963e-001 
6.180685e-001 
6.158487e-001 
6.137795e-001 
6.133466e-001 
6.119676e-001 
6.108336e-001 
6.095923e-001 
6.064758e-001 
6.028008e-001 
5.980379e-001 
5.911146e-001 
5.842109e-001 
5.749088e-001 
5.646429e-001 
5.552266e-001 
5.440531e-001 
5.311779e-001 
5.162766e-001 
4.984522e-001 
4.801612e-001 
4.630518e-001 
4.450987e-001 
4.270868e-001 
4.068965e-001 
3.847401e-001 
3.637238e-001 
3.424914e-001 
3.213912e-001 
3.030067e-001 
2.840432e-001 
2.629946e-001 
2.428965e-001 
2.239196e-001 
2.066552e-001 
1.907696e-001 
1.723298e-001 
1.547811e-001 
1.392192e-001 
1.227290e-001 
1.083535e-001 
9.589250e-002 
8.194052e-002 
6.808413e-002 
5.542216e-002 
4.149129e-002 
3.090752e-002 
2.102830e-002 
9.734377e-003 
-5.225238e-004 
-9.840111e-003 
-1.872971e-002 
-2.577856e-002 
-3.289675e-002 
-4.149426e-002 
-4.839896e-002 
-5.600095e-002 
-6.198643e-002 
-6.403615e-002 
-6.618081e-002 
-7.112257e-002 
-7.660666e-002 
-8.056692e-002 
-8.393057e-002 
-8.631047e-002 
-8.763777e-002 
-8.757464e-002 
-8.864844e-002 
-9.295911e-002 
-9.715841e-002 
-9.825576e-002 
-9.861540e-002 
-1.013952e-001 
-1.037259e-001 
-1.054134e-001 
-1.066239e-001 
-1.085145e-001 
-1.117752e-001 
-1.141150e-001 
-1.154421e-001 
-1.169113e-001 
-1.171848e-001 
-1.161064e-001 
-1.154388e-001 
-1.161204e-001 
-1.187489e-001 
-1.211206e-001 
-1.210670e-001 
-1.196667e-001 
-1.185178e-001 
-1.190819e-001 
-1.205535e-001 
-1.218693e-001 
-1.242851e-001 
-1.255209e-001 
-1.259410e-001 
-1.266206e-001 
-1.282307e-001 
-1.318413e-001 
-1.362482e-001 
-1.380803e-001 
-1.408862e-001 
-1.458027e-001 
-1.489149e-001 
-1.512296e-001 
-1.521668e-001 
-1.532636e-001 
-1.564202e-001 
-1.597145e-001 
-1.618225e-001 
-1.647663e-001 
-1.662137e-001 
-1.650282e-001 
-1.640687e-001 
-1.647532e-001 
-1.670311e-001 
-1.699186e-001 
-1.704137e-001 
-1.681392e-001 
-1.665627e-001 
-1.662174e-001 
-1.667505e-001 
-1.683505e-001 
-1.694643e-001 
-1.691609e-001 
-1.694858e-001 
-1.690593e-001 
-1.695908e-001 
-1.713064e-001 
-1.717084e-001 
-1.712921e-001 
-1.711233e-001 
-1.704719e-001 
-1.704656e-001 
-1.716452e-001 
-1.708612e-001 
-1.697727e-001 
-1.675190e-001 
-1.655125e-001 
-1.656499e-001 
-1.646461e-001 
-1.616061e-001 
-1.591451e-001 
-1.556776e-001 
-1.505281e-001 
-1.452348e-001 
-1.309993e-001 
-9.053113e-002 
-2.327434e-002 
3.971026e-002 
7.676652e-002 
9.771940e-002 
1.166957e-001 
1.365655e-001 
1.585204e-001 
1.972628e-001 
2.558454e-001 
2.916839e-001 
2.778124e-001 
2.476400e-001 
2.324404e-001 
2.283636e-001 
2.225890e-001 
2.101801e-001 
1.910304e-001 
1.517359e-001 
8.089823e-002 
1.269545e-003 
-6.037271e-002 
-1.056936e-001 
-1.460835e-001 
-1.863038e-001 
-2.266940e-001 
-2.657366e-001 
-3.036060e-001 
-3.422159e-001 
-3.809325e-001 
-4.170018e-001 
-4.519532e-001 
-4.875447e-001 
-5.265680e-001 
-5.698127e-001 
-6.135578e-001 
-6.578869e-001 
-7.037829e-001 
-7.510097e-001 
-8.016640e-001 
-8.572927e-001 
-9.180351e-001 
-9.823239e-001 
-1.044802e+000 
-1.106794e+000 
-1.170115e+000 
-1.231665e+000 
-1.291198e+000 
-1.346484e+000 
-1.395296e+000 
-1.436789e+000 
-1.466629e+000 
-1.483418e+000 
-1.489875e+000 
-1.482663e+000 
-1.461641e+000 
-1.430214e+000 
-1.388910e+000 
-1.338979e+000 
-1.280327e+000 
-1.212570e+000 
-1.137813e+000 
-1.058097e+000 
-9.754452e-001 
-8.920305e-001 
-8.088967e-001 
-7.274307e-001 
-6.482279e-001 
-5.728475e-001 
-5.021569e-001 
-4.351898e-001 
-3.730931e-001 
-3.150659e-001 
-2.588063e-001 
-2.062007e-001 
-1.589799e-001 
-1.159002e-001 
-7.488835e-002 
-3.565257e-002 
2.057667e-003 
3.715666e-002 
7.068838e-002 
1.020219e-001 
1.289791e-001 
1.530214e-001 
1.771195e-001 
1.998685e-001 
2.176043e-001 
2.318666e-001 
2.454019e-001 
2.578451e-001 
2.670515e-001 
2.739467e-001 
2.800698e-001 
2.866910e-001 
2.916709e-001 
2.951182e-001 
3.005331e-001 
3.069400e-001 
3.116705e-001 
3.158518e-001 
3.205807e-001 
3.260045e-001 
3.323592e-001 
3.374090e-001 
3.413179e-001 
3.460645e-001 
3.517348e-001 
3.593011e-001 
3.674853e-001 
3.743475e-001 
3.810237e-001 
3.872221e-001 
3.935994e-001 
4.010873e-001 
4.107353e-001 
4.217696e-001 
4.316884e-001 
4.396171e-001 
4.488049e-001 
4.585838e-001 
4.685034e-001 
4.796675e-001 
4.899525e-001 
5.000966e-001 
5.103003e-001 
5.204110e-001 
5.312829e-001 
5.416645e-001 
5.495774e-001 
5.580504e-001 
5.674494e-001 
5.756744e-001 
5.843900e-001 
5.931924e-001 
5.997820e-001 
6.044128e-001 
6.086742e-001 
6.129793e-001 
6.178207e-001 
6.210751e-001 
6.209306e-001 
6.199635e-001 
6.181172e-001 
6.147027e-001 
6.118550e-001 
6.078691e-001 
6.009882e-001 
5.940375e-001 
5.856557e-001 
5.762874e-001 
5.674494e-001 
5.562828e-001 
5.429919e-001 
5.291564e-001 
5.143221e-001 
5.004813e-001 
4.870146e-001 
4.708484e-001 
4.525571e-001 
4.329952e-001 
4.135347e-001 
3.958206e-001 
3.790258e-001 
3.610694e-001 
3.409671e-001 
3.192344e-001 
2.975357e-001 
2.772045e-001 
2.590068e-001 
2.409650e-001 
2.222100e-001 
2.030922e-001 
1.843867e-001 
1.677761e-001 
1.538257e-001 
1.410534e-001 
1.275402e-001 
1.135553e-001 
1.004631e-001 
9.113431e-002 
8.386602e-002 
7.746100e-002 
7.034442e-002 
6.382133e-002 
5.760192e-002 
5.091600e-002 
4.631704e-002 
4.413622e-002 
4.105400e-002 
3.525032e-002 
2.846235e-002 
2.219510e-002 
1.775111e-002 
1.192415e-002 
4.807320e-003 
-2.642053e-003 
-9.884753e-003 
-1.732830e-002 
-2.447003e-002 
-3.117477e-002 
-3.779455e-002 
-4.401745e-002 
-4.929382e-002 
-5.480381e-002 
-5.911593e-002 
-6.147566e-002 
-6.484240e-002 
-6.861499e-002 
-7.048249e-002 
-7.013287e-002 
-6.822874e-002 
-6.795278e-002 
-7.122554e-002 
-7.368268e-002 
-7.559047e-002 
-7.794893e-002 
-7.897969e-002 
-7.963691e-002 
-8.255363e-002 
-8.843363e-002 
-9.641745e-002 
-1.038137e-001 
-1.076354e-001 
-1.118834e-001 
-1.179090e-001 
-1.242945e-001 
-1.313549e-001 
-1.393971e-001 
-1.466395e-001 
-1.533868e-001 
-1.593384e-001 
-1.641192e-001 
-1.704271e-001 
-1.752110e-001 
-1.791980e-001 
-1.835031e-001 
-1.878759e-001 
-1.919359e-001 
-1.961215e-001 
-1.985902e-001 
-1.999903e-001 
-2.017434e-001 
-2.040690e-001 
-2.082668e-001 
-2.113129e-001 
-2.131750e-001 
-2.137473e-001 
-2.143387e-001 
-2.149630e-001 
-2.156412e-001 
-2.171057e-001 
-2.184289e-001 
-2.177892e-001 
-2.170188e-001 
-2.172774e-001 
-2.172262e-001 
-2.169236e-001 
-2.155024e-001 
-2.138401e-001 
-2.127324e-001 
-2.115693e-001 
-2.117675e-001 
-2.127844e-001 
-2.113016e-001 
-2.077144e-001 
-2.049929e-001 
-2.043198e-001 
-2.038826e-001 
-2.031793e-001 
-2.025179e-001 
-2.012403e-001 
-1.981198e-001 
-1.950177e-001 
-1.927268e-001 
-1.902990e-001 
-1.847983e-001 
-1.758712e-001 
-1.624201e-001 
-1.276427e-001 
-5.823134e-002 
2.308371e-002 
8.570335e-002 
1.304972e-001 
1.698618e-001 
2.092705e-001 
2.475722e-001 
2.969025e-001 
3.735476e-001 
4.515430e-001 
4.837092e-001 
4.773655e-001 
4.720019e-001 
4.732390e-001 
4.654969e-001 
4.411213e-001 
4.012038e-001 
3.367861e-001 
2.354383e-001 
1.099624e-001 
-6.265852e-003 
-1.008961e-001 
-1.858100e-001 
-2.684910e-001 
-3.455869e-001 
-4.123744e-001 
-4.659694e-001 
-5.069572e-001 
-5.396379e-001 
-5.669983e-001 
-5.865917e-001 
-5.948549e-001 
-5.909894e-001 
-5.726220e-001 
-5.406801e-001 
-5.013186e-001 
-4.597992e-001 
-4.190382e-001 
-3.811827e-001 
-3.467104e-001 
-3.179711e-001 
-2.959007e-001 
-2.789980e-001 
-2.676680e-001 
-2.611199e-001 
-2.583833e-001 
-2.581356e-001 
-2.587372e-001 
-2.602191e-001 
-2.617074e-001 
-2.624660e-001 
-2.639534e-001 
-2.656090e-001 
-2.683731e-001 
-2.728873e-001 
-2.751570e-001 
-2.754002e-001 
-2.759681e-001 
-2.772845e-001 
-2.803817e-001 
-2.850546e-001 
-2.887883e-001 
-2.922601e-001 
-2.939764e-001 
-2.944903e-001 
-2.976473e-001 
-3.028479e-001 
-3.077410e-001 
-3.113550e-001 
-3.140299e-001 
-3.160771e-001 
-3.191881e-001 
-3.226309e-001 
-3.266250e-001 
-3.304447e-001 
-3.334291e-001 
-3.354933e-001 
-3.379966e-001 
-3.416307e-001 
-3.446840e-001 
-3.472560e-001 
-3.489701e-001 
-3.502927e-001 
-3.525773e-001 
-3.556554e-001 
-3.573060e-001 
-3.585946e-001 
-3.597873e-001 
-3.601055e-001 
-3.612554e-001 
-3.639977e-001 
-3.657858e-001 
-3.658049e-001 
-3.651042e-001 
-3.641444e-001 
-3.641855e-001 
-3.640673e-001 
-3.624244e-001 
-3.606473e-001 
-3.580005e-001 
-3.529120e-001 
-3.485010e-001 
-3.455326e-001 
-3.415187e-001 
-3.353666e-001 
-3.276918e-001 
-3.188197e-001 
-3.114456e-001 
-3.044100e-001 
-2.952699e-001 
-2.847856e-001 
-2.740006e-001 
-2.624199e-001 
-2.504369e-001 
-2.379326e-001 
-2.250586e-001 
-2.131293e-001 
-1.984719e-001 
-1.819557e-001 
-1.676512e-001 
-1.543395e-001 
-1.390951e-001 
-1.227175e-001 
-1.065361e-001 
-9.243790e-002 
-7.857591e-002 
-6.471395e-002 
-5.203836e-002 
-3.904974e-002 
-2.419031e-002 
-1.044092e-002 
5.025516e-004 
9.011610e-003 
1.732555e-002 
2.631793e-002 
3.445093e-002 
4.313788e-002 
4.924638e-002 
5.325181e-002 
5.567069e-002 
5.850027e-002 
6.220931e-002 
6.545702e-002 
6.649772e-002 
6.730508e-002 
6.709538e-002 
6.474011e-002 
6.374040e-002 
6.217556e-002 
6.039960e-002 
5.737580e-002 
5.339396e-002 
5.098988e-002 
4.991304e-002 
4.737963e-002 
4.396822e-002 
4.042050e-002 
3.708009e-002 
3.457240e-002 
3.235370e-002 
3.070445e-002 
2.882829e-002 
2.538499e-002 
2.161622e-002 
1.839891e-002 
1.681714e-002 
1.566443e-002 
1.407708e-002 
1.307308e-002 
1.146657e-002 
9.415517e-003 
7.536270e-003 
6.389810e-003 
5.960954e-003 
5.560376e-003 
4.269382e-003 
5.907436e-003 
8.390019e-003 
7.705076e-003 
6.330890e-003 
6.447415e-003 
8.272585e-003 
1.064648e-002 
1.214013e-002 
1.467709e-002 
1.710071e-002 
1.529685e-002 
1.402700e-002 
1.664176e-002 
1.981865e-002 
2.155611e-002 
2.152549e-002 
2.078300e-002 
2.112372e-002 
2.046888e-002 
2.101511e-002 
2.333831e-002 
2.265339e-002 
2.051245e-002 
1.965412e-002 
1.883575e-002 
1.853903e-002 
1.855416e-002 
1.723082e-002 
1.513005e-002 
1.186288e-002 
9.659028e-003 
1.040121e-002 
1.061409e-002 
8.792091e-003 
6.915362e-003 
5.342431e-003 
3.793225e-003 
2.521142e-003 
1.824646e-003 
9.524802e-004 
-8.630053e-004 
-2.759339e-003 
-3.988884e-003 
-4.007892e-003 
-3.666805e-003 
-4.886725e-003 
-6.726830e-003 
-8.228807e-003 
-8.617688e-003 
-6.729762e-003 
-5.188931e-003 
-5.330667e-003 
-4.732941e-003 
-3.570723e-003 
-2.018206e-003 
6.302889e-004 
3.553123e-003 
6.687526e-003 
9.309500e-003 
1.094619e-002 
1.390438e-002 
1.846653e-002 
2.169973e-002 
2.232246e-002 
2.154511e-002 
2.107579e-002 
2.088078e-002 
2.072291e-002 
2.058369e-002 
1.962002e-002 
1.641334e-002 
1.133357e-002 
6.896652e-003 
4.068453e-003 
1.172001e-003 
-2.146278e-003 
-4.878389e-003 
-6.969159e-003 
-1.036234e-002 
-1.445781e-002 
-1.657196e-002 
-1.876715e-002 
-2.228778e-002 
-2.347355e-002 
-2.205359e-002 
-1.981020e-002 
-1.956472e-002 
-2.221198e-002 
-2.285060e-002 
-2.289620e-002 
-2.467498e-002 
-2.457969e-002 
-2.286646e-002 
-2.355876e-002 
-2.650167e-002 
-3.071849e-002 
-3.309317e-002 
-3.273005e-002 
-3.495204e-002 
-3.795414e-002 
-3.963743e-002 
-4.045306e-002 
-4.094795e-002 
-4.093967e-002 
-3.930754e-002 
-3.242951e-002 
-8.959181e-003 
4.337749e-002 
1.141005e-001 
1.731743e-001 
2.092609e-001 
2.305751e-001 
2.485949e-001 
2.685134e-001 
2.983645e-001 
3.478694e-001 
4.029286e-001 
4.227345e-001 
4.002152e-001 
3.728748e-001 
3.621891e-001 
3.608769e-001 
3.571318e-001 
3.445403e-001 
3.170314e-001 
2.650207e-001 
1.882558e-001 
1.153150e-001 
6.644226e-002 
3.152666e-002 
-1.549576e-003 
-3.545948e-002 
-6.827012e-002 
-9.620508e-002 
-1.224338e-001 
-1.513264e-001 
-1.797740e-001 
-2.069739e-001 
-2.339057e-001 
-2.590732e-001 
-2.834095e-001 
-3.056678e-001 
-3.268140e-001 
-3.484252e-001 
-3.697805e-001 
-3.891252e-001 
-4.077671e-001 
-4.280518e-001 
-4.483117e-001 
-4.670530e-001 
-4.818292e-001 
-4.927169e-001 
-5.001367e-001 
-5.072329e-001 
-5.130175e-001 
-5.182542e-001 
-5.239177e-001 
-5.296217e-001 
-5.385490e-001 
-5.516543e-001 
-5.667153e-001 
-5.840214e-001 
-6.022371e-001 
-6.161835e-001 
-6.271860e-001 
-6.368813e-001 
-6.443662e-001 
-6.501382e-001 
-6.510147e-001 
-6.445524e-001 
-6.326930e-001 
-6.139576e-001 
-5.884193e-001 
-5.587812e-001 
-5.250473e-001 
-4.855150e-001 
-4.412270e-001 
-3.916010e-001 
-3.378385e-001 
-2.810472e-001 
-2.229233e-001 
-1.680595e-001 
-1.188272e-001 
-7.588728e-002 
-3.795239e-002 
-5.478635e-003 
2.176886e-002 
4.476375e-002 
6.393540e-002 
7.623976e-002 
8.300195e-002 
8.765617e-002 
9.124846e-002 
9.498678e-002 
9.706906e-002 
9.746835e-002 
9.806954e-002 
9.889395e-002 
9.899609e-002 
1.003245e-001 
1.017384e-001 
1.015854e-001 
1.010884e-001 
1.012574e-001 
1.026907e-001 
1.047238e-001 
1.060962e-001 
1.054842e-001 
1.048221e-001 
1.052043e-001 
1.054929e-001 
1.076480e-001 
1.102540e-001 
1.106713e-001 
1.096671e-001 
1.103637e-001 
1.121225e-001 
1.161435e-001 
1.205025e-001 
1.222300e-001 
1.249618e-001 
1.272371e-001 
1.303582e-001 
1.358098e-001 
1.419587e-001 
1.456680e-001 
1.492062e-001 
1.527101e-001 
1.560716e-001 
1.616443e-001 
1.665796e-001 
1.710890e-001 
1.739571e-001 
1.773606e-001 
1.811744e-001 
1.861590e-001 
1.909322e-001 
1.943615e-001 
1.972487e-001 
2.002220e-001 
2.046450e-001 
2.092725e-001 
2.142794e-001 
2.170667e-001 
2.204882e-001 
2.250659e-001 
2.295966e-001 
2.350883e-001 
2.415709e-001 
2.461330e-001 
2.491340e-001 
2.532173e-001 
2.585634e-001 
2.650196e-001 
2.701882e-001 
2.732888e-001 
2.762017e-001 
2.778121e-001 
2.797214e-001 
2.850052e-001 
2.898860e-001 
2.913411e-001 
2.914500e-001 
2.912426e-001 
2.915779e-001 
2.925356e-001 
2.918524e-001 
2.920068e-001 
2.914680e-001 
2.882959e-001 
2.854208e-001 
2.837495e-001 
2.806767e-001 
2.775997e-001 
2.739794e-001 
2.696152e-001 
2.666026e-001 
2.628684e-001 
2.585164e-001 
2.527334e-001 
2.456666e-001 
2.398775e-001 
2.358933e-001 
2.312593e-001 
2.255459e-001 
2.180077e-001 
2.099190e-001 
2.024489e-001 
1.954800e-001 
1.904190e-001 
1.849502e-001 
1.768202e-001 
1.672042e-001 
1.571713e-001 
1.485221e-001 
1.422643e-001 
1.362555e-001 
1.296220e-001 
1.219742e-001 
1.135541e-001 
1.059386e-001 
9.971773e-002 
9.416169e-002 
8.872035e-002 
8.351151e-002 
7.865590e-002 
7.356965e-002 
6.940465e-002 
6.517593e-002 
6.026836e-002 
5.614666e-002 
5.293251e-002 
5.123987e-002 
5.013170e-002 
4.762463e-002 
4.415389e-002 
4.015367e-002 
3.591585e-002 
3.340450e-002 
3.169892e-002 
3.038392e-002 
2.731205e-002 
2.219938e-002 
1.898534e-002 
1.643784e-002 
1.420767e-002 
1.365454e-002 
1.125305e-002 
7.752596e-003 
6.037025e-003 
3.946092e-003 
3.597634e-003 
3.781491e-003 
8.656257e-004 
-6.732661e-004 
-1.968503e-003 
-5.052027e-003 
-4.975046e-003 
-3.494710e-003 
-4.478982e-003 
-6.160128e-003 
-7.511073e-003 
-8.100800e-003 
-7.045582e-003 
-8.011252e-003 
-1.000451e-002 
-9.788455e-003 
-9.761757e-003 
-1.061654e-002 
-9.445951e-003 
-8.190990e-003 
-8.168290e-003 
-8.656974e-003 
-1.006915e-002 
-1.011282e-002 
-8.487742e-003 
-7.951837e-003 
-8.381953e-003 
-9.411864e-003 
-1.153902e-002 
-1.174701e-002 
-1.177970e-002 
-1.269880e-002 
-1.369267e-002 
-1.554286e-002 
-1.752275e-002 
-1.739319e-002 
-1.778128e-002 
-1.906051e-002 
-2.071912e-002 
-2.429697e-002 
-2.692092e-002 
-2.821380e-002 
-2.927961e-002 
-2.948020e-002 
-3.000990e-002 
-3.277571e-002 
-3.641468e-002 
-3.934517e-002 
-4.055917e-002 
-4.139498e-002 
-4.342377e-002 
-4.589597e-002 
-4.882340e-002 
-5.127779e-002 
-5.345861e-002 
-5.682288e-002 
-5.891647e-002 
-6.070788e-002 
-6.322728e-002 
-6.493399e-002 
-6.743670e-002 
-7.030989e-002 
-7.232931e-002 
-7.531789e-002 
-7.755467e-002 
-7.845622e-002 
-8.003481e-002 
-8.108955e-002 
-8.352151e-002 
-8.672315e-002 
-8.744824e-002 
-8.664906e-002 
-8.514474e-002 
-8.317827e-002 
-8.392317e-002 
-8.466660e-002 
-8.383244e-002 
-8.299044e-002 
-8.111559e-002 
-7.728332e-002 
-7.353052e-002 
-7.012058e-002 
-6.555586e-002 
-6.002788e-002 
-5.151971e-002 
-4.222750e-002 
-3.078674e-002 
-6.322037e-004 
6.340038e-002 
1.419426e-001 
2.045281e-001 
2.427093e-001 
2.664364e-001 
2.867558e-001 
3.059960e-001 
3.345969e-001 
3.870364e-001 
4.430282e-001 
4.562952e-001 
4.266390e-001 
3.921963e-001 
3.740400e-001 
3.633101e-001 
3.478287e-001 
3.259842e-001 
2.904792e-001 
2.253603e-001 
1.343620e-001 
4.822713e-002 
-1.708668e-002 
-6.663980e-002 
-1.144771e-001 
-1.619886e-001 
-2.061586e-001 
-2.483819e-001 
-2.907694e-001 
-3.349579e-001 
-3.793700e-001 
-4.206813e-001 
-4.578574e-001 
-4.948106e-001 
-5.299971e-001 
-5.672641e-001 
-6.061334e-001 
-6.450868e-001 
-6.853994e-001 
-7.235663e-001 
-7.607427e-001 
-8.007836e-001 
-8.437985e-001 
-8.878475e-001 
-9.329115e-001 
-9.758021e-001 
-1.019231e+000 
-1.064555e+000 
-1.108597e+000 
-1.153421e+000 
-1.199802e+000 
-1.245146e+000 
-1.285940e+000 
-1.321327e+000 
-1.349210e+000 
-1.370889e+000 
-1.383408e+000 
-1.386395e+000 
-1.384044e+000 
-1.374803e+000 
-1.353504e+000 
-1.319340e+000 
-1.275397e+000 
-1.223667e+000 
-1.166276e+000 
-1.102385e+000 
-1.034470e+000 
-9.614044e-001 
-8.812814e-001 
-7.958969e-001 
-7.114125e-001 
-6.311553e-001 
-5.547301e-001 
-4.818685e-001 
-4.116425e-001 
-3.436579e-001 
-2.794719e-001 
-2.209473e-001 
-1.673805e-001 
-1.187884e-001 
-7.409112e-002 
-3.267238e-002 
5.521951e-003 
4.118816e-002 
7.423633e-002 
1.040966e-001 
1.324718e-001 
1.600075e-001 
1.853364e-001 
2.070015e-001 
2.269645e-001 
2.460876e-001 
2.638637e-001 
2.813016e-001 
2.963407e-001 
3.078867e-001 
3.174603e-001 
3.252417e-001 
3.316416e-001 
3.392996e-001 
3.456608e-001 
3.494306e-001 
3.536611e-001 
3.569628e-001 
3.608637e-001 
3.665894e-001 
3.714607e-001 
3.756667e-001 
3.807270e-001 
3.845072e-001 
3.893375e-001 
3.958640e-001 
4.012751e-001 
4.063739e-001 
4.100319e-001 
4.140483e-001 
4.198397e-001 
4.258570e-001 
4.320198e-001 
4.378048e-001 
4.425676e-001 
4.485543e-001 
4.541184e-001 
4.594870e-001 
4.664443e-001 
4.712214e-001 
4.752765e-001 
4.810054e-001 
4.862585e-001 
4.930260e-001 
4.998024e-001 
5.032129e-001 
5.061732e-001 
5.103231e-001 
5.150956e-001 
5.213350e-001 
5.276220e-001 
5.319146e-001 
5.362683e-001 
5.403969e-001 
5.439445e-001 
5.492625e-001 
5.564098e-001 
5.616374e-001 
5.655806e-001 
5.685137e-001 
5.711064e-001 
5.755011e-001 
5.790030e-001 
5.795742e-001 
5.799598e-001 
5.806291e-001 
5.806262e-001 
5.799226e-001 
5.776744e-001 
5.751226e-001 
5.724410e-001 
5.671788e-001 
5.599857e-001 
5.535880e-001 
5.472270e-001 
5.388500e-001 
5.290359e-001 
5.198690e-001 
5.109530e-001 
5.021583e-001 
4.911672e-001 
4.782343e-001 
4.655852e-001 
4.528796e-001 
4.404399e-001 
4.283466e-001 
4.142533e-001 
3.978574e-001 
3.816596e-001 
3.652043e-001 
3.487828e-001 
3.336712e-001 
3.189153e-001 
3.025910e-001 
2.849532e-001 
2.672254e-001 
2.511923e-001 
2.383730e-001 
2.233246e-001 
2.066056e-001 
1.914523e-001 
1.774428e-001 
1.640171e-001 
1.518836e-001 
1.398625e-001 
1.281239e-001 
1.168346e-001 
1.040008e-001 
9.334171e-002 
8.504188e-002 
7.680964e-002 
6.775357e-002 
5.815779e-002 
4.923025e-002 
4.177537e-002 
3.550819e-002 
2.884092e-002 
2.182315e-002 
1.509538e-002 
9.979853e-003 
5.428258e-003 
9.686981e-004 
-2.143976e-003 
-6.081286e-003 
-9.925642e-003 
-1.401517e-002 
-1.661322e-002 
-1.811843e-002 
-1.950844e-002 
-2.305788e-002 
-2.713351e-002 
-3.068468e-002 
-3.374362e-002 
-3.432069e-002 
-3.585772e-002 
-3.810546e-002 
-4.142945e-002 
-4.345567e-002 
-4.420527e-002 
-4.532090e-002 
-4.697988e-002 
-4.729227e-002 
-4.817331e-002 
-4.957758e-002 
-4.959294e-002 
-4.870622e-002 
-4.691152e-002 
-4.810778e-002 
-5.096106e-002 
-5.193932e-002 
-5.136970e-002 
-5.040781e-002 
-5.065752e-002 
-5.240912e-002 
-5.341026e-002 
-5.505748e-002 
-5.842693e-002 
-5.950552e-002 
-5.940964e-002 
-6.069034e-002 
-6.291113e-002 
-6.531258e-002 
-6.608074e-002 
-6.608235e-002 
-6.741633e-002 
-7.057456e-002 
-7.176872e-002 
-7.279711e-002 
-7.466793e-002 
-7.458198e-002 
-7.405435e-002 
-7.626877e-002 
-7.905600e-002 
-8.167215e-002 
-8.345680e-002 
-8.249368e-002 
-8.366600e-002 
-8.635490e-002 
-8.803271e-002 
-9.052696e-002 
-9.290066e-002 
-9.348882e-002 
-9.438138e-002 
-9.532723e-002 
-9.771667e-002 
-1.013922e-001 
-1.032556e-001 
-1.026431e-001 
-1.027422e-001 
-1.041813e-001 
-1.063497e-001 
-1.079990e-001 
-1.091242e-001 
-1.100318e-001 
-1.105333e-001 
-1.109641e-001 
-1.104727e-001 
-1.107803e-001 
-1.105516e-001 
-1.090108e-001 
-1.074655e-001 
-1.077293e-001 
-1.074660e-001 
-1.063350e-001 
-1.046626e-001 
-1.010959e-001 
-9.854476e-002 
-9.719278e-002 
-9.565844e-002 
-9.355880e-002 
-8.970233e-002 
-8.029566e-002 
-5.811104e-002 
-7.473604e-003 
6.860780e-002 
1.353008e-001 
1.749186e-001 
1.984499e-001 
2.184202e-001 
2.378019e-001 
2.624886e-001 
3.073538e-001 
3.687577e-001 
4.033927e-001 
3.858383e-001 
3.494818e-001 
3.280453e-001 
3.194093e-001 
3.101874e-001 
2.979967e-001 
2.756196e-001 
2.255956e-001 
1.437892e-001 
5.604953e-002 
-1.039705e-002 
-5.588576e-002 
-9.449481e-002 
-1.335061e-001 
-1.721904e-001 
-2.092753e-001 
-2.436056e-001 
-2.766139e-001 
-3.100654e-001 
-3.448566e-001 
-3.775313e-001 
-4.078087e-001 
-4.383256e-001 
-4.683819e-001 
-4.998527e-001 
-5.365124e-001 
-5.751817e-001 
-6.150414e-001 
-6.560407e-001 
-6.969034e-001 
-7.419779e-001 
-7.916190e-001 
-8.435221e-001 
-8.982556e-001 
-9.531325e-001 
-1.006182e+000 
-1.061945e+000 
-1.118851e+000 
-1.173833e+000 
-1.224498e+000 
-1.267249e+000 
-1.299749e+000 
-1.322334e+000 
-1.336129e+000 
-1.340958e+000 
-1.335736e+000 
-1.317301e+000 
-1.285174e+000 
-1.244255e+000 
-1.197121e+000 
-1.142532e+000 
-1.080694e+000 
-1.010849e+000 
-9.333506e-001 
-8.529681e-001 
-7.712554e-001 
-6.905465e-001 
-6.144562e-001 
-5.413345e-001 
-4.703614e-001 
-4.020164e-001 
-3.386845e-001 
-2.829294e-001 
-2.328541e-001 
-1.850482e-001 
-1.397713e-001 
-9.951429e-002 
-6.300505e-002 
-2.728109e-002 
7.635112e-003 
3.992202e-002 
6.943822e-002 
9.744390e-002 
1.241937e-001 
1.477082e-001 
1.674968e-001 
1.885531e-001 
2.100858e-001 
2.290179e-001 
2.445904e-001 
2.563030e-001 
2.671769e-001 
2.781295e-001 
2.863138e-001 
2.932394e-001 
3.007375e-001 
3.049134e-001 
3.082162e-001 
3.125127e-001 
3.163572e-001 
3.215994e-001 
3.268121e-001 
3.308517e-001 
3.371233e-001 
3.437217e-001 
3.481883e-001 
3.548990e-001 
3.605458e-001 
3.635827e-001 
3.693282e-001 
3.760923e-001 
3.823616e-001 
3.891895e-001 
3.935635e-001 
3.980914e-001 
4.055971e-001 
4.124273e-001 
4.195467e-001 
4.277334e-001 
4.341823e-001 
4.401568e-001 
4.476365e-001 
4.554694e-001 
4.640253e-001 
4.727775e-001 
4.797909e-001 
4.852020e-001 
4.919579e-001 
5.001661e-001 
5.097448e-001 
5.190678e-001 
5.251120e-001 
5.297996e-001 
5.359725e-001 
5.430554e-001 
5.498064e-001 
5.566630e-001 
5.635096e-001 
5.689341e-001 
5.726901e-001 
5.772774e-001 
5.835104e-001 
5.903079e-001 
5.946992e-001 
5.957170e-001 
5.978645e-001 
6.010897e-001 
6.020943e-001 
6.038741e-001 
6.045119e-001 
6.020187e-001 
5.994486e-001 
5.962520e-001 
5.928358e-001 
5.903519e-001 
5.840016e-001 
5.756879e-001 
5.680341e-001 
5.584208e-001 
5.476539e-001 
5.367474e-001 
5.250185e-001 
5.125500e-001 
4.985070e-001 
4.830903e-001 
4.690284e-001 
4.542690e-001 
4.370434e-001 
4.185041e-001 
4.018942e-001 
3.870119e-001 
3.709065e-001 
3.532951e-001 
3.353641e-001 
3.178916e-001 
2.997594e-001 
2.829595e-001 
2.685998e-001 
2.544480e-001 
2.391737e-001 
2.222995e-001 
2.056472e-001 
1.910343e-001 
1.780082e-001 
1.640035e-001 
1.511065e-001 
1.369195e-001 
1.235951e-001 
1.126376e-001 
1.016334e-001 
9.112231e-002 
8.052934e-002 
6.903347e-002 
5.900871e-002 
5.112104e-002 
4.307083e-002 
3.745128e-002 
2.982313e-002 
2.123406e-002 
1.377542e-002 
6.773777e-003 
1.820357e-003 
-1.810540e-003 
-7.657298e-003 
-1.300320e-002 
-1.692691e-002 
-2.140183e-002 
-2.363577e-002 
-2.638253e-002 
-2.983585e-002 
-3.264134e-002 
-3.529115e-002 
-3.752900e-002 
-3.794141e-002 
-3.889430e-002 
-4.145853e-002 
-4.360984e-002 
-4.566196e-002 
-4.666383e-002 
-4.595634e-002 
-4.539235e-002 
-4.771731e-002 
-5.114316e-002 
-5.400904e-002 
-5.544149e-002 
-5.514682e-002 
-5.670231e-002 
-5.976229e-002 
-6.265784e-002 
-6.651847e-002 
-7.132568e-002 
-7.295977e-002 
-7.249512e-002 
-7.409649e-002 
-7.785254e-002 
-8.272333e-002 
-8.606737e-002 
-8.808990e-002 
-9.090641e-002 
-9.551876e-002 
-9.813174e-002 
-1.011042e-001 
-1.056206e-001 
-1.087703e-001 
-1.118871e-001 
-1.146419e-001 
-1.175409e-001 
-1.219010e-001 
-1.256275e-001 
-1.263418e-001 
-1.292183e-001 
-1.339676e-001 
-1.379421e-001 
-1.411497e-001 
-1.423491e-001 
-1.431241e-001 
-1.458072e-001 
-1.489565e-001 
-1.515253e-001 
-1.553111e-001 
-1.571686e-001 
-1.565208e-001 
-1.565693e-001 
-1.573495e-001 
-1.603669e-001 
-1.639968e-001 
-1.640470e-001 
-1.626083e-001 
-1.621696e-001 
-1.615754e-001 
-1.617697e-001 
-1.624093e-001 
-1.621863e-001 
-1.615096e-001 
-1.595350e-001 
-1.580998e-001 
-1.587174e-001 
-1.590284e-001 
-1.583087e-001 
-1.571853e-001 
-1.550456e-001 
-1.531816e-001 
-1.525350e-001 
-1.524274e-001 
-1.513069e-001 
-1.480669e-001 
-1.433108e-001 
-1.370951e-001 
-1.236181e-001 
-8.825606e-002 
-2.172570e-002 
5.767450e-002 
1.188315e-001 
1.549060e-001 
1.783857e-001 
2.003664e-001 
2.253614e-001 
2.614069e-001 
3.183141e-001 
3.729603e-001 
3.845031e-001 
3.559621e-001 
3.270591e-001 
3.152627e-001 
3.111894e-001 
3.019932e-001 
2.842618e-001 
2.499311e-001 
1.844198e-001 
9.695731e-002 
1.735936e-002 
-3.988519e-002 
-8.252038e-002 
-1.206398e-001 
-1.580627e-001 
-1.933147e-001 
-2.281186e-001 
-2.631124e-001 
-2.986494e-001 
-3.335966e-001 
-3.664418e-001 
-3.970956e-001 
-4.262027e-001 
-4.542330e-001 
-4.819923e-001 
-5.113560e-001 
-5.417298e-001 
-5.737087e-001 
-6.078912e-001 
-6.457325e-001 
-6.868137e-001 
-7.279103e-001 
-7.691925e-001 
-8.130185e-001 
-8.615507e-001 
-9.131690e-001 
-9.670669e-001 
-1.022171e+000 
-1.078583e+000 
-1.133618e+000 
-1.188195e+000 
-1.245650e+000 
-1.304091e+000 
-1.359276e+000 
-1.405474e+000 
-1.441619e+000 
-1.469862e+000 
-1.489954e+000 
-1.498682e+000 
-1.499304e+000 
-1.490655e+000 
-1.470298e+000 
-1.438970e+000 
-1.396498e+000 
-1.345918e+000 
-1.289013e+000 
-1.223343e+000 
-1.150760e+000 
-1.075229e+000 
-9.965583e-001 
-9.169686e-001 
-8.365826e-001 
-7.550875e-001 
-6.774732e-001 
-6.053702e-001 
-5.376299e-001 
-4.744330e-001 
-4.158193e-001 
-3.598350e-001 
-3.066425e-001 
-2.562348e-001 
-2.101599e-001 
-1.691725e-001 
-1.290826e-001 
-8.695619e-002 
-4.586255e-002 
-8.203167e-003 
2.896224e-002 
6.447568e-002 
9.792572e-002 
1.306856e-001 
1.635827e-001 
1.957731e-001 
2.248532e-001 
2.478450e-001 
2.678494e-001 
2.887178e-001 
3.072570e-001 
3.217783e-001 
3.336820e-001 
3.427293e-001 
3.488073e-001 
3.538170e-001 
3.565741e-001 
3.588458e-001 
3.613821e-001 
3.607005e-001 
3.595498e-001 
3.602066e-001 
3.622843e-001 
3.652147e-001 
3.674325e-001 
3.677010e-001 
3.691730e-001 
3.716172e-001 
3.741593e-001 
3.772770e-001 
3.810517e-001 
3.866851e-001 
3.926840e-001 
3.988868e-001 
4.056853e-001 
4.126442e-001 
4.187253e-001 
4.240369e-001 
4.297663e-001 
4.378954e-001 
4.465638e-001 
4.530297e-001 
4.573888e-001 
4.609488e-001 
4.657615e-001 
4.721032e-001 
4.792765e-001 
4.872347e-001 
4.936935e-001 
4.990016e-001 
5.030653e-001 
5.073685e-001 
5.133356e-001 
5.197498e-001 
5.254106e-001 
5.314408e-001 
5.377818e-001 
5.444031e-001 
5.522187e-001 
5.592693e-001 
5.658309e-001 
5.715045e-001 
5.770064e-001 
5.823758e-001 
5.878060e-001 
5.915364e-001 
5.938680e-001 
5.942386e-001 
5.945671e-001 
5.951104e-001 
5.947741e-001 
5.933298e-001 
5.892426e-001 
5.834417e-001 
5.773514e-001 
5.704633e-001 
5.625230e-001 
5.549347e-001 
5.433693e-001 
5.296171e-001 
5.164766e-001 
5.022284e-001 
4.882798e-001 
4.741203e-001 
4.569173e-001 
4.386514e-001 
4.203269e-001 
4.005823e-001 
3.827862e-001 
3.648527e-001 
3.443301e-001 
3.242001e-001 
3.032023e-001 
2.825470e-001 
2.634116e-001 
2.447168e-001 
2.259267e-001 
2.076895e-001 
1.892233e-001 
1.720737e-001 
1.560774e-001 
1.405525e-001 
1.257397e-001 
1.099731e-001 
9.563893e-002 
8.268682e-002 
7.022401e-002 
5.868691e-002 
4.721667e-002 
3.625979e-002 
2.732981e-002 
1.863710e-002 
1.114556e-002 
5.321203e-003 
-1.522261e-003 
-8.228614e-003 
-1.451640e-002 
-1.997678e-002 
-2.373191e-002 
-2.791814e-002 
-3.221217e-002 
-3.513734e-002 
-3.802968e-002 
-4.015275e-002 
-4.263304e-002 
-4.650201e-002 
-5.020212e-002 
-5.360483e-002 
-5.471975e-002 
-5.420126e-002 
-5.439449e-002 
-5.604432e-002 
-5.913212e-002 
-6.350185e-002 
-6.644419e-002 
-6.694798e-002 
-6.458965e-002 
-6.271528e-002 
-6.469761e-002 
-6.764944e-002 
-7.002555e-002 
-7.139912e-002 
-7.113953e-002 
-7.068154e-002 
-7.135247e-002 
-7.218478e-002 
-7.539713e-002 
-7.808882e-002 
-7.848301e-002 
-8.029873e-002 
-8.319035e-002 
-8.554343e-002 
-8.879052e-002 
-9.032752e-002 
-9.128895e-002 
-9.349704e-002 
-9.579808e-002 
-9.986792e-002 
-1.043816e-001 
-1.063554e-001 
-1.082901e-001 
-1.108907e-001 
-1.139400e-001 
-1.186547e-001 
-1.217733e-001 
-1.239077e-001 
-1.255196e-001 
-1.264590e-001 
-1.285191e-001 
-1.327641e-001 
-1.356532e-001 
-1.381698e-001 
-1.391638e-001 
-1.404317e-001 
-1.425653e-001 
-1.446598e-001 
-1.475409e-001 
-1.500317e-001 
-1.522537e-001 
-1.532705e-001 
-1.540338e-001 
-1.560051e-001 
-1.580807e-001 
-1.567269e-001 
-1.558711e-001 
-1.571201e-001 
-1.582891e-001 
-1.590326e-001 
-1.573532e-001 
-1.549472e-001 
-1.541672e-001 
-1.522389e-001 
-1.499916e-001 
-1.510088e-001 
-1.518646e-001 
-1.493637e-001 
-1.454292e-001 
-1.414442e-001 
-1.403900e-001 
-1.391586e-001 
-1.333018e-001 
-1.209871e-001 
-9.537977e-002 
-4.180003e-002 
3.587580e-002 
1.079495e-001 
1.545878e-001 
1.832440e-001 
2.083032e-001 
2.348062e-001 
2.649695e-001 
3.086020e-001 
3.660031e-001 
4.020622e-001 
3.918220e-001 
3.597919e-001 
3.398223e-001 
3.321368e-001 
3.239991e-001 
3.072324e-001 
2.784715e-001 
2.265917e-001 
1.447612e-001 
5.385381e-002 
-1.715821e-002 
-6.501012e-002 
-1.052088e-001 
-1.458477e-001 
-1.875335e-001 
-2.260619e-001 
-2.625893e-001 
-2.978350e-001 
-3.327818e-001 
-3.668018e-001 
-4.018738e-001 
-4.368957e-001 
-4.693943e-001 
-4.983066e-001 
-5.242262e-001 
-5.535259e-001 
-5.861535e-001 
-6.226612e-001 
-6.626197e-001 
-7.038933e-001 
-7.441112e-001 
-7.856450e-001 
-8.297376e-001 
-8.782204e-001 
-9.316684e-001 
-9.856455e-001 
-1.041271e+000 
-1.097147e+000 
-1.152589e+000 
-1.208594e+000 
-1.265799e+000 
-1.320948e+000 
-1.371904e+000 
-1.415433e+000 
-1.449715e+000 
-1.475337e+000 
-1.489186e+000 
-1.492410e+000 
-1.485389e+000 
-1.469657e+000 
-1.444066e+000 
-1.406237e+000 
-1.357532e+000 
-1.301873e+000 
-1.238965e+000 
-1.168953e+000 
-1.094604e+000 
-1.016681e+000 
-9.362661e-001 
-8.531923e-001 
-7.693245e-001 
-6.906128e-001 
-6.178743e-001 
-5.477276e-001 
-4.804660e-001 
-4.164920e-001 
-3.564478e-001 
-3.017442e-001 
-2.519195e-001 
-2.044564e-001 
-1.597231e-001 
-1.163294e-001 
-7.340616e-002 
-3.302386e-002 
3.249736e-003 
3.538311e-002 
6.669602e-002 
9.885456e-002 
1.314676e-001 
1.594916e-001 
1.847116e-001 
2.074723e-001 
2.266961e-001 
2.442680e-001 
2.611648e-001 
2.766489e-001 
2.889796e-001 
2.984520e-001 
3.054106e-001 
3.134637e-001 
3.198036e-001 
3.245218e-001 
3.288558e-001 
3.323427e-001 
3.367998e-001 
3.431336e-001 
3.504847e-001 
3.572486e-001 
3.623526e-001 
3.665341e-001 
3.717495e-001 
3.782555e-001 
3.860339e-001 
3.950077e-001 
4.018631e-001 
4.080456e-001 
4.137296e-001 
4.197549e-001 
4.278384e-001 
4.361495e-001 
4.437580e-001 
4.513636e-001 
4.597334e-001 
4.682013e-001 
4.782128e-001 
4.869309e-001 
4.956677e-001 
5.045299e-001 
5.143578e-001 
5.252861e-001 
5.374023e-001 
5.494956e-001 
5.599457e-001 
5.703739e-001 
5.822311e-001 
5.958934e-001 
6.097102e-001 
6.240275e-001 
6.368150e-001 
6.481342e-001 
6.581630e-001 
6.687629e-001 
6.802189e-001 
6.903554e-001 
6.969577e-001 
7.015758e-001 
7.051985e-001 
7.081307e-001 
7.096710e-001 
7.092829e-001 
7.063141e-001 
7.006462e-001 
6.934304e-001 
6.855335e-001 
6.775716e-001 
6.676003e-001 
6.555704e-001 
6.414524e-001 
6.255980e-001 
6.099924e-001 
5.963903e-001 
5.820001e-001 
5.650842e-001 
5.462239e-001 
5.267509e-001 
5.079915e-001 
4.886937e-001 
4.672364e-001 
4.466151e-001 
4.259993e-001 
4.031528e-001 
3.796274e-001 
3.567899e-001 
3.337821e-001 
3.099688e-001 
2.852876e-001 
2.619276e-001 
2.417473e-001 
2.214562e-001 
2.003483e-001 
1.787382e-001 
1.583092e-001 
1.391665e-001 
1.215965e-001 
1.074471e-001 
9.504831e-002 
8.168204e-002 
6.723453e-002 
5.334868e-002 
4.242024e-002 
3.444435e-002 
2.557373e-002 
1.726371e-002 
1.088827e-002 
3.796570e-003 
-3.181864e-003 
-9.318524e-003 
-1.438245e-002 
-1.885882e-002 
-2.491695e-002 
-3.051860e-002 
-3.229458e-002 
-3.347091e-002 
-3.665319e-002 
-4.117052e-002 
-4.567579e-002 
-4.816686e-002 
-4.935426e-002 
-5.013761e-002 
-5.067335e-002 
-5.154493e-002 
-5.505723e-002 
-5.865800e-002 
-5.982700e-002 
-5.969201e-002 
-5.925370e-002 
-5.985149e-002 
-6.287403e-002 
-6.571782e-002 
-6.647761e-002 
-6.797081e-002 
-6.878881e-002 
-6.992237e-002 
-7.311774e-002 
-7.629435e-002 
-7.893348e-002 
-8.167761e-002 
-8.278917e-002 
-8.487533e-002 
-8.923579e-002 
-9.229091e-002 
-9.448272e-002 
-9.710617e-002 
-9.876143e-002 
-1.002864e-001 
-1.029007e-001 
-1.058083e-001 
-1.086362e-001 
-1.103448e-001 
-1.118200e-001 
-1.148795e-001 
-1.189797e-001 
-1.212658e-001 
-1.225800e-001 
-1.249179e-001 
-1.274773e-001 
-1.304217e-001 
-1.334302e-001 
-1.364807e-001 
-1.387852e-001 
-1.400619e-001 
-1.409910e-001 
-1.433442e-001 
-1.469393e-001 
-1.500253e-001 
-1.517763e-001 
-1.516266e-001 
-1.521146e-001 
-1.535154e-001 
-1.554033e-001 
-1.565132e-001 
-1.570382e-001 
-1.573281e-001 
-1.584064e-001 
-1.592366e-001 
-1.601485e-001 
-1.619134e-001 
-1.627500e-001 
-1.628528e-001 
-1.630121e-001 
-1.640075e-001 
-1.661313e-001 
-1.667035e-001 
-1.650950e-001 
-1.643552e-001 
-1.645515e-001 
-1.658695e-001 
-1.679816e-001 
-1.686641e-001 
-1.681632e-001 
-1.670535e-001 
-1.651238e-001 
-1.656530e-001 
-1.670124e-001 
-1.663087e-001 
-1.643449e-001 
-1.598181e-001 
-1.507197e-001 
-1.320518e-001 
-8.820631e-002 
-1.619176e-002 
5.896825e-002 
1.129770e-001 
1.440744e-001 
1.659282e-001 
1.891406e-001 
2.160187e-001 
2.578566e-001 
3.190127e-001 
3.649237e-001 
3.627672e-001 
3.299392e-001 
3.042860e-001 
2.965415e-001 
2.912995e-001 
2.767519e-001 
2.525205e-001 
2.061409e-001 
1.271038e-001 
3.484480e-002 
-4.190299e-002 
-9.581362e-002 
-1.407768e-001 
-1.870125e-001 
-2.325156e-001 
-2.743774e-001 
-3.154722e-001 
-3.570188e-001 
-3.990969e-001 
-4.409355e-001 
-4.810910e-001 
-5.185322e-001 
-5.521393e-001 
-5.838051e-001 
-6.159486e-001 
-6.485991e-001 
-6.819586e-001 
-7.166501e-001 
-7.544548e-001 
-7.943953e-001 
-8.345710e-001 
-8.748078e-001 
-9.166909e-001 
-9.593870e-001 
-1.003392e+000 
-1.051270e+000 
-1.102137e+000 
-1.153826e+000 
-1.203627e+000 
-1.251960e+000 
-1.300702e+000 
-1.351172e+000 
-1.399474e+000 
-1.442804e+000 
-1.476809e+000 
-1.497745e+000 
-1.508330e+000 
-1.511286e+000 
-1.505781e+000 
-1.491159e+000 
-1.465877e+000 
-1.427195e+000 
-1.377451e+000 
-1.319074e+000 
-1.254498e+000 
-1.186329e+000 
-1.112356e+000 
-1.030182e+000 
-9.428585e-001 
-8.549428e-001 
-7.689546e-001 
-6.870707e-001 
-6.085164e-001 
-5.315858e-001 
-4.579519e-001 
-3.890129e-001 
-3.246899e-001 
-2.655456e-001 
-2.120294e-001 
-1.624466e-001 
-1.153519e-001 
-7.085304e-002 
-2.890276e-002 
8.677710e-003 
4.349482e-002 
7.768069e-002 
1.103935e-001 
1.389567e-001 
1.646685e-001 
1.888178e-001 
2.117080e-001 
2.333779e-001 
2.529115e-001 
2.701134e-001 
2.829903e-001 
2.927746e-001 
3.011455e-001 
3.100684e-001 
3.188157e-001 
3.255345e-001 
3.306361e-001 
3.353448e-001 
3.390024e-001 
3.429939e-001 
3.494269e-001 
3.561647e-001 
3.629163e-001 
3.684264e-001 
3.742357e-001 
3.832351e-001 
3.926237e-001 
4.000579e-001 
4.074163e-001 
4.148640e-001 
4.232833e-001 
4.334745e-001 
4.426755e-001 
4.524745e-001 
4.620634e-001 
4.687656e-001 
4.759417e-001 
4.857593e-001 
4.967003e-001 
5.076611e-001 
5.169582e-001 
5.249506e-001 
5.339729e-001 
5.435380e-001 
5.537000e-001 
5.654393e-001 
5.758407e-001 
5.839283e-001 
5.919365e-001 
6.012814e-001 
6.111794e-001 
6.198392e-001 
6.278527e-001 
6.359910e-001 
6.433463e-001 
6.491284e-001 
6.546896e-001 
6.601411e-001 
6.643607e-001 
6.661860e-001 
6.664116e-001 
6.681278e-001 
6.691882e-001 
6.672478e-001 
6.635432e-001 
6.587338e-001 
6.530219e-001 
6.478523e-001 
6.412708e-001 
6.325330e-001 
6.231408e-001 
6.114887e-001 
5.981499e-001 
5.840300e-001 
5.681671e-001 
5.513879e-001 
5.335465e-001 
5.139159e-001 
4.945719e-001 
4.763937e-001 
4.571097e-001 
4.346380e-001 
4.104716e-001 
3.868357e-001 
3.645656e-001 
3.433546e-001 
3.237095e-001 
3.039285e-001 
2.824681e-001 
2.603671e-001 
2.391733e-001 
2.213172e-001 
2.062489e-001 
1.918709e-001 
1.775111e-001 
1.637529e-001 
1.501970e-001 
1.383939e-001 
1.285847e-001 
1.184129e-001 
1.087055e-001 
9.973784e-002 
9.196434e-002 
8.484177e-002 
7.823452e-002 
7.158828e-002 
6.413059e-002 
5.580844e-002 
4.761603e-002 
4.161641e-002 
3.715461e-002 
3.194315e-002 
2.431251e-002 
1.674955e-002 
9.379123e-003 
3.309085e-003 
-1.456587e-003 
-6.368856e-003 
-1.056888e-002 
-1.540467e-002 
-2.119383e-002 
-2.514731e-002 
-2.748491e-002 
-2.996704e-002 
-3.085526e-002 
-3.219849e-002 
-3.293535e-002 
-3.218215e-002 
-3.315675e-002 
-3.499007e-002 
-3.662105e-002 
-3.876992e-002 
-4.089228e-002 
-4.263819e-002 
-4.466894e-002 
-4.683697e-002 
-5.162662e-002 
-5.911781e-002 
-6.480237e-002 
-6.806315e-002 
-7.174164e-002 
-7.747241e-002 
-8.368115e-002 
-8.939207e-002 
-9.556452e-002 
-1.028712e-001 
-1.084152e-001 
-1.127281e-001 
-1.177402e-001 
-1.230342e-001 
-1.274645e-001 
-1.295559e-001 
-1.308289e-001 
-1.333791e-001 
-1.363207e-001 
-1.390792e-001 
-1.426566e-001 
-1.434475e-001 
-1.434008e-001 
-1.448041e-001 
-1.468718e-001 
-1.489136e-001 
-1.512982e-001 
-1.526480e-001 
-1.533578e-001 
-1.546053e-001 
-1.547458e-001 
-1.566571e-001 
-1.594133e-001 
-1.601405e-001 
-1.598239e-001 
-1.627417e-001 
-1.652308e-001 
-1.682125e-001 
-1.714262e-001 
-1.707662e-001 
-1.705413e-001 
-1.711700e-001 
-1.709043e-001 
-1.718953e-001 
-1.738267e-001 
-1.723023e-001 
-1.704937e-001 
-1.677160e-001 
-1.658304e-001 
-1.660341e-001 
-1.653715e-001 
-1.621669e-001 
-1.587069e-001 
-1.551578e-001 
-1.499822e-001 
-1.456154e-001 
-1.413041e-001 
-1.350524e-001 
-1.265501e-001 
-1.172882e-001 
-1.054383e-001 
-8.907010e-002 
-5.053642e-002 
2.372668e-002 
1.103173e-001 
1.811510e-001 
2.335344e-001 
2.763479e-001 
3.196313e-001 
3.670196e-001 
4.246508e-001 
5.063514e-001 
5.865655e-001 
6.168952e-001 
6.035767e-001 
5.822834e-001 
5.625330e-001 
5.360429e-001 
4.973605e-001 
4.471406e-001 
3.792235e-001 
2.772958e-001 
1.477100e-001 
2.397438e-002 
-7.987447e-002 
-1.704169e-001 
-2.517897e-001 
-3.202415e-001 
-3.767412e-001 
-4.257399e-001 
-4.682063e-001 
-5.018443e-001 
-5.231888e-001 
-5.312265e-001 
-5.250157e-001 
-5.054519e-001 
-4.747983e-001 
-4.397697e-001 
-4.029346e-001 
-3.653237e-001 
-3.280767e-001 
-2.960339e-001 
-2.702615e-001 
-2.491960e-001 
-2.323099e-001 
-2.177911e-001 
-2.058715e-001 
-1.984575e-001 
-1.952106e-001 
-1.934867e-001 
-1.939174e-001 
-1.933873e-001 
-1.930816e-001 
-1.947904e-001 
-1.960451e-001 
-1.978099e-001 
-2.010327e-001 
-2.023715e-001 
-2.028647e-001 
-2.052022e-001 
-2.082163e-001 
-2.125180e-001 
-2.169926e-001 
-2.182198e-001 
-2.201597e-001 
-2.229038e-001 
-2.263673e-001 
-2.316749e-001 
-2.368482e-001 
-2.396997e-001 
-2.422647e-001 
-2.442848e-001 
-2.460837e-001 
-2.505306e-001 
-2.542144e-001 
-2.574010e-001 
-2.595165e-001 
-2.612072e-001 
-2.649027e-001 
-2.688231e-001 
-2.707579e-001 
-2.733541e-001 
-2.760266e-001 
-2.779633e-001 
-2.813956e-001 
-2.852903e-001 
-2.890866e-001 
-2.924533e-001 
-2.931610e-001 
-2.942268e-001 
-2.978255e-001 
-3.017067e-001 
-3.037731e-001 
-3.048806e-001 
-3.047260e-001 
-3.045668e-001 
-3.053467e-001 
-3.058488e-001 
-3.060812e-001 
-3.052407e-001 
-3.022533e-001 
-2.978986e-001 
-2.953301e-001 
-2.929118e-001 
-2.890562e-001 
-2.843169e-001 
-2.789741e-001 
-2.724485e-001 
-2.667057e-001 
-2.618921e-001 
-2.571053e-001 
-2.516022e-001 
-2.433409e-001 
-2.347990e-001 
-2.284514e-001 
-2.216915e-001 
-2.129512e-001 
-2.036121e-001 
-1.941240e-001 
-1.835108e-001 
-1.721045e-001 
-1.611735e-001 
-1.511769e-001 
-1.402656e-001 
-1.264391e-001 
-1.116044e-001 
-9.860860e-002 
-8.613510e-002 
-7.162483e-002 
-5.785214e-002 
-4.467046e-002 
-3.177409e-002 
-1.928370e-002 
-7.093964e-003 
3.877766e-003 
1.489997e-002 
2.669749e-002 
3.633154e-002 
4.339038e-002 
5.030001e-002 
5.667165e-002 
6.368445e-002 
6.996947e-002 
7.504805e-002 
7.942628e-002 
8.077723e-002 
8.167254e-002 
8.397316e-002 
8.562432e-002 
8.667470e-002 
8.744277e-002 
8.637473e-002 
8.557209e-002 
8.442966e-002 
8.199066e-002 
8.034215e-002 
7.739136e-002 
7.422211e-002 
7.225778e-002 
7.091141e-002 
6.873840e-002 
6.608657e-002 
6.180696e-002 
5.736621e-002 
5.474666e-002 
5.398195e-002 
5.375514e-002 
5.158890e-002 
4.850852e-002 
4.336996e-002 
3.892244e-002 
3.685581e-002 
3.669736e-002 
3.604854e-002 
3.406870e-002 
3.126549e-002 
2.845145e-002 
2.707239e-002 
2.555772e-002 
2.587233e-002 
2.514521e-002 
2.196048e-002 
1.934295e-002 
2.065476e-002 
2.227967e-002 
2.169466e-002 
2.055910e-002 
1.990359e-002 
2.086796e-002 
2.075823e-002 
2.246626e-002 
2.553458e-002 
2.780526e-002 
2.688319e-002 
2.474369e-002 
2.544720e-002 
2.878535e-002 
3.153185e-002 
3.265534e-002 
3.349819e-002 
3.382562e-002 
3.564282e-002 
3.637862e-002 
3.618790e-002 
3.782362e-002 
3.853435e-002 
3.814333e-002 
3.840393e-002 
3.898827e-002 
3.996176e-002 
3.959233e-002 
3.730444e-002 
3.564914e-002 
3.594381e-002 
3.601476e-002 
3.621459e-002 
3.563023e-002 
3.436300e-002 
3.294560e-002 
3.332037e-002 
3.515347e-002 
3.618468e-002 
3.709438e-002 
3.737106e-002 
3.881393e-002 
4.032928e-002 
4.228569e-002 
4.426803e-002 
4.680544e-002 
4.880797e-002 
5.091501e-002 
5.488213e-002 
5.999889e-002 
6.332493e-002 
6.480406e-002 
6.779231e-002 
6.966098e-002 
7.273672e-002 
7.644331e-002 
7.866857e-002 
7.922855e-002 
7.702288e-002 
7.389881e-002 
7.480428e-002 
7.510786e-002 
7.115073e-002 
6.795627e-002 
6.375470e-002 
5.877133e-002 
5.326431e-002 
4.836407e-002 
4.571547e-002 
4.174410e-002 
3.402680e-002 
2.780185e-002 
2.590903e-002 
2.411071e-002 
2.147050e-002 
1.888509e-002 
1.891102e-002 
1.874649e-002 
1.815699e-002 
1.976786e-002 
2.260532e-002 
2.336656e-002 
2.055522e-002 
1.946965e-002 
2.190841e-002 
2.423667e-002 
2.254935e-002 
2.124987e-002 
2.027854e-002 
1.730757e-002 
1.384926e-002 
1.294151e-002 
1.366812e-002 
1.282901e-002 
8.542322e-003 
3.975371e-003 
3.516691e-003 
4.193023e-003 
4.679689e-003 
7.945367e-003 
1.765726e-002 
4.860683e-002 
1.106805e-001 
1.789064e-001 
2.263681e-001 
2.531538e-001 
2.715950e-001 
2.903195e-001 
3.119446e-001 
3.453189e-001 
4.003315e-001 
4.484656e-001 
4.501467e-001 
4.196455e-001 
3.977270e-001 
3.940753e-001 
3.936939e-001 
3.862371e-001 
3.717209e-001 
3.407253e-001 
2.822063e-001 
2.063114e-001 
1.417829e-001 
1.010727e-001 
7.153873e-002 
4.097311e-002 
1.080780e-002 
-1.520679e-002 
-3.962727e-002 
-6.194499e-002 
-8.600379e-002 
-1.093806e-001 
-1.289485e-001 
-1.465789e-001 
-1.643103e-001 
-1.793655e-001 
-1.925982e-001 
-2.048292e-001 
-2.143534e-001 
-2.237697e-001 
-2.323593e-001 
-2.403918e-001 
-2.471247e-001 
-2.523683e-001 
-2.537364e-001 
-2.559260e-001 
-2.621798e-001 
-2.747307e-001 
-2.937843e-001 
-3.159323e-001 
-3.378195e-001 
-3.602985e-001 
-3.835383e-001 
-4.073373e-001 
-4.352794e-001 
-4.625814e-001 
-4.848656e-001 
-4.994631e-001 
-5.059278e-001 
-5.071938e-001 
-5.049737e-001 
-4.968643e-001 
-4.856371e-001 
-4.705168e-001 
-4.472765e-001 
-4.166007e-001 
-3.792151e-001 
-3.366167e-001 
-2.916668e-001 
-2.451557e-001 
-2.000302e-001 
-1.578828e-001 
-1.176743e-001 
-8.165013e-002 
-5.040512e-002 
-2.358347e-002 
-3.018070e-003 
9.809489e-003 
1.843087e-002 
2.569732e-002 
3.262304e-002 
3.750227e-002 
3.961336e-002 
4.039355e-002 
4.099418e-002 
4.034447e-002 
3.952310e-002 
4.182348e-002 
4.352883e-002 
4.245468e-002 
4.084520e-002 
3.977259e-002 
4.090750e-002 
4.387059e-002 
4.411288e-002 
4.371047e-002 
4.348903e-002 
4.162136e-002 
4.180133e-002 
4.381856e-002 
4.467458e-002 
4.545455e-002 
4.478259e-002 
4.301997e-002 
4.427300e-002 
4.618824e-002 
4.774029e-002 
4.977421e-002 
5.052973e-002 
5.092511e-002 
5.272510e-002 
5.392412e-002 
5.511036e-002 
5.754224e-002 
5.897143e-002 
6.087318e-002 
6.398129e-002 
6.717819e-002 
7.038788e-002 
7.254831e-002 
7.441979e-002 
7.821292e-002 
8.324016e-002 
8.744616e-002 
9.162888e-002 
9.451497e-002 
9.599267e-002 
9.894702e-002 
1.044533e-001 
1.120778e-001 
1.180803e-001 
1.216976e-001 
1.252754e-001 
1.298052e-001 
1.338985e-001 
1.394590e-001 
1.470799e-001 
1.538512e-001 
1.577149e-001 
1.599793e-001 
1.645241e-001 
1.709654e-001 
1.766157e-001 
1.808245e-001 
1.863556e-001 
1.920087e-001 
1.959394e-001 
1.983736e-001 
2.011238e-001 
2.045305e-001 
2.074397e-001 
2.094570e-001 
2.123353e-001 
2.164245e-001 
2.183538e-001 
2.180133e-001 
2.171367e-001 
2.174755e-001 
2.187874e-001 
2.192872e-001 
2.190508e-001 
2.186386e-001 
2.170162e-001 
2.144678e-001 
2.127147e-001 
2.109012e-001 
2.093778e-001 
2.066165e-001 
2.024089e-001 
1.991581e-001 
1.965840e-001 
1.937897e-001 
1.889739e-001 
1.834377e-001 
1.783207e-001 
1.738831e-001 
1.696887e-001 
1.657546e-001 
1.611427e-001 
1.560173e-001 
1.491372e-001 
1.420341e-001 
1.388137e-001 
1.353769e-001 
1.307067e-001 
1.261706e-001 
1.212150e-001 
1.160596e-001 
1.133484e-001 
1.104268e-001 
1.066912e-001 
1.026637e-001 
9.747273e-002 
9.484322e-002 
9.368911e-002 
9.148380e-002 
8.831995e-002 
8.634478e-002 
8.263790e-002 
7.798820e-002 
7.580030e-002 
7.590749e-002 
7.593613e-002 
7.195271e-002 
6.643484e-002 
6.332840e-002 
6.349166e-002 
6.259265e-002 
6.004657e-002 
5.868260e-002 
5.782565e-002 
5.492260e-002 
5.170954e-002 
5.179199e-002 
5.194889e-002 
4.997034e-002 
4.579181e-002 
4.280245e-002 
4.312749e-002 
4.304258e-002 
4.139539e-002 
4.012019e-002 
3.805031e-002 
3.438584e-002 
3.303556e-002 
3.367707e-002 
3.378703e-002 
3.238134e-002 
2.928881e-002 
2.649119e-002 
2.486976e-002 
2.355653e-002 
2.289945e-002 
2.309897e-002 
2.195589e-002 
1.945624e-002 
1.721920e-002 
1.565451e-002 
1.507688e-002 
1.474150e-002 
1.371861e-002 
1.268763e-002 
1.292568e-002 
1.313208e-002 
1.175520e-002 
1.005373e-002 
1.003428e-002 
1.163164e-002 
1.332884e-002 
1.281192e-002 
1.085595e-002 
9.808648e-003 
8.199654e-003 
6.607434e-003 
6.812302e-003 
7.990560e-003 
7.627615e-003 
4.087581e-003 
-1.365924e-003 
-4.064381e-003 
-4.704408e-003 
-5.222532e-003 
-7.064150e-003 
-1.010424e-002 
-1.313207e-002 
-1.668028e-002 
-1.940526e-002 
-2.069057e-002 
-2.234159e-002 
-2.406773e-002 
-2.611108e-002 
-2.958128e-002 
-3.135038e-002 
-3.247792e-002 
-3.491243e-002 
-3.809343e-002 
-4.190955e-002 
-4.413731e-002 
-4.322849e-002 
-4.352093e-002 
-4.507230e-002 
-4.644679e-002 
-4.817710e-002 
-4.928898e-002 
-4.849830e-002 
-4.595391e-002 
-4.312414e-002 
-4.241959e-002 
-4.345159e-002 
-4.153119e-002 
-3.731355e-002 
-3.262953e-002 
-2.828997e-002 
-2.461506e-002 
-2.175143e-002 
-1.984178e-002 
-1.691110e-002 
-1.174300e-002 
-6.186232e-003 
-3.482732e-003 
-1.483573e-003 
1.180598e-004 
2.965799e-003 
7.549872e-003 
1.303307e-002 
2.400367e-002 
5.330504e-002 
1.127095e-001 
1.847085e-001 
2.385538e-001 
2.685098e-001 
2.882189e-001 
3.048098e-001 
3.224773e-001 
3.512579e-001 
4.023541e-001 
4.539072e-001 
4.622078e-001 
4.318251e-001 
4.034666e-001 
3.932344e-001 
3.902407e-001 
3.829237e-001 
3.687949e-001 
3.399902e-001 
2.812718e-001 
2.007896e-001 
1.294992e-001 
8.062440e-002 
4.518043e-002 
1.045473e-002 
-2.580921e-002 
-5.775134e-002 
-8.750273e-002 
-1.184811e-001 
-1.505987e-001 
-1.840923e-001 
-2.172145e-001 
-2.474210e-001 
-2.779946e-001 
-3.078430e-001 
-3.350538e-001 
-3.629709e-001 
-3.913356e-001 
-4.185578e-001 
-4.470101e-001 
-4.773533e-001 
-5.107531e-001 
-5.496895e-001 
-5.898736e-001 
-6.294335e-001 
-6.692004e-001 
-7.107914e-001 
-7.560668e-001 
-8.051899e-001 
-8.563583e-001 
-9.088364e-001 
-9.619134e-001 
-1.015751e+000 
-1.069963e+000 
-1.125316e+000 
-1.181659e+000 
-1.234812e+000 
-1.281071e+000 
-1.320418e+000 
-1.352111e+000 
-1.374845e+000 
-1.389337e+000 
-1.393535e+000 
-1.388370e+000 
-1.373683e+000 
-1.348437e+000 
-1.312486e+000 
-1.269194e+000 
-1.217991e+000 
-1.159884e+000 
-1.096257e+000 
-1.026906e+000 
-9.533128e-001 
-8.752940e-001 
-7.944421e-001 
-7.147010e-001 
-6.403926e-001 
-5.693438e-001 
-5.015190e-001 
-4.359149e-001 
-3.736459e-001 
-3.144713e-001 
-2.580948e-001 
-2.074093e-001 
-1.628872e-001 
-1.202553e-001 
-7.741386e-002 
-3.641537e-002 
1.545364e-003 
3.547794e-002 
6.856279e-002 
9.962267e-002 
1.283169e-001 
1.551938e-001 
1.819060e-001 
2.049267e-001 
2.236598e-001 
2.411867e-001 
2.586293e-001 
2.759938e-001 
2.903854e-001 
3.018369e-001 
3.102848e-001 
3.183540e-001 
3.242835e-001 
3.300518e-001 
3.362524e-001 
3.415100e-001 
3.467989e-001 
3.513990e-001 
3.560699e-001 
3.613020e-001 
3.668150e-001 
3.706721e-001 
3.755816e-001 
3.809204e-001 
3.876450e-001 
3.946592e-001 
3.986292e-001 
4.020874e-001 
4.062831e-001 
4.108164e-001 
4.164536e-001 
4.238722e-001 
4.311358e-001 
4.379881e-001 
4.433055e-001 
4.489622e-001 
4.573306e-001 
4.662166e-001 
4.734006e-001 
4.813722e-001 
4.898484e-001 
4.970146e-001 
5.048827e-001 
5.135124e-001 
5.217376e-001 
5.285183e-001 
5.340588e-001 
5.407920e-001 
5.498242e-001 
5.568895e-001 
5.616257e-001 
5.662108e-001 
5.702024e-001 
5.741980e-001 
5.787519e-001 
5.829141e-001 
5.853882e-001 
5.865040e-001 
5.859929e-001 
5.845923e-001 
5.847266e-001 
5.858187e-001 
5.846567e-001 
5.802932e-001 
5.739274e-001 
5.675608e-001 
5.632991e-001 
5.575818e-001 
5.492723e-001 
5.398166e-001 
5.290643e-001 
5.171615e-001 
5.056130e-001 
4.947637e-001 
4.832013e-001 
4.706121e-001 
4.557318e-001 
4.399035e-001 
4.247750e-001 
4.119239e-001 
3.968183e-001 
3.800134e-001 
3.629435e-001 
3.463325e-001 
3.314444e-001 
3.162075e-001 
2.996271e-001 
2.824379e-001 
2.649343e-001 
2.462343e-001 
2.301133e-001 
2.153353e-001 
2.005106e-001 
1.851425e-001 
1.689268e-001 
1.531414e-001 
1.387275e-001 
1.254855e-001 
1.124004e-001 
9.993616e-002 
8.679165e-002 
7.431859e-002 
6.397592e-002 
5.449444e-002 
4.502631e-002 
3.554951e-002 
2.640104e-002 
1.819063e-002 
1.253424e-002 
6.848177e-003 
1.583462e-003 
-3.359368e-003 
-8.453244e-003 
-1.320090e-002 
-1.756886e-002 
-2.059803e-002 
-2.253992e-002 
-2.448613e-002 
-2.743502e-002 
-2.912084e-002 
-3.010476e-002 
-3.112625e-002 
-3.381955e-002 
-3.698951e-002 
-3.876002e-002 
-3.945260e-002 
-3.948631e-002 
-3.977307e-002 
-4.113356e-002 
-4.362734e-002 
-4.533215e-002 
-4.673820e-002 
-4.603065e-002 
-4.476523e-002 
-4.495013e-002 
-4.637860e-002 
-4.781035e-002 
-4.805843e-002 
-4.668178e-002 
-4.501111e-002 
-4.461104e-002 
-4.585023e-002 
-4.849240e-002 
-4.940894e-002 
-4.767571e-002 
-4.578691e-002 
-4.674686e-002 
-4.861826e-002 
-4.958729e-002 
-5.063032e-002 
-5.113503e-002 
-4.993536e-002 
-4.884184e-002 
-4.985943e-002 
-5.355677e-002 
-5.675612e-002 
-5.582815e-002 
-5.487649e-002 
-5.637547e-002 
-5.771100e-002 
-6.014898e-002 
-6.278265e-002 
-6.404868e-002 
-6.491173e-002 
-6.519954e-002 
-6.649095e-002 
-7.057550e-002 
-7.374557e-002 
-7.549804e-002 
-7.784254e-002 
-8.013667e-002 
-8.287459e-002 
-8.593179e-002 
-8.857724e-002 
-9.053680e-002 
-9.180352e-002 
-9.354286e-002 
-9.722881e-002 
-1.012752e-001 
-1.041353e-001 
-1.056866e-001 
-1.067686e-001 
-1.084101e-001 
-1.109553e-001 
-1.140667e-001 
-1.161969e-001 
-1.157340e-001 
-1.140279e-001 
-1.137336e-001 
-1.152732e-001 
-1.164102e-001 
-1.174649e-001 
-1.185846e-001 
-1.182651e-001 
-1.166324e-001 
-1.159567e-001 
-1.165615e-001 
-1.179724e-001 
-1.175570e-001 
-1.151960e-001 
-1.151961e-001 
-1.164904e-001 
-1.163163e-001 
-1.159916e-001 
-1.153421e-001 
-1.145585e-001 
-1.153224e-001 
-1.145841e-001 
-1.138813e-001 
-1.132916e-001 
-1.083344e-001 
-9.929816e-002 
-8.400107e-002 
-4.605498e-002 
2.160029e-002 
9.885398e-002 
1.582842e-001 
1.942999e-001 
2.207061e-001 
2.456696e-001 
2.710978e-001 
3.080348e-001 
3.671517e-001 
4.209717e-001 
4.298824e-001 
4.017061e-001 
3.762459e-001 
3.679253e-001 
3.653163e-001 
3.579439e-001 
3.409775e-001 
3.053398e-001 
2.370340e-001 
1.490290e-001 
7.292310e-002 
2.084732e-002 
-1.893642e-002 
-5.745790e-002 
-9.657166e-002 
-1.335787e-001 
-1.672121e-001 
-1.994335e-001 
-2.308852e-001 
-2.645032e-001 
-2.999619e-001 
-3.351766e-001 
-3.668638e-001 
-3.962297e-001 
-4.254564e-001 
-4.546742e-001 
-4.852958e-001 
-5.190696e-001 
-5.569186e-001 
-5.984710e-001 
-6.411130e-001 
-6.829577e-001 
-7.285440e-001 
-7.754076e-001 
-8.230167e-001 
-8.752235e-001 
-9.305987e-001 
-9.876727e-001 
-1.045372e+000 
-1.100798e+000 
-1.155575e+000 
-1.211020e+000 
-1.265557e+000 
-1.319167e+000 
-1.366913e+000 
-1.404419e+000 
-1.431300e+000 
-1.449090e+000 
-1.458367e+000 
-1.457630e+000 
-1.447214e+000 
-1.427286e+000 
-1.394048e+000 
-1.348962e+000 
-1.296736e+000 
-1.238813e+000 
-1.176190e+000 
-1.105399e+000 
-1.025998e+000 
-9.443659e-001 
-8.633669e-001 
-7.812099e-001 
-7.005092e-001 
-6.236274e-001 
-5.493778e-001 
-4.784354e-001 
-4.115155e-001 
-3.502556e-001 
-2.959289e-001 
-2.451046e-001 
-1.929636e-001 
-1.440139e-001 
-1.010254e-001 
-6.094893e-002 
-2.423047e-002 
1.033093e-002 
4.429264e-002 
7.612958e-002 
1.067681e-001 
1.362014e-001 
1.609271e-001 
1.837168e-001 
2.066105e-001 
2.272619e-001 
2.459364e-001 
2.609896e-001 
2.731209e-001 
2.848027e-001 
2.957933e-001 
3.058543e-001 
3.136222e-001 
3.186378e-001 
3.240110e-001 
3.289150e-001 
3.338314e-001 
3.409150e-001 
3.475666e-001 
3.541133e-001 
3.596479e-001 
3.633286e-001 
3.700977e-001 
3.778517e-001 
3.830142e-001 
3.892442e-001 
3.947886e-001 
4.003234e-001 
4.082726e-001 
4.153287e-001 
4.211880e-001 
4.279482e-001 
4.338639e-001 
4.402766e-001 
4.468727e-001 
4.532109e-001 
4.610473e-001 
4.685654e-001 
4.742048e-001 
4.795404e-001 
4.873733e-001 
4.964214e-001 
5.035405e-001 
5.095732e-001 
5.171600e-001 
5.244488e-001 
5.320671e-001 
5.397554e-001 
5.468664e-001 
5.551220e-001 
5.623141e-001 
5.681837e-001 
5.762651e-001 
5.835796e-001 
5.881137e-001 
5.929407e-001 
5.967787e-001 
6.001113e-001 
6.039561e-001 
6.057576e-001 
6.067558e-001 
6.059781e-001 
6.015570e-001 
5.983654e-001 
5.965156e-001 
5.917186e-001 
5.844927e-001 
5.765593e-001 
5.673531e-001 
5.577361e-001 
5.461690e-001 
5.352397e-001 
5.246972e-001 
5.106434e-001 
4.939395e-001 
4.784278e-001 
4.649790e-001 
4.498606e-001 
4.322097e-001 
4.133998e-001 
3.954005e-001 
3.761914e-001 
3.575781e-001 
3.394784e-001 
3.215862e-001 
3.026100e-001 
2.809576e-001 
2.603899e-001 
2.431752e-001 
2.266593e-001 
2.098089e-001 
1.929445e-001 
1.760350e-001 
1.607971e-001 
1.458182e-001 
1.317867e-001 
1.199769e-001 
1.075282e-001 
9.397121e-002 
8.174260e-002 
7.177887e-002 
6.419365e-002 
5.500594e-002 
4.549690e-002 
3.714742e-002 
2.963510e-002 
2.228673e-002 
1.583504e-002 
1.030729e-002 
5.681089e-003 
-7.895114e-004 
-7.951499e-003 
-1.117847e-002 
-1.457415e-002 
-1.734647e-002 
-1.981490e-002 
-2.199318e-002 
-2.346935e-002 
-2.509684e-002 
-2.837031e-002 
-2.985070e-002 
-3.091960e-002 
-3.314241e-002 
-3.329476e-002 
-3.355806e-002 
-3.433141e-002 
-3.637487e-002 
-3.903778e-002 
-4.114833e-002 
-4.062758e-002 
-3.936858e-002 
-3.887612e-002 
-4.084818e-002 
-4.460788e-002 
-4.712209e-002 
-4.846174e-002 
-4.829654e-002 
-4.704244e-002 
-4.647067e-002 
-4.789024e-002 
-5.144096e-002 
-5.464176e-002 
-5.453464e-002 
-5.355259e-002 
-5.501465e-002 
-5.832940e-002 
-6.133177e-002 
-6.469554e-002 
-6.709151e-002 
-6.849705e-002 
-6.971342e-002 
-7.189712e-002 
-7.586093e-002 
-8.123120e-002 
-8.388599e-002 
-8.543334e-002 
-8.919016e-002 
-9.165559e-002 
-9.462434e-002 
-9.885735e-002 
-1.020969e-001 
-1.049124e-001 
-1.081433e-001 
-1.099177e-001 
-1.128768e-001 
-1.155344e-001 
-1.167223e-001 
-1.195119e-001 
-1.233099e-001 
-1.270819e-001 
-1.310538e-001 
-1.336873e-001 
-1.332046e-001 
-1.329711e-001 
-1.350549e-001 
-1.382256e-001 
-1.411544e-001 
-1.440356e-001 
-1.445593e-001 
-1.440429e-001 
-1.431095e-001 
-1.433276e-001 
-1.469184e-001 
-1.492067e-001 
-1.489668e-001 
-1.485810e-001 
-1.481447e-001 
-1.470494e-001 
-1.462601e-001 
-1.456778e-001 
-1.461088e-001 
-1.456826e-001 
-1.441602e-001 
-1.447013e-001 
-1.447385e-001 
-1.431846e-001 
-1.409798e-001 
-1.393791e-001 
-1.391629e-001 
-1.392661e-001 
-1.392519e-001 
-1.383723e-001 
-1.354597e-001 
-1.310770e-001 
-1.277414e-001 
-1.242060e-001 
-1.171697e-001 
-9.691715e-002 
-4.687381e-002 
3.108719e-002 
1.041955e-001 
1.481775e-001 
1.712059e-001 
1.905206e-001 
2.133100e-001 
2.408198e-001 
2.842856e-001 
3.452994e-001 
3.828317e-001 
3.674960e-001 
3.311175e-001 
3.116952e-001 
3.066773e-001 
2.986559e-001 
2.820716e-001 
2.578836e-001 
2.117001e-001 
1.316542e-001 
4.214968e-002 
-2.515524e-002 
-7.045355e-002 
-1.107288e-001 
-1.509003e-001 
-1.887133e-001 
-2.244715e-001 
-2.619430e-001 
-2.998457e-001 
-3.349629e-001 
-3.673335e-001 
-3.993268e-001 
-4.306491e-001 
-4.607496e-001 
-4.910470e-001 
-5.213939e-001 
-5.518448e-001 
-5.834490e-001 
-6.176230e-001 
-6.538850e-001 
-6.911652e-001 
-7.292705e-001 
-7.681481e-001 
-8.081271e-001 
-8.495452e-001 
-8.927649e-001 
-9.390616e-001 
-9.854887e-001 
-1.030438e+000 
-1.077067e+000 
-1.124343e+000 
-1.168508e+000 
-1.207212e+000 
-1.237833e+000 
-1.260081e+000 
-1.274195e+000 
-1.279342e+000 
-1.276636e+000 
-1.264416e+000 
-1.239137e+000 
-1.200914e+000 
-1.153646e+000 
-1.101966e+000 
-1.044474e+000 
-9.797067e-001 
-9.089993e-001 
-8.317667e-001 
-7.496432e-001 
-6.666557e-001 
-5.858086e-001 
-5.096452e-001 
-4.372453e-001 
-3.648990e-001 
-2.960963e-001 
-2.327051e-001 
-1.738305e-001 
-1.210007e-001 
-7.267562e-002 
-2.758182e-002 
1.314562e-002 
5.013330e-002 
8.429521e-002 
1.147798e-001 
1.433174e-001 
1.706062e-001 
1.964966e-001 
2.210622e-001 
2.424635e-001 
2.605481e-001 
2.775415e-001 
2.943188e-001 
3.088226e-001 
3.209333e-001 
3.319915e-001 
3.426835e-001 
3.522918e-001 
3.596542e-001 
3.652008e-001 
3.709570e-001 
3.757017e-001 
3.787787e-001 
3.832015e-001 
3.897099e-001 
3.962625e-001 
4.000660e-001 
4.011237e-001 
4.031665e-001 
4.071234e-001 
4.104256e-001 
4.142106e-001 
4.165886e-001 
4.181862e-001 
4.196011e-001 
4.191122e-001 
4.205759e-001 
4.245322e-001 
4.273048e-001 
4.295709e-001 
4.323637e-001 
4.358771e-001 
4.421387e-001 
4.481892e-001 
4.528459e-001 
4.589721e-001 
4.642291e-001 
4.688540e-001 
4.760738e-001 
4.853823e-001 
4.933968e-001 
5.007746e-001 
5.076510e-001 
5.149976e-001 
5.243245e-001 
5.329652e-001 
5.404153e-001 
5.479204e-001 
5.544864e-001 
5.591021e-001 
5.655168e-001 
5.722975e-001 
5.782589e-001 
5.830685e-001 
5.861247e-001 
5.883694e-001 
5.919628e-001 
5.948175e-001 
5.952744e-001 
5.959627e-001 
5.952792e-001 
5.924773e-001 
5.895900e-001 
5.866356e-001 
5.822836e-001 
5.781604e-001 
5.723741e-001 
5.658701e-001 
5.604294e-001 
5.525431e-001 
5.422449e-001 
5.320453e-001 
5.206749e-001 
5.089405e-001 
4.981308e-001 
4.860175e-001 
4.723814e-001 
4.579240e-001 
4.419525e-001 
4.267773e-001 
4.138572e-001 
4.002715e-001 
3.851269e-001 
3.689031e-001 
3.514597e-001 
3.341395e-001 
3.187906e-001 
3.031856e-001 
2.876976e-001 
2.727867e-001 
2.570708e-001 
2.406793e-001 
2.258037e-001 
2.114496e-001 
1.973035e-001 
1.833145e-001 
1.689999e-001 
1.562103e-001 
1.449027e-001 
1.332934e-001 
1.201639e-001 
1.080139e-001 
9.679089e-002 
8.687741e-002 
7.873101e-002 
7.125980e-002 
6.290853e-002 
5.448561e-002 
4.634251e-002 
3.830920e-002 
3.345716e-002 
3.003207e-002 
2.555727e-002 
2.022350e-002 
1.426033e-002 
9.219257e-003 
6.757151e-003 
3.811844e-003 
-6.061181e-004 
-3.658150e-003 
-7.167540e-003 
-1.080986e-002 
-1.184528e-002 
-1.204591e-002 
-1.269131e-002 
-1.473778e-002 
-1.821297e-002 
-2.024984e-002 
-1.989712e-002 
-1.984097e-002 
-1.943728e-002 
-1.937790e-002 
-2.101298e-002 
-2.152028e-002 
-2.065552e-002 
-1.822162e-002 
-1.658343e-002 
-1.624047e-002 
-1.624674e-002 
-1.576995e-002 
-1.642906e-002 
-1.655614e-002 
-1.622293e-002 
-1.644371e-002 
-1.781965e-002 
-2.053449e-002 
-2.123097e-002 
-2.126801e-002 
-2.225623e-002 
-2.448854e-002 
-2.699902e-002 
-2.888886e-002 
-2.977818e-002 
-3.186310e-002 
-3.454534e-002 
-3.720318e-002 
-3.968355e-002 
-4.079266e-002 
-4.191723e-002 
-4.390869e-002 
-4.560815e-002 
-4.891288e-002 
-5.356392e-002 
-5.723516e-002 
-5.830055e-002 
-5.865394e-002 
-6.159134e-002 
-6.595146e-002 
-7.035861e-002 
-7.390976e-002 
-7.638480e-002 
-7.785949e-002 
-7.934750e-002 
-8.155290e-002 
-8.591935e-002 
-8.890422e-002 
-8.926259e-002 
-9.021518e-002 
-9.096919e-002 
-9.117924e-002 
-9.219920e-002 
-9.320583e-002 
-9.350240e-002 
-9.283863e-002 
-9.206047e-002 
-9.305967e-002 
-9.485876e-002 
-9.528736e-002 
-9.551406e-002 
-9.596243e-002 
-9.599139e-002 
-9.648974e-002 
-9.725053e-002 
-9.748867e-002 
-9.674851e-002 
-9.585689e-002 
-9.620543e-002 
-9.716939e-002 
-9.702963e-002 
-9.507605e-002 
-9.094895e-002 
-8.442259e-002 
-7.318651e-002 
-4.514507e-002 
1.424006e-002 
9.061520e-002 
1.528779e-001 
1.892355e-001 
2.111627e-001 
2.300440e-001 
2.508130e-001 
2.803656e-001 
3.319855e-001 
3.894946e-001 
4.065744e-001 
3.780667e-001 
3.432824e-001 
3.256216e-001 
3.196200e-001 
3.120141e-001 
2.938951e-001 
2.618235e-001 
2.007762e-001 
1.135037e-001 
3.143556e-002 
-2.750366e-002 
-7.106265e-002 
-1.096507e-001 
-1.498705e-001 
-1.893066e-001 
-2.232571e-001 
-2.565937e-001 
-2.913708e-001 
-3.272248e-001 
-3.631094e-001 
-3.989376e-001 
-4.337491e-001 
-4.706813e-001 
-5.107530e-001 
-5.531117e-001 
-5.977132e-001 
-6.430455e-001 
-6.884417e-001 
-7.370117e-001 
-7.923688e-001 
-8.501877e-001 
-9.099324e-001 
-9.691975e-001 
-1.026155e+000 
-1.083130e+000 
-1.140547e+000 
-1.196383e+000 
-1.249597e+000 
-1.295495e+000 
-1.328040e+000 
-1.349358e+000 
-1.361100e+000 
-1.364150e+000 
-1.357372e+000 
-1.337815e+000 
-1.305501e+000 
-1.262973e+000 
-1.211835e+000 
-1.153548e+000 
-1.090596e+000 
-1.021599e+000 
-9.454440e-001 
-8.649554e-001 
-7.843615e-001 
-7.052834e-001 
-6.284079e-001 
-5.551895e-001 
-4.851782e-001 
-4.175960e-001 
-3.536124e-001 
-2.953073e-001 
-2.432204e-001 
-1.949167e-001 
-1.476389e-001 
-1.027909e-001 
-6.324393e-002 
-2.591803e-002 
1.087819e-002 
4.575248e-002 
7.958910e-002 
1.116901e-001 
1.412392e-001 
1.694302e-001 
1.943129e-001 
2.166290e-001 
2.399338e-001 
2.611301e-001 
2.782344e-001 
2.926161e-001 
3.041194e-001 
3.146338e-001 
3.253390e-001 
3.337541e-001 
3.406244e-001 
3.460009e-001 
3.500957e-001 
3.551931e-001 
3.616175e-001 
3.673597e-001 
3.731520e-001 
3.793982e-001 
3.839905e-001 
3.891975e-001 
3.973432e-001 
4.069120e-001 
4.148325e-001 
4.209884e-001 
4.277766e-001 
4.372394e-001 
4.473259e-001 
4.566095e-001 
4.674179e-001 
4.786881e-001 
4.882343e-001 
4.973838e-001 
5.095494e-001 
5.226664e-001 
5.344632e-001 
5.441808e-001 
5.538564e-001 
5.652384e-001 
5.766090e-001 
5.868383e-001 
5.966389e-001 
6.055303e-001 
6.124728e-001 
6.195895e-001 
6.270828e-001 
6.347830e-001 
6.410082e-001 
6.445146e-001 
6.471679e-001 
6.500126e-001 
6.534455e-001 
6.573594e-001 
6.598793e-001 
6.614699e-001 
6.626944e-001 
6.625973e-001 
6.636592e-001 
6.641150e-001 
6.631880e-001 
6.630937e-001 
6.618298e-001 
6.603353e-001 
6.604521e-001 
6.585148e-001 
6.533522e-001 
6.478151e-001 
6.403811e-001 
6.340098e-001 
6.274752e-001 
6.185194e-001 
6.089087e-001 
5.969594e-001 
5.808427e-001 
5.646723e-001 
5.511422e-001 
5.365380e-001 
5.201557e-001 
5.003162e-001 
4.803740e-001 
4.620462e-001 
4.421255e-001 
4.218364e-001 
4.028378e-001 
3.824757e-001 
3.610993e-001 
3.406347e-001 
3.212598e-001 
3.044846e-001 
2.863609e-001 
2.664768e-001 
2.483167e-001 
2.299347e-001 
2.124974e-001 
1.979807e-001 
1.825656e-001 
1.672869e-001 
1.515067e-001 
1.364517e-001 
1.250522e-001 
1.141914e-001 
1.013673e-001 
8.954887e-002 
7.851394e-002 
6.755329e-002 
5.836246e-002 
4.910785e-002 
4.232865e-002 
3.576663e-002 
2.711942e-002 
1.782347e-002 
1.156084e-002 
6.789316e-003 
1.509983e-003 
-3.341158e-003 
-8.016771e-003 
-1.062153e-002 
-1.283939e-002 
-1.611903e-002 
-1.952363e-002 
-2.120396e-002 
-2.279585e-002 
-2.378117e-002 
-2.421663e-002 
-2.494273e-002 
-2.493562e-002 
-2.521518e-002 
-2.640128e-002 
-2.691321e-002 
-2.539919e-002 
-2.372481e-002 
-2.367856e-002 
-2.557368e-002 
-2.633679e-002 
-2.540844e-002 
-2.544609e-002 
-2.647422e-002 
-2.705103e-002 
-2.797657e-002 
-2.932357e-002 
-3.038199e-002 
-2.963701e-002 
-2.756219e-002 
-2.819680e-002 
-3.205971e-002 
-3.380814e-002 
-3.463975e-002 
-3.622844e-002 
-3.709518e-002 
-3.891330e-002 
-4.123170e-002 
-4.384763e-002 
-4.766685e-002 
-4.937340e-002 
-4.833327e-002 
-5.136058e-002 
-5.542338e-002 
-5.914816e-002 
-6.283182e-002 
-6.489511e-002 
-6.651842e-002 
-6.973126e-002 
-7.300734e-002 
-7.682086e-002 
-8.142045e-002 
-8.263594e-002 
-8.427513e-002 
-8.653510e-002 
-8.878811e-002 
-9.148681e-002 
-9.439282e-002 
-9.581727e-002 
-9.672895e-002 
-9.817189e-002 
-1.002287e-001 
-1.035121e-001 
-1.046508e-001 
-1.044214e-001 
-1.028440e-001 
-1.019463e-001 
-1.034904e-001 
-1.056699e-001 
-1.065585e-001 
-1.059582e-001 
-1.041920e-001 
-1.029348e-001 
-1.030145e-001 
-1.027433e-001 
-1.042753e-001 
-1.049948e-001 
-1.030046e-001 
-1.013928e-001 
-1.000214e-001 
-9.927889e-002 
-9.913911e-002 
-9.812321e-002 
-9.718975e-002 
-9.623193e-002 
-9.396324e-002 
-9.077148e-002 
-8.333523e-002 
-6.504958e-002 
-2.362119e-002 
4.765433e-002 
1.252829e-001 
1.801779e-001 
2.119269e-001 
2.344822e-001 
2.576954e-001 
2.837325e-001 
3.200268e-001 
3.761328e-001 
4.263642e-001 
4.309170e-001 
3.997668e-001 
3.732191e-001 
3.635109e-001 
3.579375e-001 
3.463287e-001 
3.270786e-001 
2.904560e-001 
2.212839e-001 
1.304192e-001 
5.220388e-002 
4.765249e-004 
-3.797798e-002 
-7.383667e-002 
-1.097040e-001 
-1.456582e-001 
-1.800852e-001 
-2.147725e-001 
-2.492713e-001 
-2.810659e-001 
-3.129630e-001 
-3.443042e-001 
-3.735491e-001 
-4.028810e-001 
-4.324761e-001 
-4.643833e-001 
-5.008031e-001 
-5.398621e-001 
-5.803086e-001 
-6.221859e-001 
-6.648807e-001 
-7.112974e-001 
-7.625414e-001 
-8.194825e-001 
-8.795706e-001 
-9.385901e-001 
-9.967109e-001 
-1.053911e+000 
-1.112586e+000 
-1.173266e+000 
-1.233091e+000 
-1.287687e+000 
-1.333124e+000 
-1.367444e+000 
-1.392132e+000 
-1.407224e+000 
-1.412610e+000 
-1.408251e+000 
-1.391939e+000 
-1.364244e+000 
-1.325760e+000 
-1.277472e+000 
-1.222653e+000 
-1.160792e+000 
-1.091832e+000 
-1.017589e+000 
-9.406286e-001 
-8.632049e-001 
-7.869861e-001 
-7.103593e-001 
-6.340056e-001 
-5.621589e-001 
-4.950182e-001 
-4.314692e-001 
-3.715906e-001 
-3.164838e-001 
-2.644939e-001 
-2.155383e-001 
-1.690271e-001 
-1.257287e-001 
-8.610779e-002 
-4.766404e-002 
-8.775993e-003 
2.805063e-002 
6.166948e-002 
9.259121e-002 
1.218821e-001 
1.511072e-001 
1.788393e-001 
2.044809e-001 
2.277270e-001 
2.474178e-001 
2.634605e-001 
2.785532e-001 
2.926622e-001 
3.058265e-001 
3.161354e-001 
3.242482e-001 
3.317610e-001 
3.374660e-001 
3.428748e-001 
3.497433e-001 
3.564099e-001 
3.609871e-001 
3.648265e-001 
3.691543e-001 
3.757198e-001 
3.821488e-001 
3.874084e-001 
3.935606e-001 
3.991388e-001 
4.052411e-001 
4.116035e-001 
4.175749e-001 
4.232520e-001 
4.293268e-001 
4.354432e-001 
4.421766e-001 
4.497891e-001 
4.568126e-001 
4.636370e-001 
4.690748e-001 
4.746322e-001 
4.813660e-001 
4.910341e-001 
5.003897e-001 
5.078834e-001 
5.140036e-001 
5.200550e-001 
5.275363e-001 
5.363256e-001 
5.453974e-001 
5.542704e-001 
5.641687e-001 
5.720589e-001 
5.796360e-001 
5.885518e-001 
5.978952e-001 
6.064473e-001 
6.146231e-001 
6.216273e-001 
6.287488e-001 
6.371348e-001 
6.438213e-001 
6.486276e-001 
6.522123e-001 
6.552827e-001 
6.585918e-001 
6.621566e-001 
6.642739e-001 
6.643176e-001 
6.630923e-001 
6.607793e-001 
6.574919e-001 
6.546864e-001 
6.517165e-001 
6.462450e-001 
6.387522e-001 
6.311298e-001 
6.220404e-001 
6.146388e-001 
6.060086e-001 
5.929172e-001 
5.795152e-001 
5.657540e-001 
5.511825e-001 
5.387819e-001 
5.262946e-001 
5.112286e-001 
4.964191e-001 
4.790341e-001 
4.624627e-001 
4.489535e-001 
4.352921e-001 
4.208499e-001 
4.053159e-001 
3.881201e-001 
3.728847e-001 
3.591845e-001 
3.455279e-001 
3.323313e-001 
3.182486e-001 
3.036592e-001 
2.895032e-001 
2.752102e-001 
2.621856e-001 
2.489217e-001 
2.339789e-001 
2.181809e-001 
2.021938e-001 
1.883959e-001 
1.753531e-001 
1.613960e-001 
1.474905e-001 
1.346460e-001 
1.229256e-001 
1.126505e-001 
1.015327e-001 
9.118878e-002 
8.177563e-002 
7.227030e-002 
6.378495e-002 
5.798408e-002 
5.473960e-002 
5.150356e-002 
4.704305e-002 
4.280429e-002 
4.026289e-002 
3.928811e-002 
3.816952e-002 
3.575578e-002 
3.458698e-002 
3.420995e-002 
3.128828e-002 
2.915578e-002 
2.834706e-002 
2.560567e-002 
2.201360e-002 
1.788274e-002 
1.438948e-002 
1.276746e-002 
9.862776e-003 
3.793611e-003 
-1.787651e-003 
-7.999112e-003 
-1.493044e-002 
-1.971439e-002 
-2.360644e-002 
-2.838023e-002 
-3.302691e-002 
-3.842915e-002 
-4.441127e-002 
-4.812802e-002 
-5.153182e-002 
-5.585431e-002 
-5.964995e-002 
-6.323938e-002 
-6.540039e-002 
-6.709119e-002 
-6.985853e-002 
-7.306909e-002 
-7.559826e-002 
-7.872999e-002 
-8.139584e-002 
-8.226502e-002 
-8.333479e-002 
-8.555139e-002 
-8.905625e-002 
-9.245471e-002 
-9.468934e-002 
-9.544303e-002 
-9.666462e-002 
-9.848000e-002 
-1.012614e-001 
-1.044281e-001 
-1.059862e-001 
-1.059833e-001 
-1.056283e-001 
-1.052094e-001 
-1.059962e-001 
-1.076501e-001 
-1.086661e-001 
-1.077563e-001 
-1.062904e-001 
-1.047283e-001 
-1.036824e-001 
-1.031636e-001 
-1.030689e-001 
-1.024741e-001 
-1.011884e-001 
-1.007965e-001 
-9.992726e-002 
-9.895201e-002 
-9.499820e-002 
-8.896710e-002 
-8.325513e-002 
-7.769232e-002 
-6.983862e-002 
-5.969651e-002 
-4.615354e-002 
-2.745798e-002 
-5.290171e-003 
1.726995e-002 
3.722365e-002 
5.709942e-002 
7.961911e-002 
1.053885e-001 
1.321676e-001 
1.600875e-001 
2.058374e-001 
2.731284e-001 
3.269402e-001 
3.407426e-001 
3.219392e-001 
2.861694e-001 
2.441098e-001 
1.991297e-001 
1.640071e-001 
1.559357e-001 
1.365604e-001 
6.260464e-002 
-3.699592e-002 
-1.151842e-001 
-1.619879e-001 
-1.905539e-001 
-2.139536e-001 
-2.343092e-001 
-2.617501e-001 
-3.145084e-001 
-3.715200e-001 
-3.964076e-001 
-3.827294e-001 
-3.490193e-001 
-3.130311e-001 
-2.789050e-001 
-2.441392e-001 
-2.124010e-001 
-1.870196e-001 
-1.675454e-001 
-1.534765e-001 
-1.433694e-001 
-1.372786e-001 
-1.346229e-001 
-1.334636e-001 
-1.344818e-001 
-1.395180e-001 
-1.451659e-001 
-1.488271e-001 
-1.513870e-001 
-1.546681e-001 
-1.592387e-001 
-1.651501e-001 
-1.700641e-001 
-1.748218e-001 
-1.785079e-001 
-1.807312e-001 
-1.844659e-001 
-1.904444e-001 
-1.975224e-001 
-2.046252e-001 
-2.091368e-001 
-2.117315e-001 
-2.155512e-001 
-2.192377e-001 
-2.245577e-001 
-2.302828e-001 
-2.338230e-001 
-2.375735e-001 
-2.419338e-001 
-2.449888e-001 
-2.486995e-001 
-2.525266e-001 
-2.564192e-001 
-2.611751e-001 
-2.650359e-001 
-2.692966e-001 
-2.748318e-001 
-2.789392e-001 
-2.816403e-001 
-2.846507e-001 
-2.888980e-001 
-2.935246e-001 
-2.964396e-001 
-2.986553e-001 
-3.002632e-001 
-3.022215e-001 
-3.048067e-001 
-3.067974e-001 
-3.084503e-001 
-3.097959e-001 
-3.076760e-001 
-3.050185e-001 
-3.043220e-001 
-3.040505e-001 
-3.046027e-001 
-3.024847e-001 
-2.980680e-001 
-2.944160e-001 
-2.912434e-001 
-2.879316e-001 
-2.858757e-001 
-2.834277e-001 
-2.791308e-001 
-2.728805e-001 
-2.660515e-001 
-2.611748e-001 
-2.551900e-001 
-2.476919e-001 
-2.392125e-001 
-2.300076e-001 
-2.212826e-001 
-2.113902e-001 
-1.997006e-001 
-1.884555e-001 
-1.755621e-001 
-1.603238e-001 
-1.475261e-001 
-1.353731e-001 
-1.217597e-001 
-1.072263e-001 
-9.087283e-002 
-7.519433e-002 
-6.126040e-002 
-4.711854e-002 
-3.383152e-002 
-2.133783e-002 
-6.749091e-003 
8.429891e-003 
2.017667e-002 
2.886596e-002 
3.705445e-002 
4.643217e-002 
5.604958e-002 
6.448215e-002 
7.144977e-002 
7.759970e-002 
8.163908e-002 
8.405124e-002 
8.886639e-002 
9.476067e-002 
9.779255e-002 
9.849840e-002 
9.811623e-002 
9.844640e-002 
9.983905e-002 
9.988604e-002 
9.987704e-002 
1.002589e-001 
9.846743e-002 
9.596517e-002 
9.546978e-002 
9.435029e-002 
9.264941e-002 
8.905743e-002 
8.408865e-002 
8.140337e-002 
8.022927e-002 
7.768449e-002 
7.458329e-002 
7.134734e-002 
6.695444e-002 
6.345303e-002 
5.995482e-002 
5.743979e-002 
5.565533e-002 
5.261436e-002 
4.808740e-002 
4.396227e-002 
4.206446e-002 
4.068705e-002 
3.878835e-002 
3.601965e-002 
3.371641e-002 
3.177242e-002 
3.081545e-002 
2.930312e-002 
2.822797e-002 
2.865716e-002 
2.778370e-002 
2.744912e-002 
2.771038e-002 
2.841147e-002 
2.831874e-002 
2.810194e-002 
2.831504e-002 
3.041152e-002 
3.288425e-002 
3.434741e-002 
3.458101e-002 
3.410871e-002 
3.443961e-002 
3.441779e-002 
3.579727e-002 
3.698960e-002 
3.671269e-002 
3.568109e-002 
3.443900e-002 
3.307348e-002 
3.351211e-002 
3.431632e-002 
3.311022e-002 
3.208213e-002 
3.080930e-002 
3.007715e-002 
3.072277e-002 
3.042986e-002 
2.778638e-002 
2.591015e-002 
2.452897e-002 
2.331845e-002 
2.401886e-002 
2.388141e-002 
2.268530e-002 
2.096090e-002 
1.751779e-002 
1.476342e-002 
1.576581e-002 
1.598389e-002 
1.453893e-002 
1.320215e-002 
1.175933e-002 
1.267165e-002 
1.459757e-002 
1.590234e-002 
1.816807e-002 
2.044665e-002 
2.062816e-002 
2.339948e-002 
2.828194e-002 
3.223973e-002 
3.532990e-002 
3.600393e-002 
3.596465e-002 
3.648668e-002 
3.675591e-002 
3.745119e-002 
3.848144e-002 
3.586973e-002 
3.225941e-002 
2.912943e-002 
2.540922e-002 
2.144542e-002 
1.638492e-002 
1.215427e-002 
8.603224e-003 
4.386143e-003 
3.425164e-004 
-2.613012e-003 
-6.910570e-003 
-1.146400e-002 
-1.452019e-002 
-1.484964e-002 
-1.208985e-002 
-1.081838e-002 
-1.256833e-002 
-1.485900e-002 
-1.686920e-002 
-1.860480e-002 
-1.782993e-002 
-1.725754e-002 
-1.829599e-002 
-2.077339e-002 
-2.546169e-002 
-2.934655e-002 
-3.011498e-002 
-3.137493e-002 
-3.416015e-002 
-3.708905e-002 
-4.222630e-002 
-4.681018e-002 
-4.973543e-002 
-5.349124e-002 
-5.698074e-002 
-6.006252e-002 
-6.455109e-002 
-6.717192e-002 
-6.767307e-002 
-6.822124e-002 
-6.864821e-002 
-7.025565e-002 
-7.168202e-002 
-7.058945e-002 
-6.853426e-002 
-6.586430e-002 
-6.291189e-002 
-6.041793e-002 
-5.638851e-002 
-4.868128e-002 
-2.367353e-002 
3.486927e-002 
1.084809e-001 
1.639507e-001 
1.952706e-001 
2.158603e-001 
2.372747e-001 
2.597045e-001 
2.870278e-001 
3.375193e-001 
3.971428e-001 
4.175040e-001 
3.961921e-001 
3.744218e-001 
3.709585e-001 
3.757550e-001 
3.777869e-001 
3.776386e-001 
3.718558e-001 
3.404657e-001 
2.827293e-001 
2.291410e-001 
1.974942e-001 
1.802105e-001 
1.661290e-001 
1.540653e-001 
1.470747e-001 
1.409157e-001 
1.294372e-001 
1.084829e-001 
7.470804e-002 
3.113131e-002 
-1.638405e-002 
-6.445744e-002 
-1.092565e-001 
-1.524433e-001 
-1.991279e-001 
-2.498114e-001 
-3.033417e-001 
-3.552820e-001 
-3.960685e-001 
-4.231965e-001 
-4.403528e-001 
-4.514455e-001 
-4.603933e-001 
-4.672155e-001 
-4.682556e-001 
-4.597798e-001 
-4.391456e-001 
-4.068796e-001 
-3.691133e-001 
-3.300914e-001 
-2.918398e-001 
-2.546727e-001 
-2.202277e-001 
-1.896848e-001 
-1.637989e-001 
-1.425797e-001 
-1.265864e-001 
-1.139441e-001 
-1.047551e-001 
-9.960342e-002 
-9.698421e-002 
-9.652966e-002 
-9.604666e-002 
-9.470553e-002 
-9.371016e-002 
-9.383906e-002 
-9.464623e-002 
-9.799539e-002 
-1.014569e-001 
-1.031322e-001 
-1.033131e-001 
-1.024786e-001 
-1.029793e-001 
-1.062808e-001 
-1.097915e-001 
-1.131813e-001 
-1.162040e-001 
-1.179116e-001 
-1.194574e-001 
-1.217295e-001 
-1.240613e-001 
-1.268241e-001 
-1.287317e-001 
-1.296309e-001 
-1.310465e-001 
-1.323674e-001 
-1.329650e-001 
-1.327028e-001 
-1.324470e-001 
-1.320978e-001 
-1.319781e-001 
-1.322664e-001 
-1.314552e-001 
-1.290249e-001 
-1.257088e-001 
-1.226556e-001 
-1.213692e-001 
-1.203069e-001 
-1.180628e-001 
-1.148274e-001 
-1.107456e-001 
-1.050842e-001 
-1.010660e-001 
-9.840314e-002 
-9.600609e-002 
-9.249354e-002 
-8.623382e-002 
-8.070619e-002 
-7.611737e-002 
-7.118442e-002 
-6.624700e-002 
-6.184210e-002 
-5.572476e-002 
-4.909795e-002 
-4.207156e-002 
-3.572270e-002 
-3.038020e-002 
-2.315997e-002 
-1.583464e-002 
-8.772627e-003 
-1.158739e-003 
6.611443e-003 
1.416871e-002 
2.245418e-002 
3.111727e-002 
4.042323e-002 
4.832730e-002 
5.506152e-002 
6.475763e-002 
7.459469e-002 
8.388985e-002 
9.341374e-002 
1.007417e-001 
1.082442e-001 
1.157734e-001 
1.229582e-001 
1.329556e-001 
1.422270e-001 
1.469961e-001 
1.523082e-001 
1.576381e-001 
1.625924e-001 
1.698578e-001 
1.748960e-001 
1.778294e-001 
1.803837e-001 
1.808996e-001 
1.817180e-001 
1.850865e-001 
1.870782e-001 
1.870415e-001 
1.861569e-001 
1.834484e-001 
1.814789e-001 
1.806408e-001 
1.796056e-001 
1.777485e-001 
1.747265e-001 
1.699954e-001 
1.658729e-001 
1.634252e-001 
1.601877e-001 
1.563643e-001 
1.522407e-001 
1.476188e-001 
1.430308e-001 
1.394782e-001 
1.364015e-001 
1.332339e-001 
1.288782e-001 
1.239699e-001 
1.210216e-001 
1.191978e-001 
1.165979e-001 
1.132569e-001 
1.100615e-001 
1.073752e-001 
1.045343e-001 
1.013033e-001 
9.953176e-002 
9.811116e-002 
9.397931e-002 
8.894851e-002 
8.589040e-002 
8.569701e-002 
8.446079e-002 
7.974213e-002 
7.509374e-002 
7.263902e-002 
6.971149e-002 
6.639196e-002 
6.519930e-002 
6.398034e-002 
6.147380e-002 
5.742833e-002 
5.362528e-002 
5.290882e-002 
5.328612e-002 
5.206737e-002 
5.107282e-002 
4.987342e-002 
4.745487e-002 
4.689446e-002 
4.657001e-002 
4.551467e-002 
4.491502e-002 
4.428995e-002 
4.424760e-002 
4.479569e-002 
4.419007e-002 
4.302193e-002 
4.288872e-002 
4.250191e-002 
4.337244e-002 
4.468944e-002 
4.633358e-002 
4.680430e-002 
4.569018e-002 
4.475031e-002 
4.511000e-002 
4.680205e-002 
4.834196e-002 
4.836534e-002 
4.693538e-002 
4.725322e-002 
4.756110e-002 
4.937272e-002 
5.130336e-002 
5.232016e-002 
5.189128e-002 
4.993132e-002 
4.784590e-002 
4.735037e-002 
4.799720e-002 
4.695128e-002 
4.627787e-002 
4.523077e-002 
4.436402e-002 
4.247462e-002 
4.033681e-002 
3.818700e-002 
3.586105e-002 
3.395785e-002 
3.252876e-002 
3.159056e-002 
2.869749e-002 
2.492199e-002 
2.045638e-002 
1.783649e-002 
1.667364e-002 
1.572404e-002 
1.505480e-002 
1.318386e-002 
9.639687e-003 
6.557025e-003 
6.198055e-003 
6.421030e-003 
6.894561e-003 
6.104677e-003 
4.908667e-003 
6.048064e-003 
7.737674e-003 
1.017604e-002 
1.436267e-002 
1.773340e-002 
1.887261e-002 
2.025805e-002 
2.380489e-002 
2.984771e-002 
3.576112e-002 
3.815144e-002 
3.996068e-002 
4.116891e-002 
4.123528e-002 
4.196621e-002 
4.297454e-002 
4.236036e-002 
3.953395e-002 
3.512954e-002 
3.103933e-002 
2.892204e-002 
2.534381e-002 
2.039894e-002 
1.575071e-002 
1.144582e-002 
7.584255e-003 
5.834812e-003 
6.062396e-003 
7.106548e-003 
1.069825e-002 
2.405708e-002 
6.659001e-002 
1.404903e-001 
2.129167e-001 
2.588890e-001 
2.864041e-001 
3.083897e-001 
3.301794e-001 
3.557803e-001 
3.970688e-001 
4.570928e-001 
4.978288e-001 
4.872948e-001 
4.524519e-001 
4.316255e-001 
4.262172e-001 
4.203928e-001 
4.074546e-001 
3.844137e-001 
3.395375e-001 
2.654457e-001 
1.795028e-001 
1.107433e-001 
6.533987e-002 
2.854879e-002 
-8.959195e-003 
-4.537051e-002 
-8.053343e-002 
-1.130746e-001 
-1.448193e-001 
-1.774552e-001 
-2.071453e-001 
-2.346666e-001 
-2.625150e-001 
-2.905439e-001 
-3.168611e-001 
-3.409645e-001 
-3.628645e-001 
-3.841199e-001 
-4.069190e-001 
-4.344695e-001 
-4.666578e-001 
-5.017909e-001 
-5.378669e-001 
-5.734975e-001 
-6.101428e-001 
-6.485818e-001 
-6.900099e-001 
-7.370162e-001 
-7.855479e-001 
-8.329919e-001 
-8.816587e-001 
-9.315889e-001 
-9.828085e-001 
-1.035297e+000 
-1.089133e+000 
-1.143501e+000 
-1.194392e+000 
-1.236849e+000 
-1.272647e+000 
-1.301345e+000 
-1.322787e+000 
-1.335699e+000 
-1.340926e+000 
-1.339455e+000 
-1.328433e+000 
-1.306020e+000 
-1.272991e+000 
-1.231944e+000 
-1.184091e+000 
-1.131439e+000 
-1.070844e+000 
-1.004128e+000 
-9.326723e-001 
-8.562925e-001 
-7.780160e-001 
-7.020587e-001 
-6.291438e-001 
-5.595771e-001 
-4.924726e-001 
-4.268283e-001 
-3.669702e-001 
-3.120171e-001 
-2.604197e-001 
-2.137668e-001 
-1.701248e-001 
-1.282496e-001 
-8.879398e-002 
-5.102522e-002 
-1.640905e-002 
1.606572e-002 
4.922349e-002 
8.005069e-002 
1.079347e-001 
1.354300e-001 
1.611918e-001 
1.866000e-001 
2.097096e-001 
2.307673e-001 
2.510039e-001 
2.680789e-001 
2.811072e-001 
2.934709e-001 
3.054504e-001 
3.163842e-001 
3.247175e-001 
3.291163e-001 
3.329412e-001 
3.365033e-001 
3.403452e-001 
3.446442e-001 
3.482470e-001 
3.507847e-001 
3.536532e-001 
3.561149e-001 
3.592118e-001 
3.643887e-001 
3.700044e-001 
3.748022e-001 
3.784647e-001 
3.819955e-001 
3.877447e-001 
3.957120e-001 
4.019645e-001 
4.062031e-001 
4.112257e-001 
4.166531e-001 
4.228692e-001 
4.294942e-001 
4.360964e-001 
4.431969e-001 
4.493603e-001 
4.531719e-001 
4.585227e-001 
4.663058e-001 
4.740246e-001 
4.808971e-001 
4.858409e-001 
4.905646e-001 
4.954438e-001 
5.002743e-001 
5.050761e-001 
5.106326e-001 
5.154053e-001 
5.212116e-001 
5.273316e-001 
5.325521e-001 
5.373282e-001 
5.411684e-001 
5.452970e-001 
5.496943e-001 
5.537735e-001 
5.576602e-001 
5.615089e-001 
5.625479e-001 
5.624319e-001 
5.618090e-001 
5.627301e-001 
5.650728e-001 
5.654518e-001 
5.630657e-001 
5.597232e-001 
5.555190e-001 
5.509833e-001 
5.469763e-001 
5.412888e-001 
5.357746e-001 
5.290664e-001 
5.200739e-001 
5.120112e-001 
5.047595e-001 
4.966489e-001 
4.875931e-001 
4.775019e-001 
4.666509e-001 
4.567507e-001 
4.461979e-001 
4.353925e-001 
4.237279e-001 
4.100208e-001 
3.962376e-001 
3.831681e-001 
3.718003e-001 
3.595723e-001 
3.451771e-001 
3.307277e-001 
3.162459e-001 
3.006605e-001 
2.855597e-001 
2.718392e-001 
2.577676e-001 
2.427293e-001 
2.267040e-001 
2.125645e-001 
1.995868e-001 
1.856626e-001 
1.710152e-001 
1.562732e-001 
1.435224e-001 
1.304861e-001 
1.185432e-001 
1.075976e-001 
9.593285e-002 
8.380555e-002 
7.288114e-002 
6.295738e-002 
5.596694e-002 
4.974700e-002 
4.173014e-002 
3.312652e-002 
2.486847e-002 
1.940687e-002 
1.504335e-002 
1.018864e-002 
6.070112e-003 
2.831133e-003 
-1.659931e-003 
-5.780259e-003 
-8.184276e-003 
-8.812881e-003 
-1.135784e-002 
-1.589168e-002 
-1.958429e-002 
-2.114517e-002 
-2.261610e-002 
-2.532058e-002 
-2.772994e-002 
-2.950625e-002 
-3.297563e-002 
-3.635973e-002 
-3.648022e-002 
-3.656041e-002 
-3.767227e-002 
-4.031853e-002 
-4.323933e-002 
-4.424582e-002 
-4.437342e-002 
-4.498557e-002 
-4.462548e-002 
-4.469567e-002 
-4.613459e-002 
-4.631085e-002 
-4.500947e-002 
-4.464427e-002 
-4.488544e-002 
-4.528729e-002 
-4.582684e-002 
-4.553112e-002 
-4.529773e-002 
-4.494052e-002 
-4.386709e-002 
-4.448262e-002 
-4.706514e-002 
-4.731042e-002 
-4.667885e-002 
-4.617882e-002 
-4.766274e-002 
-5.059136e-002 
-5.123616e-002 
-5.110277e-002 
-5.253579e-002 
-5.373041e-002 
-5.488391e-002 
-5.737363e-002 
-5.956167e-002 
-6.339095e-002 
-6.430521e-002 
-6.384289e-002 
-6.636422e-002 
-7.001739e-002 
-7.290117e-002 
-7.508350e-002 
-7.566718e-002 
-7.581044e-002 
-7.747937e-002 
-7.850215e-002 
-8.050959e-002 
-8.179008e-002 
-8.277056e-002 
-8.364897e-002 
-8.516394e-002 
-8.703369e-002 
-8.880575e-002 
-9.051334e-002 
-9.072915e-002 
-9.062015e-002 
-9.200630e-002 
-9.534911e-002 
-9.780269e-002 
-9.854145e-002 
-9.752700e-002 
-9.721627e-002 
-9.819254e-002 
-9.990242e-002 
-1.016845e-001 
-1.023196e-001 
-1.018063e-001 
-1.001765e-001 
-9.752879e-002 
-9.682513e-002 
-9.781572e-002 
-9.662001e-002 
-9.407845e-002 
-9.037928e-002 
-8.753851e-002 
-8.513538e-002 
-8.133075e-002 
-7.307891e-002 
-5.059431e-002 
4.401252e-003 
8.363705e-002 
1.526442e-001 
1.950697e-001 
2.202023e-001 
2.432482e-001 
2.665031e-001 
2.954240e-001 
3.444943e-001 
4.080083e-001 
4.416272e-001 
4.275402e-001 
3.987975e-001 
3.860024e-001 
3.865384e-001 
3.852056e-001 
3.787715e-001 
3.625211e-001 
3.189604e-001 
2.431632e-001 
1.646332e-001 
1.080225e-001 
7.121914e-002 
4.017411e-002 
7.527855e-003 
-2.557178e-002 
-5.816472e-002 
-9.096791e-002 
-1.222893e-001 
-1.517561e-001 
-1.835963e-001 
-2.170538e-001 
-2.500760e-001 
-2.824247e-001 
-3.131233e-001 
-3.422014e-001 
-3.726524e-001 
-4.062332e-001 
-4.437485e-001 
-4.862472e-001 
-5.294675e-001 
-5.713072e-001 
-6.140566e-001 
-6.595755e-001 
-7.083828e-001 
-7.598387e-001 
-8.133741e-001 
-8.691218e-001 
-9.270511e-001 
-9.842771e-001 
-1.042510e+000 
-1.103643e+000 
-1.165680e+000 
-1.222281e+000 
-1.271925e+000 
-1.316406e+000 
-1.352801e+000 
-1.379720e+000 
-1.396459e+000 
-1.405498e+000 
-1.407094e+000 
-1.397820e+000 
-1.375022e+000 
-1.343690e+000 
-1.303093e+000 
-1.254069e+000 
-1.198551e+000 
-1.136402e+000 
-1.070683e+000 
-9.995351e-001 
-9.217522e-001 
-8.425464e-001 
-7.669579e-001 
-6.941746e-001 
-6.263168e-001 
-5.598675e-001 
-4.960541e-001 
-4.361984e-001 
-3.794651e-001 
-3.275305e-001 
-2.815726e-001 
-2.390352e-001 
-1.973701e-001 
-1.562035e-001 
-1.159414e-001 
-7.983585e-002 
-4.574446e-002 
-1.274571e-002 
1.954510e-002 
5.089426e-002 
8.067874e-002 
1.083037e-001 
1.345180e-001 
1.588416e-001 
1.807111e-001 
2.014533e-001 
2.204259e-001 
2.358571e-001 
2.487666e-001 
2.598330e-001 
2.709200e-001 
2.819284e-001 
2.902869e-001 
2.949620e-001 
2.984080e-001 
3.027063e-001 
3.070806e-001 
3.123718e-001 
3.178589e-001 
3.226372e-001 
3.261839e-001 
3.297356e-001 
3.332595e-001 
3.393399e-001 
3.469554e-001 
3.516753e-001 
3.559497e-001 
3.607777e-001 
3.653781e-001 
3.716106e-001 
3.776474e-001 
3.814624e-001 
3.869170e-001 
3.925095e-001 
3.966234e-001 
4.034062e-001 
4.090257e-001 
4.139529e-001 
4.199816e-001 
4.256384e-001 
4.329125e-001 
4.414386e-001 
4.479788e-001 
4.532886e-001 
4.588695e-001 
4.636926e-001 
4.705508e-001 
4.788109e-001 
4.877585e-001 
4.942080e-001 
4.985513e-001 
5.043886e-001 
5.101568e-001 
5.174057e-001 
5.253183e-001 
5.319805e-001 
5.380731e-001 
5.437287e-001 
5.480628e-001 
5.543987e-001 
5.596373e-001 
5.622375e-001 
5.667673e-001 
5.703595e-001 
5.723974e-001 
5.750830e-001 
5.772438e-001 
5.765906e-001 
5.742599e-001 
5.710540e-001 
5.690048e-001 
5.682109e-001 
5.648874e-001 
5.590652e-001 
5.527625e-001 
5.458893e-001 
5.378979e-001 
5.299236e-001 
5.219759e-001 
5.127884e-001 
5.024748e-001 
4.904897e-001 
4.781220e-001 
4.659803e-001 
4.537385e-001 
4.389580e-001 
4.229647e-001 
4.073663e-001 
3.911535e-001 
3.751130e-001 
3.586751e-001 
3.402449e-001 
3.208435e-001 
3.024326e-001 
2.848430e-001 
2.692653e-001 
2.534165e-001 
2.360788e-001 
2.188512e-001 
2.022625e-001 
1.858127e-001 
1.713781e-001 
1.588727e-001 
1.457525e-001 
1.320415e-001 
1.184938e-001 
1.060667e-001 
9.555846e-002 
8.614840e-002 
7.560285e-002 
6.682099e-002 
5.949696e-002 
5.276387e-002 
4.853177e-002 
4.343105e-002 
3.610068e-002 
2.946661e-002 
2.384432e-002 
1.864739e-002 
1.645874e-002 
1.398338e-002 
1.199835e-002 
1.064818e-002 
6.812699e-003 
4.688910e-003 
5.214941e-003 
4.228368e-003 
1.163236e-003 
-1.989114e-003 
-6.190689e-003 
-9.045172e-003 
-1.094932e-002 
-1.319642e-002 
-1.512356e-002 
-1.843088e-002 
-2.169095e-002 
-2.168878e-002 
-1.773036e-002 
-1.145597e-002 
-6.342979e-003 
-4.793409e-003 
-8.807647e-003 
-1.617588e-002 
-2.223565e-002 
-2.524601e-002 
-2.564747e-002 
-2.478516e-002 
-2.577859e-002 
-3.047025e-002 
-3.768433e-002 
-4.791491e-002 
-5.587414e-002 
-6.040938e-002 
-6.343537e-002 
-6.685141e-002 
-7.262992e-002 
-8.200243e-002 
-9.222469e-002 
-1.017251e-001 
-1.086660e-001 
-1.091580e-001 
-1.072035e-001 
-1.062177e-001 
-1.077374e-001 
-1.107733e-001 
-1.137776e-001 
-1.151121e-001 
-1.166517e-001 
-1.175049e-001 
-1.180327e-001 
-1.206065e-001 
-1.243359e-001 
-1.274600e-001 
-1.287262e-001 
-1.301471e-001 
-1.328084e-001 
-1.351994e-001 
-1.372497e-001 
-1.398434e-001 
-1.406221e-001 
-1.408136e-001 
-1.415578e-001 
-1.430521e-001 
-1.452134e-001 
-1.450138e-001 
-1.436908e-001 
-1.448542e-001 
-1.457897e-001 
-1.455620e-001 
-1.457248e-001 
-1.464659e-001 
-1.455084e-001 
-1.425649e-001 
-1.414418e-001 
-1.424908e-001 
-1.432416e-001 
-1.420682e-001 
-1.395204e-001 
-1.371201e-001 
-1.358180e-001 
-1.314817e-001 
-1.267283e-001 
-1.159536e-001 
-8.198811e-002 
-1.483912e-002 
6.819318e-002 
1.339346e-001 
1.726308e-001 
1.984230e-001 
2.217771e-001 
2.451167e-001 
2.807721e-001 
3.387786e-001 
4.014873e-001 
4.233831e-001 
3.981864e-001 
3.675038e-001 
3.523312e-001 
3.451230e-001 
3.378824e-001 
3.248063e-001 
2.970954e-001 
2.380296e-001 
1.465062e-001 
5.862919e-002 
-2.039270e-003 
-4.423586e-002 
-7.888640e-002 
-1.134248e-001 
-1.492377e-001 
-1.835289e-001 
-2.191720e-001 
-2.556316e-001 
-2.876168e-001 
-3.183591e-001 
-3.486630e-001 
-3.775994e-001 
-4.055031e-001 
-4.314111e-001 
-4.562267e-001 
-4.834487e-001 
-5.151197e-001 
-5.506217e-001 
-5.898222e-001 
-6.278672e-001 
-6.638435e-001 
-6.997420e-001 
-7.394966e-001 
-7.853935e-001 
-8.383846e-001 
-8.963080e-001 
-9.547480e-001 
-1.010202e+000 
-1.063994e+000 
-1.120303e+000 
-1.178585e+000 
-1.239692e+000 
-1.300651e+000 
-1.354676e+000 
-1.397983e+000 
-1.428739e+000 
-1.447980e+000 
-1.460676e+000 
-1.465429e+000 
-1.461354e+000 
-1.448652e+000 
-1.422137e+000 
-1.379835e+000 
-1.325990e+000 
-1.265246e+000 
-1.199796e+000 
-1.130470e+000 
-1.056603e+000 
-9.785505e-001 
-8.965996e-001 
-8.128727e-001 
-7.319608e-001 
-6.576783e-001 
-5.893938e-001 
-5.237735e-001 
-4.613965e-001 
-4.025581e-001 
-3.474875e-001 
-2.973273e-001 
-2.519590e-001 
-2.100068e-001 
-1.693725e-001 
-1.289503e-001 
-8.939188e-002 
-5.240213e-002 
-1.774002e-002 
1.609950e-002 
4.906085e-002 
8.132866e-002 
1.128134e-001 
1.405813e-001 
1.652388e-001 
1.884549e-001 
2.093399e-001 
2.280834e-001 
2.448294e-001 
2.577654e-001 
2.682746e-001 
2.754528e-001 
2.806773e-001 
2.865229e-001 
2.901954e-001 
2.912281e-001 
2.921048e-001 
2.935608e-001 
2.958012e-001 
2.988369e-001 
3.016810e-001 
3.050528e-001 
3.077667e-001 
3.104196e-001 
3.148027e-001 
3.208608e-001 
3.274907e-001 
3.333343e-001 
3.383812e-001 
3.435285e-001 
3.493836e-001 
3.568680e-001 
3.639892e-001 
3.698728e-001 
3.764947e-001 
3.827578e-001 
3.876987e-001 
3.941162e-001 
4.012519e-001 
4.091817e-001 
4.168189e-001 
4.232260e-001 
4.305254e-001 
4.398572e-001 
4.480938e-001 
4.555371e-001 
4.650763e-001 
4.756885e-001 
4.862534e-001 
4.960158e-001 
5.047576e-001 
5.129365e-001 
5.222563e-001 
5.314202e-001 
5.407900e-001 
5.512511e-001 
5.601919e-001 
5.656894e-001 
5.705315e-001 
5.750322e-001 
5.799193e-001 
5.850148e-001 
5.875044e-001 
5.866347e-001 
5.852357e-001 
5.829164e-001 
5.799173e-001 
5.779543e-001 
5.747554e-001 
5.691408e-001 
5.619734e-001 
5.528869e-001 
5.431535e-001 
5.342563e-001 
5.232382e-001 
5.101983e-001 
4.976997e-001 
4.833299e-001 
4.675527e-001 
4.532347e-001 
4.381730e-001 
4.219144e-001 
4.056733e-001 
3.877603e-001 
3.709119e-001 
3.558671e-001 
3.371260e-001 
3.177601e-001 
3.003325e-001 
2.826604e-001 
2.678169e-001 
2.544511e-001 
2.381012e-001 
2.215988e-001 
2.038248e-001 
1.849893e-001 
1.691286e-001 
1.556989e-001 
1.426420e-001 
1.309509e-001 
1.161721e-001 
9.978775e-002 
8.681161e-002 
7.586174e-002 
6.643236e-002 
5.734329e-002 
4.843398e-002 
3.999944e-002 
3.147375e-002 
2.232307e-002 
1.580268e-002 
1.074675e-002 
6.235065e-003 
3.051471e-003 
5.488321e-004 
-6.962562e-004 
-2.875169e-003 
-5.531915e-003 
-6.927049e-003 
-8.517700e-003 
-1.093192e-002 
-1.176020e-002 
-1.174305e-002 
-1.318797e-002 
-1.532582e-002 
-1.724590e-002 
-1.725105e-002 
-1.727097e-002 
-1.890382e-002 
-2.096935e-002 
-2.138101e-002 
-2.192349e-002 
-2.319950e-002 
-2.353214e-002 
-2.446350e-002 
-2.644812e-002 
-2.863737e-002 
-3.028945e-002 
-3.034194e-002 
-2.964978e-002 
-3.159944e-002 
-3.404014e-002 
-3.635877e-002 
-3.781877e-002 
-3.749861e-002 
-3.740523e-002 
-3.807047e-002 
-4.022775e-002 
-4.415484e-002 
-4.705132e-002 
-4.828524e-002 
-4.928831e-002 
-5.026596e-002 
-5.358864e-002 
-5.741047e-002 
-6.061659e-002 
-6.274438e-002 
-6.301669e-002 
-6.368744e-002 
-6.609185e-002 
-6.880493e-002 
-7.076589e-002 
-7.251880e-002 
-7.281301e-002 
-7.349189e-002 
-7.482468e-002 
-7.912307e-002 
-8.341135e-002 
-8.498132e-002 
-8.504410e-002 
-8.622426e-002 
-8.915658e-002 
-9.231828e-002 
-9.557988e-002 
-9.791944e-002 
-1.003148e-001 
-1.002400e-001 
-1.013831e-001 
-1.048808e-001 
-1.090559e-001 
-1.106912e-001 
-1.119849e-001 
-1.120273e-001 
-1.123275e-001 
-1.141710e-001 
-1.142041e-001 
-1.143162e-001 
-1.142843e-001 
-1.131913e-001 
-1.132399e-001 
-1.151407e-001 
-1.149576e-001 
-1.164057e-001 
-1.166015e-001 
-1.156670e-001 
-1.172579e-001 
-1.185161e-001 
-1.182889e-001 
-1.185484e-001 
-1.175518e-001 
-1.159121e-001 
-1.156027e-001 
-1.144929e-001 
-1.144307e-001 
-1.132190e-001 
-1.082140e-001 
-1.013643e-001 
-9.149059e-002 
-6.508391e-002 
-7.033704e-003 
7.613658e-002 
1.520561e-001 
2.007705e-001 
2.308485e-001 
2.553515e-001 
2.807544e-001 
3.135005e-001 
3.660704e-001 
4.303673e-001 
4.656008e-001 
4.491994e-001 
4.151311e-001 
3.966207e-001 
3.933142e-001 
3.897606e-001 
3.761247e-001 
3.471972e-001 
2.908850e-001 
2.033050e-001 
1.097258e-001 
3.936696e-002 
-1.077865e-002 
-5.349478e-002 
-9.604531e-002 
-1.387287e-001 
-1.791233e-001 
-2.185119e-001 
-2.600877e-001 
-3.016089e-001 
-3.417021e-001 
-3.805826e-001 
-4.154571e-001 
-4.491208e-001 
-4.820584e-001 
-5.130153e-001 
-5.432444e-001 
-5.732819e-001 
-6.029795e-001 
-6.346034e-001 
-6.696635e-001 
-7.067581e-001 
-7.444901e-001 
-7.804702e-001 
-8.166186e-001 
-8.544470e-001 
-8.960927e-001 
-9.403337e-001 
-9.842806e-001 
-1.028471e+000 
-1.072861e+000 
-1.116722e+000 
-1.163636e+000 
-1.213107e+000 
-1.260299e+000 
-1.302942e+000 
-1.336090e+000 
-1.359212e+000 
-1.376533e+000 
-1.385688e+000 
-1.384660e+000 
-1.375470e+000 
-1.354789e+000 
-1.321677e+000 
-1.280391e+000 
-1.230487e+000 
-1.171765e+000 
-1.105866e+000 
-1.031232e+000 
-9.516293e-001 
-8.701701e-001 
-7.841400e-001 
-6.944021e-001 
-6.028540e-001 
-5.065395e-001 
-4.103343e-001 
-3.262687e-001 
-2.574329e-001 
-2.004984e-001 
-1.476045e-001 
-9.319666e-002 
-3.971023e-002 
1.128373e-002 
5.914971e-002 
9.497426e-002 
1.165227e-001 
1.362226e-001 
1.614794e-001 
1.920984e-001 
2.219295e-001 
2.469664e-001 
2.663091e-001 
2.795075e-001 
2.860062e-001 
2.937733e-001 
3.100254e-001 
3.319139e-001 
3.530715e-001 
3.712261e-001 
3.866523e-001 
3.987505e-001 
4.093270e-001 
4.196099e-001 
4.323880e-001 
4.459904e-001 
4.570865e-001 
4.646725e-001 
4.724841e-001 
4.813983e-001 
4.916667e-001 
5.042794e-001 
5.179507e-001 
5.318398e-001 
5.434782e-001 
5.515126e-001 
5.585586e-001 
5.671546e-001 
5.760656e-001 
5.852531e-001 
5.941555e-001 
6.017837e-001 
6.091822e-001 
6.141998e-001 
6.162585e-001 
6.188371e-001 
6.232737e-001 
6.306515e-001 
6.400668e-001 
6.493604e-001 
6.580441e-001 
6.671561e-001 
6.754976e-001 
6.855646e-001 
6.995578e-001 
7.176249e-001 
7.347178e-001 
7.454691e-001 
7.509251e-001 
7.533087e-001 
7.563625e-001 
7.608752e-001 
7.657941e-001 
7.702078e-001 
7.725949e-001 
7.679705e-001 
7.582829e-001 
7.486806e-001 
7.407543e-001 
7.329623e-001 
7.228966e-001 
7.088794e-001 
6.921095e-001 
6.737538e-001 
6.541211e-001 
6.366535e-001 
6.238115e-001 
6.122170e-001 
5.988115e-001 
5.844419e-001 
5.689358e-001 
5.516180e-001 
5.335922e-001 
5.148665e-001 
4.953013e-001 
4.758200e-001 
4.536933e-001 
4.314973e-001 
4.127923e-001 
3.978054e-001 
3.848252e-001 
3.731116e-001 
3.595282e-001 
3.420325e-001 
3.219910e-001 
3.013980e-001 
2.826923e-001 
2.661862e-001 
2.502079e-001 
2.324569e-001 
2.129700e-001 
1.921103e-001 
1.726388e-001 
1.579625e-001 
1.472173e-001 
1.351470e-001 
1.196097e-001 
1.022838e-001 
8.582507e-002 
6.871868e-002 
5.325778e-002 
4.191384e-002 
3.519025e-002 
3.089231e-002 
2.495750e-002 
1.878523e-002 
1.669065e-002 
1.356715e-002 
5.686697e-003 
-1.059892e-003 
-7.369505e-003 
-1.264737e-002 
-1.958882e-002 
-2.968390e-002 
-3.716934e-002 
-4.107412e-002 
-4.677678e-002 
-5.115995e-002 
-5.379592e-002 
-5.703328e-002 
-6.039918e-002 
-6.493160e-002 
-6.778584e-002 
-6.814572e-002 
-6.961776e-002 
-7.156643e-002 
-7.131623e-002 
-6.961590e-002 
-6.719196e-002 
-6.378024e-002 
-5.944733e-002 
-5.666052e-002 
-5.666674e-002 
-5.746395e-002 
-5.729299e-002 
-5.731087e-002 
-5.853219e-002 
-6.065883e-002 
-6.147579e-002 
-6.113195e-002 
-6.128684e-002 
-6.226983e-002 
-6.464557e-002 
-6.981560e-002 
-7.582917e-002 
-7.893132e-002 
-7.937282e-002 
-7.852494e-002 
-7.846029e-002 
-8.181343e-002 
-8.743708e-002 
-9.251775e-002 
