72
2.3958
408.4783
7.5700
-4.707093e-003 
-1.123579e-002 
-1.705597e-002 
-2.355629e-002 
-2.861151e-002 
-3.154150e-002 
-3.329754e-002 
-2.789192e-002 
-7.170339e-003 
3.176119e-002 
6.215318e-002 
2.565522e-002 
-7.577734e-002 
-1.708762e-001 
-2.209883e-001 
-2.301014e-001 
-2.097217e-001 
-1.723113e-001 
-1.476445e-001 
-1.958509e-001 
-3.070900e-001 
-3.690082e-001 
-3.279103e-001 
-2.491444e-001 
-1.912117e-001 
-1.716179e-001 
-1.828914e-001 
-2.209298e-001 
-2.646080e-001 
-2.525006e-001 
-1.621187e-001 
-5.311460e-002 
1.612653e-002 
4.333687e-002 
4.443710e-002 
4.037232e-002 
3.454981e-002 
2.895152e-002 
2.727938e-002 
2.582588e-002 
2.161037e-002 
1.893852e-002 
1.771266e-002 
1.702689e-002 
2.171612e-002 
2.943956e-002 
4.080827e-002 
5.642757e-002 
7.203112e-002 
8.695306e-002 
1.041473e-001 
1.221115e-001 
1.444903e-001 
1.711430e-001 
1.946787e-001 
2.149653e-001 
2.337593e-001 
2.511225e-001 
2.679254e-001 
2.824978e-001 
2.953306e-001 
3.108825e-001 
3.209561e-001 
3.209854e-001 
3.189298e-001 
3.180760e-001 
3.162806e-001 
3.123399e-001 
3.096695e-001 
3.191982e-001 
3.356364e-001 
3.479810e-001 
3.640575e-001 
3.779636e-001 
3.829600e-001 
3.814136e-001 
3.779337e-001 
3.814271e-001 
3.857219e-001 
3.770059e-001 
3.650734e-001 
3.518611e-001 
3.253040e-001 
2.989159e-001 
2.785851e-001 
2.677066e-001 
2.748744e-001 
2.858650e-001 
2.625914e-001 
1.619162e-001 
6.925627e-003 
-1.258063e-001 
-1.909319e-001 
-2.063921e-001 
-1.954507e-001 
-1.715307e-001 
-1.743151e-001 
-2.544729e-001 
-3.748207e-001 
-4.164006e-001 
-3.556700e-001 
-2.634699e-001 
-2.099956e-001 
-2.034228e-001 
-2.220132e-001 
-2.555943e-001 
-2.789417e-001 
-2.346595e-001 
-1.177593e-001 
2.424547e-003 
7.229352e-002 
8.748816e-002 
8.405471e-002 
8.561329e-002 
8.781984e-002 
8.574273e-002 
8.661836e-002 
8.999455e-002 
9.242916e-002 
9.407115e-002 
9.755162e-002 
1.058104e-001 
1.145927e-001 
1.188795e-001 
1.225599e-001 
1.313366e-001 
1.376091e-001 
1.416674e-001 
1.480006e-001 
1.548131e-001 
1.598541e-001 
1.609049e-001 
1.605522e-001 
1.635622e-001 
1.685983e-001 
1.675785e-001 
1.661361e-001 
1.660638e-001 
1.637052e-001 
1.580595e-001 
1.509886e-001 
1.461183e-001 
1.417984e-001 
1.353310e-001 
1.296773e-001 
1.342366e-001 
1.477010e-001 
1.633737e-001 
1.803190e-001 
2.027532e-001 
2.183441e-001 
2.245939e-001 
2.285047e-001 
2.322616e-001 
2.395868e-001 
2.408064e-001 
2.300438e-001 
2.204044e-001 
2.081197e-001 
1.806093e-001 
1.554150e-001 
1.363851e-001 
1.227526e-001 
1.174181e-001 
1.253065e-001 
1.283940e-001 
7.242104e-002 
-5.548221e-002 
-1.893615e-001 
-2.648985e-001 
-2.857626e-001 
-2.821305e-001 
-2.605127e-001 
-2.336238e-001 
-2.711548e-001 
-3.805775e-001 
-4.547267e-001 
-4.270174e-001 
-3.397529e-001 
-2.758738e-001 
-2.607478e-001 
-2.683733e-001 
-2.966361e-001 
-3.394106e-001 
-3.349259e-001 
-2.521667e-001 
-1.423406e-001 
-6.756034e-002 
-4.556439e-002 
-4.638913e-002 
-4.781365e-002 
-5.070605e-002 
-5.551087e-002 
-5.616230e-002 
-5.619061e-002 
-5.825709e-002 
-5.909618e-002 
-5.518663e-002 
-4.798681e-002 
-4.184284e-002 
-3.523851e-002 
-2.459279e-002 
-1.171990e-002 
-1.966838e-003 
6.066438e-003 
1.591511e-002 
2.932551e-002 
3.845888e-002 
4.579367e-002 
5.492969e-002 
6.324038e-002 
6.660268e-002 
6.743804e-002 
6.988739e-002 
7.215710e-002 
7.192330e-002 
6.724069e-002 
6.196224e-002 
5.622011e-002 
4.816704e-002 
3.940172e-002 
3.489538e-002 
3.310445e-002 
3.563099e-002 
4.691209e-002 
6.290337e-002 
8.347234e-002 
1.001100e-001 
1.086820e-001 
1.134338e-001 
1.147774e-001 
1.159384e-001 
1.191729e-001 
1.193933e-001 
1.154687e-001 
1.061513e-001 
8.556021e-002 
6.509500e-002 
4.745531e-002 
3.493405e-002 
3.513474e-002 
5.501124e-002 
7.005159e-002 
2.268876e-002 
-9.975166e-002 
-2.291029e-001 
-3.093404e-001 
-3.399410e-001 
-3.364879e-001 
-3.097932e-001 
-2.783147e-001 
-3.094668e-001 
-4.157729e-001 
-4.941348e-001 
-4.707121e-001 
-3.904905e-001 
-3.215647e-001 
-2.933972e-001 
-2.986435e-001 
-3.253699e-001 
-3.639387e-001 
-3.617211e-001 
-2.839088e-001 
-1.730945e-001 
-9.018967e-002 
-5.412416e-002 
-5.233683e-002 
-5.777918e-002 
-5.607592e-002 
-5.757529e-002 
-6.247275e-002 
-6.732069e-002 
-6.789022e-002 
-6.455217e-002 
-6.284966e-002 
-6.301471e-002 
-5.728657e-002 
-4.537520e-002 
-3.544079e-002 
-2.471735e-002 
-1.163885e-002 
6.557097e-003 
2.056651e-002 
3.118756e-002 
4.635322e-002 
6.359777e-002 
7.858152e-002 
8.974443e-002 
1.010101e-001 
1.122886e-001 
1.208097e-001 
1.226678e-001 
1.288831e-001 
1.352532e-001 
1.338236e-001 
1.278462e-001 
1.227854e-001 
1.196469e-001 
1.138219e-001 
1.088161e-001 
1.122464e-001 
1.279448e-001 
1.461304e-001 
1.620275e-001 
1.758211e-001 
1.890864e-001 
1.970029e-001 
1.991822e-001 
2.036944e-001 
2.119756e-001 
2.143367e-001 
2.047066e-001 
1.881355e-001 
1.693303e-001 
1.513496e-001 
1.320922e-001 
1.145573e-001 
1.119008e-001 
1.284206e-001 
1.334397e-001 
8.441473e-002 
-4.504465e-002 
-2.116862e-001 
-3.404640e-001 
-4.038482e-001 
-4.110711e-001 
-3.802970e-001 
-3.490701e-001 
-3.762875e-001 
-4.765976e-001 
-5.836348e-001 
-5.954658e-001 
-5.101411e-001 
-4.055086e-001 
-3.427335e-001 
-3.315375e-001 
-3.579103e-001 
-3.957085e-001 
-3.917789e-001 
-3.069124e-001 
-1.644821e-001 
-3.514166e-002 
3.892502e-002 
5.729798e-002 
5.457328e-002 
5.524306e-002 
5.841024e-002 
6.137404e-002 
6.030967e-002 
5.672583e-002 
5.998733e-002 
6.670156e-002 
6.832975e-002 
7.738411e-002 
8.981046e-002 
9.577846e-002 
9.965189e-002 
1.026270e-001 
1.087164e-001 
1.174135e-001 
1.232639e-001 
1.295934e-001 
1.382373e-001 
1.408434e-001 
1.409596e-001 
1.415366e-001 
1.430374e-001 
1.450669e-001 
1.446495e-001 
1.452843e-001 
1.423834e-001 
1.338664e-001 
1.271539e-001 
1.222155e-001 
1.153527e-001 
1.090674e-001 
1.037722e-001 
1.018840e-001 
1.071361e-001 
1.151700e-001 
1.284861e-001 
1.473994e-001 
1.632117e-001 
1.694114e-001 
1.705969e-001 
1.735572e-001 
1.782747e-001 
1.805985e-001 
1.739949e-001 
1.636258e-001 
1.522340e-001 
1.331738e-001 
1.086933e-001 
9.204647e-002 
8.303243e-002 
7.939243e-002 
9.400863e-002 
1.111804e-001 
7.674119e-002 
-3.945568e-002 
-1.819200e-001 
-2.792747e-001 
-3.161707e-001 
-3.165493e-001 
-2.897114e-001 
-2.514089e-001 
-2.677808e-001 
-3.674524e-001 
-4.636781e-001 
-4.549002e-001 
-3.670231e-001 
-2.815337e-001 
-2.400298e-001 
-2.348129e-001 
-2.600434e-001 
-3.068634e-001 
-3.201201e-001 
-2.485596e-001 
-1.221921e-001 
-1.954963e-002 
2.632109e-002 
3.452754e-002 
3.412966e-002 
2.686834e-002 
1.588821e-002 
1.249615e-002 
1.351617e-002 
1.267901e-002 
6.998358e-003 
3.129351e-003 
7.061535e-003 
1.016588e-002 
6.598241e-003 
1.048585e-002 
2.263551e-002 
3.241032e-002 
3.751330e-002 
4.231955e-002 
5.310626e-002 
6.141539e-002 
6.426901e-002 
6.664951e-002 
7.420664e-002 
8.671271e-002 
9.629351e-002 
1.016949e-001 
1.099238e-001 
1.142208e-001 
1.115964e-001 
1.118116e-001 
1.085021e-001 
1.071624e-001 
1.107623e-001 
1.066286e-001 
1.005545e-001 
9.754529e-002 
9.205926e-002 
9.790919e-002 
1.104803e-001 
1.181767e-001 
1.356846e-001 
1.511052e-001 
1.516950e-001 
1.512871e-001 
1.522921e-001 
1.535418e-001 
1.555493e-001 
1.438856e-001 
1.307436e-001 
1.276299e-001 
1.072495e-001 
7.748560e-002 
6.047124e-002 
4.908380e-002 
4.291469e-002 
5.757184e-002 
6.910313e-002 
3.548719e-002 
-8.240625e-002 
-2.504581e-001 
-3.697368e-001 
-4.145420e-001 
-4.163561e-001 
-3.891505e-001 
-3.533526e-001 
-3.738170e-001 
-4.693371e-001 
-5.745673e-001 
-5.824281e-001 
-4.910108e-001 
-3.897357e-001 
-3.372814e-001 
-3.310136e-001 
-3.538713e-001 
-3.878157e-001 
-3.868067e-001 
-3.065933e-001 
-1.677287e-001 
-4.678292e-002 
1.629190e-002 
3.413602e-002 
4.102669e-002 
4.911532e-002 
5.364221e-002 
5.542467e-002 
5.773638e-002 
5.886356e-002 
6.062749e-002 
6.541852e-002 
7.575347e-002 
8.723675e-002 
9.437383e-002 
9.843174e-002 
1.032874e-001 
1.096311e-001 
1.156098e-001 
1.214897e-001 
1.277193e-001 
1.340531e-001 
1.367417e-001 
1.356087e-001 
1.338668e-001 
1.333610e-001 
1.341924e-001 
1.337227e-001 
1.337638e-001 
1.334280e-001 
1.312557e-001 
1.276084e-001 
1.233540e-001 
1.170237e-001 
1.102074e-001 
1.053885e-001 
1.012248e-001 
9.756290e-002 
9.154432e-002 
8.777128e-002 
8.701721e-002 
8.580796e-002 
8.769384e-002 
9.781048e-002 
1.138852e-001 
1.309020e-001 
1.408807e-001 
1.459652e-001 
1.495492e-001 
1.464719e-001 
1.426123e-001 
1.421188e-001 
1.389094e-001 
1.336340e-001 
1.231894e-001 
1.046620e-001 
8.472316e-002 
6.295561e-002 
4.760143e-002 
5.207843e-002 
7.585405e-002 
8.622271e-002 
2.576237e-002 
-1.042270e-001 
-2.332415e-001 
-3.148095e-001 
-3.424683e-001 
-3.302618e-001 
-2.956817e-001 
-2.693792e-001 
-3.166680e-001 
-4.335974e-001 
-4.999912e-001 
-4.636608e-001 
-3.813504e-001 
-3.120668e-001 
-2.824206e-001 
-2.865951e-001 
-3.142812e-001 
-3.499813e-001 
-3.338343e-001 
-2.360088e-001 
-1.191676e-001 
-4.048693e-002 
-7.478015e-003 
-1.059677e-003 
-2.649520e-004 
1.507146e-003 
-7.341056e-004 
-2.248241e-003 
-2.409468e-003 
-4.189142e-003 
-3.286799e-003 
-1.151263e-003 
1.930503e-003 
7.342098e-003 
1.581501e-002 
2.702741e-002 
4.058943e-002 
5.442997e-002 
7.078326e-002 
8.710436e-002 
1.005416e-001 
1.172617e-001 
1.363614e-001 
1.546502e-001 
1.681587e-001 
1.784734e-001 
1.891905e-001 
1.997856e-001 
2.042979e-001 
2.071143e-001 
2.128945e-001 
2.152437e-001 
2.111088e-001 
2.019764e-001 
1.928847e-001 
1.845977e-001 
1.727571e-001 
1.598310e-001 
1.530959e-001 
1.476362e-001 
1.394349e-001 
1.293634e-001 
1.197484e-001 
1.140851e-001 
1.153245e-001 
1.230941e-001 
1.373461e-001 
1.536993e-001 
1.599254e-001 
1.574031e-001 
1.494347e-001 
1.433470e-001 
1.406971e-001 
1.400305e-001 
1.373157e-001 
1.311859e-001 
1.172952e-001 
9.387386e-002 
7.221636e-002 
5.963353e-002 
6.448579e-002 
9.102391e-002 
1.257959e-001 
1.146146e-001 
2.392514e-002 
-9.778312e-002 
-1.859747e-001 
-2.233736e-001 
-2.209791e-001 
-1.905170e-001 
-1.498117e-001 
-1.544399e-001 
-2.426509e-001 
-3.394686e-001 
-3.460489e-001 
-2.837106e-001 
-2.179342e-001 
-1.841493e-001 
-1.829734e-001 
-2.103553e-001 
-2.614119e-001 
-2.895289e-001 
-2.446411e-001 
-1.484712e-001 
-6.792397e-002 
-3.008171e-002 
-2.332052e-002 
-2.748422e-002 
-3.562181e-002 
-4.374704e-002 
-5.079415e-002 
-5.851264e-002 
-6.676971e-002 
-7.540264e-002 
-7.983151e-002 
-8.006547e-002 
-8.110475e-002 
-7.875099e-002 
-7.001410e-002 
-6.013575e-002 
-5.041382e-002 
-4.043477e-002 
-2.521065e-002 
-5.373574e-003 
1.218556e-002 
2.855845e-002 
4.921466e-002 
7.055363e-002 
8.738340e-002 
1.011478e-001 
1.164140e-001 
1.346203e-001 
1.457147e-001 
1.489777e-001 
1.528517e-001 
1.573502e-001 
1.552011e-001 
1.484908e-001 
1.443788e-001 
1.433245e-001 
1.389504e-001 
1.308806e-001 
1.260480e-001 
1.240220e-001 
1.186114e-001 
1.108482e-001 
1.110916e-001 
1.214847e-001 
1.316135e-001 
1.419341e-001 
1.549350e-001 
1.613434e-001 
1.573979e-001 
1.507297e-001 
1.497026e-001 
1.538731e-001 
1.526058e-001 
1.441628e-001 
1.365283e-001 
1.227906e-001 
9.994496e-002 
8.128982e-002 
8.148667e-002 
1.024812e-001 
1.363277e-001 
1.559171e-001 
1.157001e-001 
4.036329e-003 
-1.182058e-001 
-1.944528e-001 
-2.133763e-001 
-1.918965e-001 
-1.564916e-001 
-1.350764e-001 
-1.740355e-001 
-2.791111e-001 
-3.593468e-001 
-3.392671e-001 
-2.624561e-001 
-1.957936e-001 
-1.743605e-001 
-1.931509e-001 
-2.355739e-001 
-2.814350e-001 
-2.854500e-001 
-2.162131e-001 
-1.106908e-001 
-3.355944e-002 
-6.483514e-003 
-1.239135e-002 
-2.190116e-002 
-2.865809e-002 
-3.673724e-002 
-4.681690e-002 
-5.572625e-002 
-6.422059e-002 
-7.515325e-002 
-8.266108e-002 
-8.052219e-002 
-7.251239e-002 
-6.456190e-002 
-5.696059e-002 
-4.886920e-002 
-4.144929e-002 
-3.600993e-002 
-2.550978e-002 
-6.298738e-003 
1.510473e-002 
2.632726e-002 
2.530395e-002 
2.239898e-002 
2.380838e-002 
2.592824e-002 
2.731122e-002 
3.198493e-002 
3.570591e-002 
3.043072e-002 
1.223587e-002 
-3.914284e-003 
-9.046932e-003 
-1.301736e-002 
-2.098579e-002 
-2.523248e-002 
-2.428906e-002 
-2.436821e-002 
-2.349256e-002 
-1.515684e-002 
7.587872e-003 
3.353716e-002 
5.797586e-002 
8.884997e-002 
1.186426e-001 
1.397863e-001 
1.553120e-001 
1.718071e-001 
1.896985e-001 
2.012289e-001 
1.982736e-001 
1.935866e-001 
1.882427e-001 
1.718897e-001 
1.532104e-001 
1.391132e-001 
1.340385e-001 
1.377498e-001 
1.508321e-001 
1.409050e-001 
5.860025e-002 
-9.563989e-002 
-2.499443e-001 
-3.348822e-001 
-3.541712e-001 
-3.407668e-001 
-3.072655e-001 
-2.820641e-001 
-3.345776e-001 
-4.429446e-001 
-4.925034e-001 
-4.227805e-001 
-2.898667e-001 
-1.952759e-001 
-1.613327e-001 
-1.585781e-001 
-1.824785e-001 
-2.040270e-001 
-1.523836e-001 
-1.686599e-002 
1.395416e-001 
2.440959e-001 
2.792134e-001 
2.892955e-001 
2.984772e-001 
3.068556e-001 
3.180839e-001 
3.276459e-001 
3.303389e-001 
3.304909e-001 
3.324087e-001 
3.409817e-001 
3.560948e-001 
3.694617e-001 
3.816835e-001 
3.927799e-001 
3.985300e-001 
3.975004e-001 
3.926541e-001 
3.880975e-001 
3.832417e-001 
3.746986e-001 
3.615286e-001 
3.472953e-001 
3.320987e-001 
3.133232e-001 
2.921193e-001 
2.732862e-001 
2.571153e-001 
2.387134e-001 
2.150263e-001 
1.896696e-001 
1.673771e-001 
1.445341e-001 
1.215068e-001 
1.026975e-001 
8.870690e-002 
7.629399e-002 
6.231332e-002 
5.001492e-002 
4.788774e-002 
5.336331e-002 
6.164831e-002 
7.825508e-002 
9.061673e-002 
9.272644e-002 
9.117572e-002 
8.812613e-002 
8.819113e-002 
9.004823e-002 
8.469684e-002 
7.997760e-002 
7.359596e-002 
5.053013e-002 
2.729244e-002 
1.201922e-002 
4.314537e-003 
1.135850e-002 
3.128824e-002 
2.869030e-002 
-5.034213e-002 
-1.904830e-001 
-3.191729e-001 
-3.854520e-001 
-3.948581e-001 
-3.753273e-001 
-3.398490e-001 
-3.165897e-001 
-3.733236e-001 
-4.859597e-001 
-5.291982e-001 
-4.729358e-001 
-3.744991e-001 
-3.029774e-001 
-2.798567e-001 
-2.841968e-001 
-3.101849e-001 
-3.373442e-001 
-2.981990e-001 
-1.812207e-001 
-5.506843e-002 
2.805828e-002 
6.225584e-002 
7.695264e-002 
9.022244e-002 
1.052474e-001 
1.230982e-001 
1.402922e-001 
1.554591e-001 
1.659821e-001 
1.765368e-001 
1.918529e-001 
2.048911e-001 
2.131221e-001 
2.208077e-001 
2.278003e-001 
2.338316e-001 
2.403399e-001 
2.459378e-001 
2.543735e-001 
2.597856e-001 
2.571658e-001 
2.485976e-001 
2.410960e-001 
2.354028e-001 
2.297049e-001 
2.246867e-001 
2.211509e-001 
2.179052e-001 
2.119675e-001 
2.061725e-001 
2.043752e-001 
2.077474e-001 
2.078644e-001 
2.061478e-001 
2.062678e-001 
2.069429e-001 
2.049356e-001 
2.024220e-001 
2.043267e-001 
2.137565e-001 
2.287869e-001 
2.473475e-001 
2.714129e-001 
2.969339e-001 
3.082167e-001 
3.072114e-001 
3.060618e-001 
3.102481e-001 
3.171829e-001 
3.174158e-001 
3.079986e-001 
2.937121e-001 
2.687371e-001 
2.294838e-001 
2.006893e-001 
1.858864e-001 
1.796669e-001 
1.804459e-001 
1.929212e-001 
1.961380e-001 
1.294343e-001 
-1.087052e-002 
-1.395283e-001 
-2.074038e-001 
-2.292377e-001 
-2.253058e-001 
-2.047811e-001 
-1.855567e-001 
-2.340705e-001 
-3.585939e-001 
-4.343797e-001 
-3.972953e-001 
-3.190702e-001 
-2.642358e-001 
-2.495406e-001 
-2.630900e-001 
-3.004742e-001 
-3.493439e-001 
-3.485195e-001 
-2.635556e-001 
-1.567539e-001 
-9.020657e-002 
-6.763714e-002 
-6.956249e-002 
-7.566026e-002 
-8.264905e-002 
-8.851460e-002 
-9.557866e-002 
-1.067448e-001 
-1.162634e-001 
-1.213317e-001 
-1.244911e-001 
-1.243319e-001 
-1.183771e-001 
-1.092321e-001 
-9.901147e-002 
-9.144370e-002 
-7.985880e-002 
-5.954569e-002 
-3.959569e-002 
-1.901776e-002 
5.360119e-003 
2.756484e-002 
4.669225e-002 
6.391086e-002 
8.211440e-002 
1.053134e-001 
1.263053e-001 
1.416281e-001 
1.559042e-001 
1.679780e-001 
1.749397e-001 
1.763244e-001 
1.759074e-001 
1.778018e-001 
1.783993e-001 
1.746816e-001 
1.709946e-001 
1.722353e-001 
1.815488e-001 
1.912611e-001 
2.027497e-001 
2.227086e-001 
2.396457e-001 
2.457831e-001 
2.462393e-001 
2.458708e-001 
2.485251e-001 
2.488456e-001 
2.398906e-001 
2.306136e-001 
2.200816e-001 
1.984597e-001 
1.738935e-001 
1.546958e-001 
1.428537e-001 
1.430224e-001 
1.605078e-001 
1.591451e-001 
8.087978e-002 
-6.941649e-002 
-2.216528e-001 
-3.098793e-001 
-3.359378e-001 
-3.318776e-001 
-3.061597e-001 
-2.850689e-001 
-3.440373e-001 
-4.703761e-001 
-5.444834e-001 
-5.032183e-001 
-3.992832e-001 
-3.253336e-001 
-3.047876e-001 
-3.128954e-001 
-3.439049e-001 
-3.794139e-001 
-3.543846e-001 
-2.433766e-001 
-1.067785e-001 
-1.775716e-002 
9.485545e-003 
1.005288e-002 
6.851993e-003 
5.787409e-003 
5.382512e-003 
4.848267e-003 
5.345921e-003 
4.984528e-003 
6.131077e-003 
1.069543e-002 
1.711188e-002 
2.282622e-002 
2.928765e-002 
3.606979e-002 
4.326959e-002 
5.069644e-002 
5.750141e-002 
6.471385e-002 
7.189143e-002 
7.900409e-002 
8.472688e-002 
9.208479e-002 
9.861669e-002 
1.006824e-001 
1.003217e-001 
9.992955e-002 
9.932287e-002 
9.738815e-002 
9.457084e-002 
9.300592e-002 
9.131575e-002 
8.407363e-002 
7.649736e-002 
7.255537e-002 
6.936107e-002 
6.490793e-002 
6.178319e-002 
6.668924e-002 
7.891060e-002 
8.983645e-002 
1.027105e-001 
1.211726e-001 
1.328838e-001 
1.357662e-001 
1.366063e-001 
1.399037e-001 
1.440905e-001 
1.385559e-001 
1.261839e-001 
1.170818e-001 
1.020792e-001 
7.643581e-002 
5.376665e-002 
3.696724e-002 
2.755408e-002 
3.156025e-002 
4.448115e-002 
3.371012e-002 
-5.411539e-002 
-1.967613e-001 
-3.206329e-001 
-3.841930e-001 
-3.963491e-001 
-3.778746e-001 
-3.449918e-001 
-3.368071e-001 
-4.049298e-001 
-5.155218e-001 
-5.535944e-001 
-4.957451e-001 
-4.021130e-001 
-3.424354e-001 
-3.287686e-001 
-3.438320e-001 
-3.779258e-001 
-4.017790e-001 
-3.600194e-001 
-2.482488e-001 
-1.312532e-001 
-6.010998e-002 
-4.034040e-002 
-3.842937e-002 
-3.733807e-002 
-3.526779e-002 
-3.432746e-002 
-3.422545e-002 
-3.247637e-002 
-3.111139e-002 
-2.961120e-002 
-2.430015e-002 
-1.657316e-002 
-8.756329e-003 
-1.176346e-004 
8.404151e-003 
1.916233e-002 
2.972836e-002 
3.745493e-002 
4.879504e-002 
6.120184e-002 
7.034082e-002 
7.833225e-002 
8.651605e-002 
9.609734e-002 
1.038507e-001 
1.068984e-001 
1.112206e-001 
1.173511e-001 
1.175118e-001 
1.137522e-001 
1.088390e-001 
1.037656e-001 
9.819731e-002 
8.874653e-002 
8.040165e-002 
7.542119e-002 
7.043600e-002 
6.769120e-002 
7.324990e-002 
8.466560e-002 
9.871848e-002 
1.133059e-001 
1.225199e-001 
1.259507e-001 
1.243274e-001 
1.223444e-001 
1.224659e-001 
1.187725e-001 
1.081916e-001 
9.627599e-002 
8.263013e-002 
6.209279e-002 
4.098272e-002 
2.444354e-002 
1.692172e-002 
2.368320e-002 
4.179880e-002 
4.071110e-002 
-3.435061e-002 
-1.640968e-001 
-2.795528e-001 
-3.421073e-001 
-3.539405e-001 
-3.361068e-001 
-3.023009e-001 
-2.857647e-001 
-3.444149e-001 
-4.539583e-001 
-4.947297e-001 
-4.447438e-001 
-3.615897e-001 
-3.047999e-001 
-2.939978e-001 
-3.116330e-001 
-3.481134e-001 
-3.798621e-001 
-3.490482e-001 
-2.478620e-001 
-1.432950e-001 
-7.798218e-002 
-6.052394e-002 
-6.390911e-002 
-6.626477e-002 
-6.707400e-002 
-6.890621e-002 
-7.099749e-002 
-7.500519e-002 
-7.795855e-002 
-7.858162e-002 
-7.719849e-002 
-7.063344e-002 
-6.231250e-002 
-5.365500e-002 
-4.258044e-002 
-3.043557e-002 
-1.957227e-002 
-7.927273e-003 
3.990667e-003 
2.127366e-002 
3.977836e-002 
5.364610e-002 
6.707742e-002 
8.137306e-002 
9.293737e-002 
1.027633e-001 
1.120335e-001 
1.239349e-001 
1.358200e-001 
1.393919e-001 
1.390784e-001 
1.386250e-001 
1.383490e-001 
1.356379e-001 
1.319271e-001 
1.320666e-001 
1.359013e-001 
1.411624e-001 
1.537589e-001 
1.730661e-001 
1.934349e-001 
2.060027e-001 
2.088411e-001 
2.102220e-001 
2.085652e-001 
2.041557e-001 
2.012146e-001 
1.966024e-001 
1.853140e-001 
1.644275e-001 
1.341612e-001 
1.099175e-001 
8.862641e-002 
6.937181e-002 
6.811922e-002 
8.780735e-002 
1.084074e-001 
7.443356e-002 
-3.313432e-002 
-1.487410e-001 
-2.223073e-001 
-2.547600e-001 
-2.501101e-001 
-2.189185e-001 
-1.856058e-001 
-2.050629e-001 
-3.028970e-001 
-3.843141e-001 
-3.731158e-001 
-3.096625e-001 
-2.504887e-001 
-2.253378e-001 
-2.320548e-001 
-2.642805e-001 
-3.105126e-001 
-3.243611e-001 
-2.661302e-001 
-1.741815e-001 
-1.028580e-001 
-6.990045e-002 
-6.519224e-002 
-6.652523e-002 
-6.845884e-002 
-7.007435e-002 
-7.389196e-002 
-7.866195e-002 
-8.391463e-002 
-8.611371e-002 
-8.570778e-002 
-8.424313e-002 
-8.067568e-002 
-7.230103e-002 
-6.013234e-002 
-4.750300e-002 
-3.439287e-002 
-1.962559e-002 
-2.204173e-003 
1.740326e-002 
3.886577e-002 
6.248221e-002 
8.742137e-002 
1.099534e-001 
1.299085e-001 
1.501856e-001 
1.710898e-001 
1.889863e-001 
2.039133e-001 
2.161670e-001 
2.263432e-001 
2.336399e-001 
2.382461e-001 
2.481005e-001 
2.655041e-001 
2.837471e-001 
3.002902e-001 
3.176329e-001 
3.311217e-001 
3.391712e-001 
3.429160e-001 
3.484691e-001 
3.576928e-001 
3.592059e-001 
3.525258e-001 
3.448578e-001 
3.326604e-001 
3.133035e-001 
2.973541e-001 
2.875200e-001 
2.870816e-001 
3.003808e-001 
3.193764e-001 
3.161243e-001 
2.463496e-001 
1.314571e-001 
3.696808e-002 
-7.815559e-003 
-1.718476e-002 
-6.945121e-003 
1.424961e-002 
1.183372e-002 
-5.818495e-002 
-1.664063e-001 
-2.084530e-001 
-1.690820e-001 
-1.100786e-001 
-8.330891e-002 
-9.099292e-002 
-1.179685e-001 
-1.627829e-001 
-2.031600e-001 
-1.867888e-001 
-1.065928e-001 
-2.568540e-002 
1.744632e-002 
2.626941e-002 
2.661257e-002 
2.919592e-002 
2.843009e-002 
2.662759e-002 
2.880508e-002 
3.126983e-002 
3.261363e-002 
3.713495e-002 
4.615905e-002 
5.913763e-002 
7.235177e-002 
8.460817e-002 
1.007963e-001 
1.180211e-001 
1.333291e-001 
1.508013e-001 
1.708503e-001 
1.912918e-001 
2.087858e-001 
2.211542e-001 
2.342597e-001 
2.477165e-001 
2.552236e-001 
2.612220e-001 
2.670373e-001 
2.680976e-001 
2.631286e-001 
2.524859e-001 
2.407543e-001 
2.309305e-001 
2.174436e-001 
2.101689e-001 
2.129968e-001 
2.168820e-001 
2.219382e-001 
2.233421e-001 
2.213203e-001 
2.169259e-001 
2.060697e-001 
1.974809e-001 
1.956582e-001 
1.843496e-001 
1.665394e-001 
1.473897e-001 
1.223712e-001 
9.842460e-002 
7.409777e-002 
5.608329e-002 
5.637674e-002 
7.298842e-002 
6.623994e-002 
-1.125366e-002 
-1.558961e-001 
-3.068371e-001 
-3.999584e-001 
-4.279344e-001 
-4.183468e-001 
-3.867495e-001 
-3.656064e-001 
-4.223990e-001 
-5.388285e-001 
-6.112414e-001 
-5.791001e-001 
-4.759216e-001 
-3.882675e-001 
-3.555716e-001 
-3.591660e-001 
-3.869319e-001 
-4.131817e-001 
-3.817947e-001 
-2.745599e-001 
-1.360310e-001 
-2.997432e-002 
1.348178e-002 
1.841986e-002 
1.941853e-002 
2.876653e-002 
3.699836e-002 
3.888578e-002 
4.372148e-002 
5.548911e-002 
6.769356e-002 
7.380696e-002 
8.048271e-002 
9.177945e-002 
1.022270e-001 
1.069301e-001 
1.122147e-001 
1.231935e-001 
1.340438e-001 
1.381571e-001 
1.400756e-001 
1.447270e-001 
1.485350e-001 
1.479715e-001 
1.441597e-001 
1.430519e-001 
1.438865e-001 
1.407877e-001 
1.336569e-001 
1.279870e-001 
1.221992e-001 
1.150878e-001 
1.056222e-001 
9.819018e-002 
9.567499e-002 
9.444888e-002 
9.979838e-002 
1.141238e-001 
1.329255e-001 
1.538881e-001 
1.679084e-001 
1.721723e-001 
1.743643e-001 
1.721555e-001 
1.710337e-001 
1.734572e-001 
1.683740e-001 
1.563716e-001 
1.387471e-001 
1.091357e-001 
8.139491e-002 
5.983282e-002 
4.448418e-002 
4.665418e-002 
5.867228e-002 
4.140775e-002 
-5.240927e-002 
-1.967539e-001 
-3.197395e-001 
-3.829855e-001 
-3.983339e-001 
-3.856254e-001 
-3.575512e-001 
-3.488047e-001 
-4.144835e-001 
-5.246365e-001 
-5.602627e-001 
-5.029910e-001 
-4.168011e-001 
-3.591629e-001 
-3.434921e-001 
-3.550642e-001 
-3.850529e-001 
-4.054719e-001 
-3.647063e-001 
-2.587621e-001 
-1.506004e-001 
-8.289844e-002 
-6.234111e-002 
-6.415259e-002 
-6.811722e-002 
-6.772007e-002 
-6.607873e-002 
-7.205936e-002 
-7.682754e-002 
-7.535592e-002 
-7.173984e-002 
-6.871152e-002 
-6.544137e-002 
-5.858768e-002 
-4.794432e-002 
-4.194300e-002 
-3.721548e-002 
-2.627150e-002 
-1.567381e-002 
-6.418681e-003 
2.246030e-003 
1.211370e-002 
2.405274e-002 
3.239512e-002 
3.674197e-002 
4.463517e-002 
5.278416e-002 
5.621400e-002 
5.870610e-002 
6.155531e-002 
6.138848e-002 
5.694279e-002 
5.081438e-002 
4.667213e-002 
4.555648e-002 
4.638017e-002 
5.496273e-002 
7.302777e-002 
9.388407e-002 
1.121369e-001 
1.234312e-001 
1.292212e-001 
1.306698e-001 
1.302222e-001 
1.325599e-001 
1.359875e-001 
1.331766e-001 
1.242317e-001 
1.065068e-001 
8.156204e-002 
6.202326e-002 
4.418007e-002 
3.193613e-002 
3.120398e-002 
4.871709e-002 
6.358632e-002 
2.949901e-002 
-7.405916e-002 
-1.900010e-001 
-2.673558e-001 
-2.981736e-001 
-2.924864e-001 
-2.645913e-001 
-2.323512e-001 
-2.534311e-001 
-3.442474e-001 
-4.282506e-001 
-4.258284e-001 
-3.625299e-001 
-2.981634e-001 
-2.718748e-001 
-2.799571e-001 
-3.129491e-001 
-3.591658e-001 
-3.749205e-001 
-3.233576e-001 
-2.328612e-001 
-1.597019e-001 
-1.283358e-001 
-1.322067e-001 
-1.446316e-001 
-1.531179e-001 
-1.615749e-001 
-1.749362e-001 
-1.869613e-001 
-1.952114e-001 
-2.006226e-001 
-2.062316e-001 
-2.098512e-001 
-2.066471e-001 
-1.986656e-001 
-1.936989e-001 
-1.876496e-001 
-1.741383e-001 
-1.612645e-001 
-1.505369e-001 
-1.374615e-001 
-1.206687e-001 
-1.029930e-001 
-8.851942e-002 
-7.611214e-002 
-6.136659e-002 
-4.660948e-002 
-3.670202e-002 
-2.761218e-002 
-1.684389e-002 
-9.177926e-003 
-6.138420e-003 
-6.242890e-003 
-6.148733e-003 
-5.193800e-003 
-4.647731e-003 
-2.199954e-003 
1.082122e-002 
3.119884e-002 
4.959716e-002 
6.946987e-002 
8.357878e-002 
9.182452e-002 
9.507054e-002 
9.591848e-002 
1.017273e-001 
1.087826e-001 
1.047531e-001 
9.534935e-002 
8.408747e-002 
6.283022e-002 
4.336036e-002 
2.926236e-002 
2.621560e-002 
4.068832e-002 
6.425804e-002 
7.584817e-002 
3.323472e-002 
-7.372228e-002 
-1.800424e-001 
-2.409066e-001 
-2.593475e-001 
-2.448427e-001 
-2.163784e-001 
-2.008420e-001 
-2.382831e-001 
-3.382208e-001 
-4.069348e-001 
-3.829349e-001 
-3.214053e-001 
-2.734794e-001 
-2.608572e-001 
-2.816152e-001 
-3.201739e-001 
-3.625432e-001 
-3.682661e-001 
-3.032231e-001 
-2.133462e-001 
-1.534897e-001 
-1.319877e-001 
-1.351284e-001 
-1.394956e-001 
-1.431095e-001 
-1.523321e-001 
-1.612434e-001 
-1.671076e-001 
-1.729546e-001 
-1.794767e-001 
-1.824263e-001 
-1.794284e-001 
-1.723301e-001 
-1.651068e-001 
-1.571408e-001 
-1.428553e-001 
-1.284823e-001 
-1.162894e-001 
-9.909964e-002 
-7.577771e-002 
-5.332490e-002 
-3.217988e-002 
-1.003194e-002 
1.558310e-002 
4.181521e-002 
6.020833e-002 
7.759467e-002 
9.692470e-002 
1.108849e-001 
1.175659e-001 
1.231486e-001 
1.299707e-001 
1.393582e-001 
1.477985e-001 
1.569448e-001 
1.737768e-001 
1.896788e-001 
1.943317e-001 
1.940728e-001 
1.937683e-001 
1.934340e-001 
1.923044e-001 
1.846421e-001 
1.757845e-001 
1.654027e-001 
1.418559e-001 
1.125741e-001 
9.288481e-002 
7.860752e-002 
7.318336e-002 
8.190612e-002 
9.880752e-002 
9.234769e-002 
1.112256e-002 
-1.302856e-001 
-2.490306e-001 
-3.043652e-001 
-3.108430e-001 
-2.867796e-001 
-2.516626e-001 
-2.396024e-001 
-2.978650e-001 
-4.056428e-001 
-4.530941e-001 
-3.924265e-001 
-2.948279e-001 
-2.308075e-001 
-2.119129e-001 
-2.233673e-001 
-2.552498e-001 
-2.805143e-001 
-2.438968e-001 
-1.330643e-001 
-1.231975e-002 
5.860060e-002 
8.176406e-002 
8.417439e-002 
8.137187e-002 
7.642007e-002 
7.671468e-002 
7.964821e-002 
7.848798e-002 
7.611619e-002 
7.881890e-002 
8.688196e-002 
9.352516e-002 
9.928895e-002 
1.103497e-001 
1.252176e-001 
1.355576e-001 
1.445583e-001 
1.572842e-001 
1.719888e-001 
1.843168e-001 
1.949112e-001 
2.076231e-001 
2.220670e-001 
2.331497e-001 
2.415104e-001 
2.513760e-001 
2.598461e-001 
2.641141e-001 
2.657344e-001 
2.667177e-001 
2.671405e-001 
2.654120e-001 
2.629520e-001 
2.662068e-001 
2.769015e-001 
2.915274e-001 
3.099474e-001 
3.302291e-001 
3.435257e-001 
3.494262e-001 
3.512916e-001 
3.536538e-001 
3.569571e-001 
3.548104e-001 
3.469743e-001 
3.378609e-001 
3.213616e-001 
2.954115e-001 
2.737420e-001 
2.593063e-001 
2.562113e-001 
2.691541e-001 
2.724198e-001 
2.227240e-001 
9.909940e-002 
-5.547161e-002 
-1.649104e-001 
-2.076518e-001 
-2.095005e-001 
-1.858444e-001 
-1.633534e-001 
-1.949370e-001 
-2.935568e-001 
-3.904436e-001 
-3.912335e-001 
-3.052082e-001 
-2.191391e-001 
-1.795788e-001 
-1.790436e-001 
-2.046820e-001 
-2.388090e-001 
-2.375679e-001 
-1.613577e-001 
-3.198041e-002 
7.619086e-002 
1.248618e-001 
1.336203e-001 
1.321288e-001 
1.318176e-001 
1.304630e-001 
1.303577e-001 
1.340698e-001 
1.385996e-001 
1.422936e-001 
1.460576e-001 
1.565879e-001 
1.690535e-001 
1.790951e-001 
1.880028e-001 
2.005593e-001 
2.130827e-001 
2.223244e-001 
2.304066e-001 
2.426206e-001 
2.576778e-001 
2.647052e-001 
2.670668e-001 
2.719892e-001 
2.789751e-001 
2.806359e-001 
2.812488e-001 
2.843325e-001 
2.859532e-001 
2.811534e-001 
2.725984e-001 
2.657353e-001 
2.621431e-001 
2.549399e-001 
2.447149e-001 
2.415768e-001 
2.389971e-001 
2.327904e-001 
2.360745e-001 
2.490633e-001 
2.644133e-001 
2.840144e-001 
2.944692e-001 
3.004946e-001 
3.061519e-001 
3.026298e-001 
2.989139e-001 
3.017665e-001 
2.983114e-001 
2.911017e-001 
2.792453e-001 
2.537592e-001 
2.306384e-001 
2.096453e-001 
1.942653e-001 
1.965829e-001 
2.153774e-001 
2.096320e-001 
1.272259e-001 
-2.006778e-002 
-1.644238e-001 
-2.511030e-001 
-2.784990e-001 
-2.674286e-001 
-2.380490e-001 
-2.246734e-001 
-2.886288e-001 
-4.047586e-001 
-4.647418e-001 
-4.270587e-001 
-3.341569e-001 
-2.574787e-001 
-2.301041e-001 
-2.398000e-001 
-2.719199e-001 
-2.984951e-001 
-2.623723e-001 
-1.537330e-001 
-2.611872e-002 
6.541028e-002 
1.025970e-001 
1.065194e-001 
1.059026e-001 
1.117288e-001 
1.197763e-001 
1.262011e-001 
1.330793e-001 
1.391440e-001 
1.480761e-001 
1.588837e-001 
1.681274e-001 
1.814727e-001 
1.955241e-001 
2.059032e-001 
2.147628e-001 
2.242903e-001 
2.311520e-001 
2.400849e-001 
2.476986e-001 
2.543127e-001 
2.593212e-001 
2.591639e-001 
2.566478e-001 
2.559897e-001 
2.551179e-001 
2.502310e-001 
2.467609e-001 
2.424424e-001 
2.359202e-001 
2.246023e-001 
2.134913e-001 
2.062593e-001 
2.017854e-001 
1.942276e-001 
1.876459e-001 
1.853879e-001 
1.817032e-001 
1.758623e-001 
1.703270e-001 
1.722762e-001 
1.823181e-001 
1.955637e-001 
2.090060e-001 
2.265250e-001 
2.385411e-001 
2.412560e-001 
2.399710e-001 
2.409049e-001 
2.434279e-001 
2.420024e-001 
2.357386e-001 
2.277701e-001 
2.151008e-001 
1.933701e-001 
1.719735e-001 
1.568644e-001 
1.502633e-001 
1.535185e-001 
1.703793e-001 
1.665697e-001 
8.740795e-002 
-4.824884e-002 
-1.710489e-001 
-2.365117e-001 
-2.493113e-001 
-2.353475e-001 
-2.057266e-001 
-1.879899e-001 
-2.443868e-001 
-3.534770e-001 
-4.014320e-001 
-3.525721e-001 
-2.613800e-001 
-1.983820e-001 
-1.825272e-001 
-1.897790e-001 
-2.145753e-001 
-2.418364e-001 
-2.116861e-001 
-1.066671e-001 
1.153220e-002 
8.754496e-002 
1.115921e-001 
1.168707e-001 
1.225432e-001 
1.226161e-001 
1.214220e-001 
1.250280e-001 
1.308740e-001 
1.346438e-001 
1.364505e-001 
1.419609e-001 
1.526521e-001 
1.595784e-001 
1.654189e-001 
1.759147e-001 
1.848711e-001 
1.902636e-001 
1.939947e-001 
2.003805e-001 
2.112213e-001 
2.179334e-001 
2.192197e-001 
2.232056e-001 
2.266239e-001 
2.242583e-001 
2.203998e-001 
2.208214e-001 
2.229151e-001 
2.206139e-001 
2.123189e-001 
2.056059e-001 
1.991949e-001 
1.871278e-001 
1.742146e-001 
1.666415e-001 
1.621581e-001 
1.541620e-001 
1.440731e-001 
1.372274e-001 
1.314569e-001 
1.212090e-001 
1.108609e-001 
1.081809e-001 
1.144995e-001 
1.245801e-001 
1.351850e-001 
1.461007e-001 
1.539808e-001 
1.527010e-001 
1.483433e-001 
1.481479e-001 
1.502619e-001 
1.492722e-001 
1.454657e-001 
1.384509e-001 
1.257245e-001 
1.078893e-001 
8.818421e-002 
7.690968e-002 
7.826149e-002 
9.626001e-002 
1.131077e-001 
8.061716e-002 
-3.269097e-002 
-1.743200e-001 
-2.736730e-001 
-3.135557e-001 
-3.111951e-001 
-2.847200e-001 
-2.548268e-001 
-2.756078e-001 
-3.728121e-001 
-4.729061e-001 
-4.753104e-001 
-3.976815e-001 
-3.186893e-001 
-2.831416e-001 
-2.866250e-001 
-3.147701e-001 
-3.547850e-001 
-3.647664e-001 
-2.998169e-001 
-1.827093e-001 
-8.632082e-002 
-4.428622e-002 
-4.382509e-002 
-5.199928e-002 
-5.551455e-002 
-6.148795e-002 
-6.882061e-002 
-7.227271e-002 
-7.355654e-002 
-7.702965e-002 
-8.288650e-002 
-8.434957e-002 
-7.853590e-002 
-7.262063e-002 
-6.987778e-002 
-6.406904e-002 
-5.390181e-002 
-4.332277e-002 
-3.530257e-002 
-2.420386e-002 
-7.256808e-003 
8.005312e-003 
1.856389e-002 
2.783436e-002 
4.056900e-002 
5.365155e-002 
6.251845e-002 
7.006451e-002 
7.865633e-002 
8.595392e-002 
9.379717e-002 
1.020451e-001 
1.083675e-001 
1.131261e-001 
1.137553e-001 
1.131495e-001 
1.123353e-001 
1.096091e-001 
1.107540e-001 
1.138814e-001 
1.114866e-001 
1.055331e-001 
1.005218e-001 
1.047379e-001 
1.179756e-001 
1.315047e-001 
1.481554e-001 
1.619403e-001 
1.644111e-001 
1.587149e-001 
1.500273e-001 
1.471245e-001 
1.495377e-001 
1.439673e-001 
1.353201e-001 
1.273185e-001 
1.114707e-001 
9.129438e-002 
7.405267e-002 
6.768570e-002 
7.992882e-002 
1.035051e-001 
1.145176e-001 
6.435418e-002 
-5.044859e-002 
-1.639715e-001 
-2.292505e-001 
-2.440667e-001 
-2.278864e-001 
-1.958288e-001 
-1.743255e-001 
-2.147750e-001 
-3.208920e-001 
-3.851974e-001 
-3.519573e-001 
-2.753225e-001 
-2.193165e-001 
-2.042680e-001 
-2.176264e-001 
-2.538410e-001 
-2.947142e-001 
-2.888062e-001 
-2.086993e-001 
-1.073148e-001 
-4.123363e-002 
-2.072831e-002 
-2.334158e-002 
-2.805310e-002 
-3.301777e-002 
-3.673388e-002 
-3.940258e-002 
-4.158552e-002 
-4.363455e-002 
-4.699971e-002 
-5.039125e-002 
-5.124692e-002 
-4.829403e-002 
-4.343670e-002 
-3.479179e-002 
-2.409294e-002 
-1.239203e-002 
-2.970265e-003 
6.190322e-003 
2.063518e-002 
3.637041e-002 
5.043245e-002 
6.370148e-002 
7.747993e-002 
9.094590e-002 
1.023774e-001 
1.093603e-001 
1.186176e-001 
1.271018e-001 
1.277486e-001 
1.252480e-001 
1.220560e-001 
1.174560e-001 
1.103541e-001 
1.015004e-001 
9.382711e-002 
8.814400e-002 
8.090209e-002 
7.761618e-002 
8.396815e-002 
9.603948e-002 
1.084875e-001 
1.202629e-001 
1.279232e-001 
1.304421e-001 
1.283528e-001 
1.286428e-001 
1.354305e-001 
1.412620e-001 
1.401645e-001 
1.364649e-001 
1.294167e-001 
1.149039e-001 
1.022785e-001 
9.505284e-002 
9.819673e-002 
1.128514e-001 
1.418290e-001 
1.669256e-001 
1.370723e-001 
3.010776e-002 
-8.599370e-002 
-1.556810e-001 
-1.758298e-001 
-1.597597e-001 
-1.270445e-001 
-9.775475e-002 
-1.253645e-001 
-2.297601e-001 
-3.172436e-001 
-3.020828e-001 
-2.291531e-001 
-1.620359e-001 
-1.359900e-001 
-1.492242e-001 
-1.837131e-001 
-2.263345e-001 
-2.341676e-001 
-1.651395e-001 
-5.647316e-002 
2.503374e-002 
5.893790e-002 
5.566905e-002 
4.602192e-002 
4.041635e-002 
3.055053e-002 
1.719558e-002 
7.827012e-003 
1.790174e-005 
-1.187735e-002 
-2.426505e-002 
-3.263360e-002 
-3.283412e-002 
-3.106536e-002 
-2.905298e-002 
-2.223449e-002 
-1.142517e-002 
-5.399262e-003 
9.680832e-004 
1.554060e-002 
3.394340e-002 
5.241887e-002 
6.993592e-002 
8.962784e-002 
1.083469e-001 
1.216724e-001 
1.312599e-001 
1.451023e-001 
1.565382e-001 
1.602492e-001 
1.599382e-001 
1.589665e-001 
1.555592e-001 
1.460893e-001 
1.363579e-001 
1.326147e-001 
1.297689e-001 
1.267532e-001 
1.320160e-001 
1.458792e-001 
1.623140e-001 
1.769298e-001 
1.846306e-001 
1.911616e-001 
1.950474e-001 
1.923748e-001 
1.914941e-001 
1.919129e-001 
1.870661e-001 
1.775577e-001 
1.628452e-001 
1.407506e-001 
1.209630e-001 
1.013753e-001 
9.000347e-002 
9.691375e-002 
1.130803e-001 
1.038717e-001 
2.028228e-002 
-1.226528e-001 
-2.611232e-001 
-3.497085e-001 
-3.807319e-001 
-3.671621e-001 
-3.395961e-001 
-3.356163e-001 
-4.026087e-001 
-5.190592e-001 
-5.798865e-001 
-5.496511e-001 
-4.709930e-001 
-4.033499e-001 
-3.808783e-001 
-4.012304e-001 
-4.424835e-001 
-4.751828e-001 
-4.463746e-001 
-3.448272e-001 
-2.257269e-001 
-1.421424e-001 
-1.092022e-001 
-1.071056e-001 
-1.137966e-001 
-1.196778e-001 
-1.248423e-001 
-1.319895e-001 
-1.414835e-001 
-1.510164e-001 
-1.604877e-001 
-1.663699e-001 
-1.720388e-001 
-1.770546e-001 
-1.786785e-001 
-1.800617e-001 
-1.835978e-001 
-1.844341e-001 
-1.830562e-001 
-1.810504e-001 
-1.779508e-001 
-1.750542e-001 
-1.688811e-001 
-1.621053e-001 
-1.586078e-001 
-1.537284e-001 
-1.465527e-001 
-1.428481e-001 
-1.395857e-001 
-1.358747e-001 
-1.349686e-001 
-1.373733e-001 
-1.425417e-001 
-1.477704e-001 
-1.531305e-001 
-1.615457e-001 
-1.694910e-001 
-1.708835e-001 
-1.670905e-001 
-1.603356e-001 
-1.479397e-001 
-1.278088e-001 
-1.138361e-001 
-1.115241e-001 
-1.133215e-001 
-1.126432e-001 
-1.085180e-001 
-1.080371e-001 
-1.141659e-001 
-1.203327e-001 
-1.319177e-001 
-1.585428e-001 
-1.844493e-001 
-2.013715e-001 
-2.105574e-001 
-2.129876e-001 
-2.009492e-001 
-1.905182e-001 
-2.247085e-001 
-3.339134e-001 
-4.669853e-001 
-5.584636e-001 
-5.963925e-001 
-5.967377e-001 
-5.717882e-001 
-5.397689e-001 
-5.561680e-001 
-6.400317e-001 
-7.246956e-001 
-7.196022e-001 
-6.448864e-001 
-5.656685e-001 
-5.222460e-001 
-5.129492e-001 
-5.311456e-001 
-5.637785e-001 
-5.654828e-001 
-4.948924e-001 
-3.765323e-001 
-2.787593e-001 
-2.251947e-001 
-2.069086e-001 
-1.998740e-001 
-1.968179e-001 
-1.951183e-001 
-1.900079e-001 
-1.835981e-001 
-1.804917e-001 
-1.761014e-001 
-1.664911e-001 
-1.545005e-001 
-1.422964e-001 
-1.299410e-001 
-1.130631e-001 
-9.516002e-002 
-8.073379e-002 
-6.572384e-002 
-4.664749e-002 
-2.933645e-002 
-1.434538e-002 
1.527946e-003 
1.875332e-002 
3.461896e-002 
4.469664e-002 
5.355615e-002 
6.393545e-002 
7.114764e-002 
7.145026e-002 
7.122408e-002 
7.080272e-002 
6.739474e-002 
6.030126e-002 
5.230140e-002 
4.831939e-002 
4.510972e-002 
4.044656e-002 
4.254568e-002 
5.472357e-002 
6.990571e-002 
8.771060e-002 
9.905239e-002 
1.058151e-001 
1.105595e-001 
1.079916e-001 
1.072327e-001 
1.115883e-001 
1.105009e-001 
1.047468e-001 
9.348955e-002 
7.214958e-002 
5.478893e-002 
3.691618e-002 
2.037569e-002 
1.867252e-002 
3.510843e-002 
5.469848e-002 
4.705082e-002 
-3.406803e-002 
-1.570782e-001 
-2.540953e-001 
-3.073740e-001 
-3.138968e-001 
-2.881663e-001 
-2.561007e-001 
-2.560224e-001 
-3.223654e-001 
-4.266782e-001 
-4.590550e-001 
-4.077574e-001 
-3.346776e-001 
-2.852745e-001 
-2.791557e-001 
-3.049291e-001 
-3.441363e-001 
-3.713953e-001 
-3.419604e-001 
-2.473617e-001 
-1.508237e-001 
-9.360454e-002 
-7.932944e-002 
-8.431274e-002 
-8.625886e-002 
-8.813719e-002 
-9.466598e-002 
-1.006241e-001 
-1.002923e-001 
-9.902598e-002 
-9.995070e-002 
-9.683728e-002 
-8.729294e-002 
-7.459762e-002 
-6.423491e-002 
-5.288072e-002 
-3.545083e-002 
-1.615337e-002 
-3.926065e-004 
1.696936e-002 
3.949399e-002 
6.121422e-002 
7.864062e-002 
9.409220e-002 
1.107506e-001 
1.265212e-001 
1.371972e-001 
1.455312e-001 
1.544331e-001 
1.599650e-001 
1.590508e-001 
1.555439e-001 
1.514607e-001 
1.452029e-001 
1.390706e-001 
1.359156e-001 
1.406815e-001 
1.515365e-001 
1.636725e-001 
1.793540e-001 
1.958916e-001 
2.027919e-001 
2.039227e-001 
2.054326e-001 
2.074745e-001 
2.096997e-001 
2.049050e-001 
1.948970e-001 
1.845009e-001 
1.664245e-001 
1.408223e-001 
1.196287e-001 
1.024297e-001 
9.222421e-002 
9.684738e-002 
1.062083e-001 
9.158053e-002 
4.712454e-003 
-1.335651e-001 
-2.506614e-001 
-3.098410e-001 
-3.201983e-001 
-3.010572e-001 
-2.711779e-001 
-2.677418e-001 
-3.315509e-001 
-4.372092e-001 
-4.736466e-001 
-4.164308e-001 
-3.272191e-001 
-2.696735e-001 
-2.563861e-001 
-2.709752e-001 
-3.012176e-001 
-3.201858e-001 
-2.781122e-001 
-1.686007e-001 
-5.553019e-002 
1.347325e-002 
3.345236e-002 
3.439602e-002 
3.485896e-002 
3.625793e-002 
3.888093e-002 
4.213031e-002 
4.425862e-002 
4.478096e-002 
4.430619e-002 
4.784765e-002 
5.312761e-002 
5.941160e-002 
6.997150e-002 
8.168379e-002 
8.976754e-002 
9.461695e-002 
9.917030e-002 
1.078144e-001 
1.197457e-001 
1.270713e-001 
1.346943e-001 
1.454141e-001 
1.507634e-001 
1.508197e-001 
1.519303e-001 
1.546918e-001 
1.576972e-001 
1.545628e-001 
1.473890e-001 
1.433823e-001 
1.399056e-001 
1.299771e-001 
1.200930e-001 
1.148993e-001 
1.090093e-001 
1.017193e-001 
1.020032e-001 
1.136172e-001 
1.282078e-001 
1.432862e-001 
1.495973e-001 
1.523273e-001 
1.526010e-001 
1.453202e-001 
1.421171e-001 
1.464935e-001 
1.421603e-001 
1.305602e-001 
1.138154e-001 
8.612086e-002 
6.262881e-002 
4.034748e-002 
2.057627e-002 
1.594251e-002 
2.896106e-002 
3.921475e-002 
1.370107e-002 
-8.316234e-002 
-2.077721e-001 
-2.966497e-001 
-3.388261e-001 
-3.404900e-001 
-3.142421e-001 
-2.830275e-001 
-2.935847e-001 
-3.691986e-001 
-4.610451e-001 
-4.708548e-001 
-4.056553e-001 
-3.292271e-001 
-2.861876e-001 
-2.811103e-001 
-3.042565e-001 
-3.395658e-001 
-3.532763e-001 
-3.066991e-001 
-2.065911e-001 
-1.148777e-001 
-6.636232e-002 
-6.005035e-002 
-6.668417e-002 
-7.048222e-002 
-7.276053e-002 
-7.770994e-002 
-8.258394e-002 
-8.515835e-002 
-8.550493e-002 
-8.931651e-002 
-9.448339e-002 
-9.114254e-002 
-8.132035e-002 
-7.084262e-002 
-5.865310e-002 
-4.394996e-002 
-2.721240e-002 
-9.811003e-003 
5.257603e-003 
2.499122e-002 
5.059035e-002 
7.309620e-002 
9.181192e-002 
1.106131e-001 
1.294328e-001 
1.458104e-001 
1.576563e-001 
1.689209e-001 
1.801666e-001 
1.866869e-001 
1.870488e-001 
1.863488e-001 
1.861950e-001 
1.833967e-001 
1.768381e-001 
1.748892e-001 
1.829778e-001 
1.958881e-001 
2.120359e-001 
2.335839e-001 
2.472924e-001 
2.499684e-001 
2.464835e-001 
2.434326e-001 
2.466360e-001 
2.476877e-001 
2.428873e-001 
2.377101e-001 
2.267688e-001 
1.998353e-001 
1.778917e-001 
1.631463e-001 
1.568671e-001 
1.626659e-001 
1.823091e-001 
2.013762e-001 
1.628237e-001 
6.090479e-002 
-4.083255e-002 
-9.696594e-002 
-1.138188e-001 
-1.035523e-001 
-7.481191e-002 
-4.336364e-002 
-6.813186e-002 
-1.641170e-001 
-2.262402e-001 
-2.040074e-001 
-1.408442e-001 
-9.241191e-002 
-7.711763e-002 
-8.603688e-002 
-1.169518e-001 
-1.628034e-001 
-1.695521e-001 
-1.059589e-001 
-2.046837e-002 
3.876684e-002 
5.860033e-002 
5.753875e-002 
5.201505e-002 
4.516146e-002 
3.919171e-002 
3.547535e-002 
3.028261e-002 
2.420332e-002 
1.882365e-002 
1.760564e-002 
2.021138e-002 
2.517576e-002 
3.351472e-002 
4.559323e-002 
5.792058e-002 
6.670419e-002 
7.727910e-002 
9.274018e-002 
1.113487e-001 
1.287489e-001 
1.459559e-001 
1.639663e-001 
1.805486e-001 
1.927268e-001 
2.024092e-001 
2.156377e-001 
2.272340e-001 
2.327644e-001 
2.346644e-001 
2.357382e-001 
2.324519e-001 
2.260591e-001 
2.188485e-001 
2.139194e-001 
2.136922e-001 
2.188388e-001 
2.297586e-001 
2.467421e-001 
2.670336e-001 
2.760164e-001 
2.775577e-001 
2.771120e-001 
2.753411e-001 
2.755862e-001 
2.753115e-001 
2.697778e-001 
2.640303e-001 
2.497035e-001 
2.208395e-001 
1.990314e-001 
1.838552e-001 
1.713027e-001 
1.696265e-001 
1.878348e-001 
2.066710e-001 
1.783894e-001 
7.607799e-002 
-4.119387e-002 
-1.141561e-001 
-1.439030e-001 
-1.423259e-001 
-1.141658e-001 
-8.027729e-002 
-9.924029e-002 
-1.891696e-001 
-2.740240e-001 
-2.702361e-001 
-2.056818e-001 
-1.447219e-001 
-1.168541e-001 
-1.191235e-001 
-1.503319e-001 
-1.969721e-001 
-2.112193e-001 
-1.578087e-001 
-6.460337e-002 
9.659992e-003 
4.317020e-002 
4.620163e-002 
3.929940e-002 
3.254649e-002 
2.835752e-002 
2.418282e-002 
1.670549e-002 
9.562316e-003 
4.891961e-003 
1.248250e-003 
-3.184904e-004 
2.151132e-003 
1.036511e-002 
2.119439e-002 
3.156891e-002 
4.237715e-002 
5.615350e-002 
7.147073e-002 
8.780804e-002 
1.061987e-001 
1.264545e-001 
1.458510e-001 
1.607339e-001 
1.724447e-001 
1.867103e-001 
2.017304e-001 
2.128853e-001 
2.211478e-001 
2.283527e-001 
2.313556e-001 
2.277853e-001 
2.209373e-001 
2.170768e-001 
2.167119e-001 
2.133966e-001 
2.074607e-001 
2.041288e-001 
2.069861e-001 
2.145600e-001 
2.274538e-001 
2.472905e-001 
2.665094e-001 
2.754479e-001 
2.770207e-001 
2.747245e-001 
2.750127e-001 
2.778034e-001 
2.768703e-001 
2.737600e-001 
2.669131e-001 
2.476452e-001 
2.236552e-001 
2.055335e-001 
1.923642e-001 
1.890363e-001 
2.026918e-001 
2.237229e-001 
2.195166e-001 
1.409785e-001 
1.909117e-002 
-7.338524e-002 
-1.166371e-001 
-1.228208e-001 
-1.023860e-001 
-6.765562e-002 
-6.057660e-002 
-1.236571e-001 
-2.244563e-001 
-2.481434e-001 
-1.920115e-001 
-1.227438e-001 
-8.167646e-002 
-7.341401e-002 
-9.143527e-002 
-1.305128e-001 
-1.600243e-001 
-1.267730e-001 
-3.154541e-002 
5.416962e-002 
1.023922e-001 
1.156262e-001 
1.133849e-001 
1.093487e-001 
1.054561e-001 
1.030930e-001 
1.006575e-001 
9.461183e-002 
9.005248e-002 
9.108591e-002 
9.326210e-002 
9.609275e-002 
1.028819e-001 
1.117896e-001 
1.196112e-001 
1.267742e-001 
1.351810e-001 
1.477969e-001 
1.612280e-001 
1.728207e-001 
1.847306e-001 
1.990688e-001 
2.098987e-001 
2.175937e-001 
2.264225e-001 
2.361085e-001 
2.451634e-001 
2.491451e-001 
2.504292e-001 
2.510103e-001 
2.490873e-001 
2.425916e-001 
2.360013e-001 
2.317539e-001 
2.279415e-001 
2.218024e-001 
2.155127e-001 
2.129356e-001 
2.114495e-001 
2.159367e-001 
2.263991e-001 
2.412623e-001 
2.600019e-001 
2.702517e-001 
2.737640e-001 
2.772846e-001 
2.776987e-001 
2.781416e-001 
2.803414e-001 
2.780029e-001 
2.742426e-001 
2.634459e-001 
2.421704e-001 
2.262603e-001 
2.126262e-001 
2.028426e-001 
2.067296e-001 
2.280250e-001 
2.426710e-001 
2.004801e-001 
8.520986e-002 
-4.159006e-002 
-1.248550e-001 
-1.591881e-001 
-1.529922e-001 
-1.217369e-001 
-9.252500e-002 
-1.228837e-001 
-2.208806e-001 
-3.005067e-001 
-2.862826e-001 
-2.105214e-001 
-1.370773e-001 
-1.007774e-001 
-1.019005e-001 
-1.312752e-001 
-1.709164e-001 
-1.678466e-001 
-9.181756e-002 
2.001709e-002 
1.084230e-001 
1.511227e-001 
1.586416e-001 
1.557041e-001 
1.522903e-001 
1.514117e-001 
1.530572e-001 
1.492576e-001 
1.459342e-001 
1.476767e-001 
1.496869e-001 
1.530746e-001 
1.593369e-001 
1.684627e-001 
1.802235e-001 
1.884794e-001 
1.955982e-001 
2.088463e-001 
2.220911e-001 
2.313302e-001 
2.413340e-001 
2.525225e-001 
2.630492e-001 
2.692691e-001 
2.733409e-001 
2.795512e-001 
2.848888e-001 
2.852856e-001 
2.822067e-001 
2.800349e-001 
2.759430e-001 
2.669833e-001 
2.563681e-001 
2.483817e-001 
2.393487e-001 
2.296458e-001 
2.208337e-001 
2.151388e-001 
2.108868e-001 
2.040817e-001 
1.959599e-001 
1.914049e-001 
1.916241e-001 
1.960175e-001 
2.056487e-001 
2.212683e-001 
2.361926e-001 
2.419882e-001 
2.411842e-001 
2.376447e-001 
2.368804e-001 
2.362062e-001 
2.316817e-001 
2.252683e-001 
2.168005e-001 
1.961759e-001 
1.703726e-001 
1.485371e-001 
1.318027e-001 
1.257286e-001 
1.359226e-001 
1.480031e-001 
1.220560e-001 
1.991576e-002 
-1.187175e-001 
-2.221437e-001 
-2.718923e-001 
-2.794409e-001 
-2.581668e-001 
-2.281986e-001 
-2.381239e-001 
-3.189420e-001 
-4.177399e-001 
-4.325147e-001 
-3.678498e-001 
-2.898669e-001 
-2.440614e-001 
-2.348306e-001 
-2.535986e-001 
-2.882485e-001 
-3.015514e-001 
-2.466318e-001 
-1.348783e-001 
-3.548184e-002 
1.868470e-002 
3.417761e-002 
3.439136e-002 
3.060993e-002 
2.718565e-002 
2.429392e-002 
2.308447e-002 
2.046012e-002 
1.731073e-002 
1.878149e-002 
2.375980e-002 
2.650464e-002 
3.005461e-002 
3.932130e-002 
4.863471e-002 
5.658785e-002 
6.508546e-002 
7.633928e-002 
8.722651e-002 
9.683677e-002 
1.058646e-001 
1.179622e-001 
1.305667e-001 
1.354570e-001 
1.402020e-001 
1.473607e-001 
1.513419e-001 
1.506899e-001 
1.501081e-001 
1.497276e-001 
1.467537e-001 
1.380995e-001 
1.272951e-001 
1.218814e-001 
1.172534e-001 
1.091743e-001 
1.011992e-001 
9.755957e-002 
9.338638e-002 
8.503516e-002 
7.725388e-002 
7.284137e-002 
6.987337e-002 
6.505458e-002 
6.411006e-002 
7.415320e-002 
9.016497e-002 
1.044212e-001 
1.141645e-001 
1.211119e-001 
1.217523e-001 
1.176332e-001 
1.159534e-001 
1.197656e-001 
1.222773e-001 
1.175036e-001 
1.069084e-001 
9.136285e-002 
7.475801e-002 
5.887729e-002 
5.675108e-002 
7.601356e-002 
1.014865e-001 
1.064567e-001 
4.677283e-002 
-7.126004e-002 
-1.854263e-001 
-2.527552e-001 
-2.683710e-001 
-2.475733e-001 
-2.179115e-001 
-2.088020e-001 
-2.556374e-001 
-3.559193e-001 
-4.126627e-001 
-3.802817e-001 
-3.042229e-001 
-2.454689e-001 
-2.303785e-001 
-2.490453e-001 
-2.842574e-001 
-3.155077e-001 
-2.995609e-001 
-2.154929e-001 
-1.133640e-001 
-4.247359e-002 
-1.698900e-002 
-1.708241e-002 
-2.102563e-002 
-2.354434e-002 
-2.569016e-002 
-2.992440e-002 
-3.516371e-002 
-3.804854e-002 
-3.965490e-002 
-4.092316e-002 
-4.044413e-002 
-3.596331e-002 
-2.831257e-002 
-2.115145e-002 
-1.363921e-002 
-3.361640e-003 
7.893672e-003 
1.688622e-002 
2.624768e-002 
3.981050e-002 
5.485355e-002 
6.510935e-002 
7.265702e-002 
8.317114e-002 
9.276018e-002 
9.804840e-002 
1.014321e-001 
1.063628e-001 
1.112777e-001 
1.097592e-001 
1.018995e-001 
9.652495e-002 
9.252262e-002 
8.365043e-002 
7.571657e-002 
7.181150e-002 
6.928397e-002 
6.463780e-002 
5.675431e-002 
5.086176e-002 
4.751498e-002 
4.077436e-002 
3.445348e-002 
3.373478e-002 
3.247055e-002 
2.781174e-002 
2.666220e-002 
3.713747e-002 
5.409283e-002 
6.923593e-002 
8.063180e-002 
9.127303e-002 
9.479382e-002 
8.874898e-002 
8.621117e-002 
9.281592e-002 
9.909479e-002 
9.516779e-002 
8.385145e-002 
6.949883e-002 
5.320211e-002 
3.310936e-002 
2.436496e-002 
3.706528e-002 
6.461123e-002 
8.013436e-002 
4.122456e-002 
-6.560491e-002 
-1.866714e-001 
-2.657884e-001 
-2.908858e-001 
-2.765417e-001 
-2.447695e-001 
-2.192471e-001 
-2.480805e-001 
-3.403092e-001 
-4.202798e-001 
-4.094233e-001 
-3.330614e-001 
-2.616738e-001 
-2.342353e-001 
-2.415869e-001 
-2.707714e-001 
-3.064416e-001 
-3.046368e-001 
-2.365875e-001 
-1.308905e-001 
-4.600199e-002 
-9.311627e-003 
-7.638136e-003 
-1.079755e-002 
-9.161618e-003 
-9.034314e-003 
-1.386814e-002 
-2.043551e-002 
-2.307169e-002 
-2.263753e-002 
-2.475955e-002 
-2.633211e-002 
-2.128514e-002 
-1.407288e-002 
-1.088042e-002 
-6.552402e-003 
3.417916e-003 
1.476751e-002 
2.245407e-002 
2.879347e-002 
3.976502e-002 
5.175113e-002 
5.905058e-002 
6.513647e-002 
7.470226e-002 
8.501384e-002 
8.989789e-002 
9.282397e-002 
9.856643e-002 
1.016381e-001 
9.876710e-002 
9.462529e-002 
9.216702e-002 
9.022549e-002 
8.440050e-002 
7.737012e-002 
7.560880e-002 
7.389889e-002 
6.845628e-002 
6.566272e-002 
6.584054e-002 
6.564361e-002 
6.218601e-002 
5.611369e-002 
5.352489e-002 
5.217138e-002 
4.795152e-002 
4.700054e-002 
5.694220e-002 
7.197729e-002 
8.620872e-002 
9.961489e-002 
1.104335e-001 
1.158075e-001 
1.141404e-001 
1.129819e-001 
1.161004e-001 
1.194636e-001 
1.146743e-001 
1.052513e-001 
9.385374e-002 
7.678946e-002 
5.753888e-002 
5.060051e-002 
6.671360e-002 
9.570242e-002 
1.073064e-001 
4.692209e-002 
-7.904519e-002 
-2.014200e-001 
-2.728917e-001 
-2.904244e-001 
-2.711227e-001 
-2.373541e-001 
-2.181454e-001 
-2.645010e-001 
-3.750719e-001 
-4.374737e-001 
-3.949882e-001 
-3.062781e-001 
-2.413330e-001 
-2.229490e-001 
-2.361167e-001 
-2.682527e-001 
-3.021868e-001 
-2.852526e-001 
-1.920790e-001 
-7.648983e-002 
5.481763e-004 
2.566563e-002 
2.336334e-002 
1.980413e-002 
1.859628e-002 
1.551577e-002 
9.284076e-003 
4.893217e-003 
3.321619e-003 
7.316440e-004 
-3.154707e-003 
-4.488560e-003 
2.038081e-004 
7.643288e-003 
1.353744e-002 
2.069898e-002 
3.169593e-002 
4.157456e-002 
4.951522e-002 
6.044230e-002 
7.593730e-002 
9.304091e-002 
1.067999e-001 
1.174417e-001 
1.305132e-001 
1.439351e-001 
1.530873e-001 
1.619037e-001 
1.728339e-001 
1.804506e-001 
1.833371e-001 
1.820622e-001 
1.804021e-001 
1.813112e-001 
1.797503e-001 
1.763103e-001 
1.765977e-001 
1.773481e-001 
1.761773e-001 
1.755265e-001 
1.743486e-001 
1.745341e-001 
1.746607e-001 
1.732926e-001 
1.801637e-001 
1.955793e-001 
2.111802e-001 
2.290143e-001 
2.448324e-001 
2.537610e-001 
2.570004e-001 
2.554806e-001 
2.572940e-001 
2.628436e-001 
2.603263e-001 
2.521479e-001 
2.421660e-001 
2.247752e-001 
2.039776e-001 
1.833633e-001 
1.719162e-001 
1.765057e-001 
1.955671e-001 
2.014312e-001 
1.404428e-001 
9.198325e-003 
-1.236324e-001 
-2.010753e-001 
-2.228206e-001 
-2.119196e-001 
-1.827265e-001 
-1.585998e-001 
-2.016247e-001 
-3.137591e-001 
-3.863565e-001 
-3.504644e-001 
-2.573223e-001 
-1.880791e-001 
-1.666242e-001 
-1.742695e-001 
-2.024102e-001 
-2.355146e-001 
-2.211497e-001 
-1.285170e-001 
-6.899024e-003 
7.538415e-002 
1.019197e-001 
1.013490e-001 
9.981193e-002 
1.016600e-001 
1.012924e-001 
9.876245e-002 
9.888041e-002 
9.858790e-002 
9.755342e-002 
9.677557e-002 
9.982397e-002 
1.065240e-001 
1.122632e-001 
1.175128e-001 
1.264011e-001 
1.354490e-001 
1.408209e-001 
1.473946e-001 
1.562532e-001 
1.673972e-001 
1.763777e-001 
1.828605e-001 
1.894931e-001 
1.949156e-001 
1.956875e-001 
1.957718e-001 
1.996435e-001 
2.017581e-001 
1.991043e-001 
1.934947e-001 
1.874992e-001 
1.790322e-001 
1.693078e-001 
1.607054e-001 
1.555282e-001 
1.517000e-001 
1.436867e-001 
1.360217e-001 
1.322776e-001 
1.263650e-001 
1.185021e-001 
1.130663e-001 
1.097106e-001 
1.118365e-001 
1.197855e-001 
1.318461e-001 
1.513421e-001 
1.665560e-001 
1.711172e-001 
1.731818e-001 
1.719895e-001 
1.714873e-001 
1.725105e-001 
1.696600e-001 
1.642888e-001 
1.543758e-001 
1.324767e-001 
1.099583e-001 
9.272108e-002 
7.824590e-002 
7.344899e-002 
8.451556e-002 
9.945468e-002 
7.743491e-002 
-2.615835e-002 
-1.644554e-001 
-2.591959e-001 
-2.985693e-001 
-2.996093e-001 
-2.741363e-001 
-2.394227e-001 
-2.412793e-001 
-3.193450e-001 
-4.220841e-001 
-4.292787e-001 
-3.515708e-001 
-2.718326e-001 
-2.294699e-001 
-2.210110e-001 
-2.387005e-001 
-2.722681e-001 
-2.871922e-001 
-2.315431e-001 
-1.146739e-001 
-1.702780e-002 
3.086801e-002 
4.257073e-002 
4.164057e-002 
3.658638e-002 
3.144614e-002 
2.966497e-002 
2.975366e-002 
2.842983e-002 
2.630942e-002 
2.837618e-002 
3.258781e-002 
3.539216e-002 
3.885041e-002 
4.772409e-002 
5.891968e-002 
6.765620e-002 
7.531762e-002 
8.452188e-002 
9.557997e-002 
1.049230e-001 
1.144722e-001 
1.257373e-001 
1.352321e-001 
1.399822e-001 
1.442293e-001 
1.495073e-001 
1.529673e-001 
1.533490e-001 
1.502841e-001 
1.471966e-001 
1.416003e-001 
1.319797e-001 
1.230454e-001 
1.175326e-001 
1.113484e-001 
1.031156e-001 
9.450288e-002 
8.809241e-002 
8.339399e-002 
7.731019e-002 
7.119935e-002 
6.694909e-002 
6.485175e-002 
6.924709e-002 
7.978514e-002 
9.524767e-002 
1.158861e-001 
1.294073e-001 
1.370839e-001 
1.415612e-001 
1.409117e-001 
1.431130e-001 
1.482197e-001 
1.452098e-001 
1.397063e-001 
1.280639e-001 
1.068863e-001 
9.061891e-002 
7.367963e-002 
5.725059e-002 
5.314009e-002 
6.515060e-002 
7.603872e-002 
5.257204e-002 
-4.405042e-002 
-1.691586e-001 
-2.609091e-001 
-3.092378e-001 
-3.161998e-001 
-2.911395e-001 
-2.582647e-001 
-2.664778e-001 
-3.421963e-001 
-4.356875e-001 
-4.480728e-001 
-3.894557e-001 
-3.200014e-001 
-2.766117e-001 
-2.682314e-001 
-2.901920e-001 
-3.270241e-001 
-3.406195e-001 
-2.901885e-001 
-1.881977e-001 
-9.742800e-002 
-4.427492e-002 
-2.900008e-002 
-3.006635e-002 
-3.189537e-002 
-3.140263e-002 
-3.073190e-002 
-3.239340e-002 
-3.527443e-002 
-3.445526e-002 
-3.150394e-002 
-3.067529e-002 
-2.780820e-002 
-2.045779e-002 
-1.077994e-002 
-2.874868e-003 
4.426489e-003 
1.486461e-002 
2.730649e-002 
3.691260e-002 
4.542211e-002 
5.802033e-002 
7.145651e-002 
8.052596e-002 
8.729201e-002 
9.534692e-002 
1.034338e-001 
1.077707e-001 
1.091667e-001 
1.109198e-001 
1.129685e-001 
1.084992e-001 
1.004214e-001 
9.423018e-002 
8.742745e-002 
7.964498e-002 
7.149304e-002 
6.553428e-002 
6.163404e-002 
5.615130e-002 
4.746297e-002 
4.262834e-002 
3.818218e-002 
3.003995e-002 
2.329015e-002 
1.938417e-002 
2.200077e-002 
3.077406e-002 
4.269849e-002 
5.899213e-002 
7.311483e-002 
7.764850e-002 
7.770395e-002 
7.734406e-002 
7.807614e-002 
8.019988e-002 
7.845105e-002 
7.394228e-002 
6.423821e-002 
4.387901e-002 
2.414690e-002 
9.798135e-003 
2.673487e-004 
3.374840e-003 
2.566620e-002 
4.011502e-002 
-9.424905e-003 
-1.366452e-001 
-2.691989e-001 
-3.471747e-001 
-3.741851e-001 
-3.679643e-001 
-3.368856e-001 
-3.057626e-001 
-3.396528e-001 
-4.492008e-001 
-5.297970e-001 
-5.015569e-001 
-4.163454e-001 
-3.470691e-001 
-3.181944e-001 
-3.203540e-001 
-3.481646e-001 
-3.867407e-001 
-3.810381e-001 
-2.933402e-001 
-1.722407e-001 
-8.750235e-002 
-5.183411e-002 
-4.525015e-002 
-4.600285e-002 
-4.958710e-002 
-5.277199e-002 
-5.282334e-002 
-5.195703e-002 
-5.341585e-002 
-5.452602e-002 
-5.164003e-002 
-4.643400e-002 
-4.225360e-002 
-3.758308e-002 
-2.690130e-002 
-1.446385e-002 
-3.889284e-003 
6.001884e-003 
1.769796e-002 
3.149356e-002 
4.421220e-002 
5.594855e-002 
6.926132e-002 
8.286783e-002 
9.238846e-002 
1.001530e-001 
1.091962e-001 
1.173252e-001 
1.205582e-001 
1.205091e-001 
1.206007e-001 
1.187752e-001 
1.125119e-001 
1.053227e-001 
1.017299e-001 
9.959994e-002 
9.279700e-002 
8.570638e-002 
8.347665e-002 
8.162236e-002 
7.567330e-002 
6.923888e-002 
6.719153e-002 
6.591962e-002 
6.252558e-002 
6.334881e-002 
7.581541e-002 
9.143424e-002 
1.059121e-001 
1.160732e-001 
1.239413e-001 
1.269750e-001 
1.244138e-001 
1.247341e-001 
1.296861e-001 
1.301878e-001 
1.232145e-001 
1.130708e-001 
9.643026e-002 
8.048168e-002 
6.523887e-002 
6.226749e-002 
8.020852e-002 
1.058175e-001 
1.008228e-001 
2.209298e-002 
-1.084176e-001 
-2.199018e-001 
-2.763295e-001 
-2.863018e-001 
-2.630396e-001 
-2.286770e-001 
-2.211589e-001 
-2.853727e-001 
-3.915131e-001 
-4.290087e-001 
-3.729056e-001 
-2.888103e-001 
-2.312033e-001 
-2.155909e-001 
-2.330169e-001 
-2.684841e-001 
-2.915650e-001 
-2.537242e-001 
-1.495606e-001 
-4.112353e-002 
2.588009e-002 
4.622221e-002 
4.201624e-002 
3.664865e-002 
3.738810e-002 
3.894121e-002 
3.539050e-002 
3.135260e-002 
3.095633e-002 
3.093242e-002 
2.925118e-002 
3.000607e-002 
3.692058e-002 
4.756490e-002 
5.494503e-002 
6.072337e-002 
7.059811e-002 
8.127943e-002 
8.879094e-002 
9.746978e-002 
1.107014e-001 
1.247693e-001 
1.333450e-001 
1.387552e-001 
1.468125e-001 
1.545649e-001 
1.582548e-001 
1.607004e-001 
1.647425e-001 
1.667228e-001 
1.620431e-001 
1.543783e-001 
1.503869e-001 
1.458819e-001 
1.382419e-001 
1.312843e-001 
1.266499e-001 
1.227600e-001 
1.177518e-001 
1.133473e-001 
1.121097e-001 
1.104707e-001 
1.042780e-001 
9.790939e-002 
9.417535e-002 
9.177620e-002 
8.863193e-002 
8.804343e-002 
9.547045e-002 
1.085816e-001 
1.218986e-001 
1.361957e-001 
1.488589e-001 
1.578929e-001 
1.580744e-001 
1.550974e-001 
1.571951e-001 
1.601878e-001 
1.563759e-001 
1.477532e-001 
1.363441e-001 
1.195938e-001 
1.004823e-001 
8.146360e-002 
7.901280e-002 
9.732496e-002 
1.144899e-001 
9.393591e-002 
-1.518703e-003 
-1.452912e-001 
-2.630103e-001 
-3.186778e-001 
-3.231200e-001 
-2.957549e-001 
-2.653032e-001 
-2.728937e-001 
-3.479953e-001 
-4.555851e-001 
-4.870310e-001 
-4.187995e-001 
-3.235848e-001 
-2.682205e-001 
-2.601636e-001 
-2.817982e-001 
-3.149245e-001 
-3.279711e-001 
-2.773688e-001 
-1.596865e-001 
-4.161317e-002 
2.370373e-002 
3.614162e-002 
3.239503e-002 
3.242567e-002 
3.466953e-002 
3.485319e-002 
3.539762e-002 
3.915440e-002 
4.199873e-002 
4.091941e-002 
4.258015e-002 
5.046560e-002 
6.005656e-002 
6.722830e-002 
7.447440e-002 
8.614892e-002 
9.692276e-002 
1.025084e-001 
1.085258e-001 
1.194447e-001 
1.303177e-001 
1.365732e-001 
1.397259e-001 
1.444513e-001 
1.494830e-001 
1.489931e-001 
1.470156e-001 
1.484795e-001 
1.488596e-001 
1.440533e-001 
1.368280e-001 
1.295852e-001 
1.236699e-001 
1.160436e-001 
1.066996e-001 
1.021874e-001 
9.864895e-002 
9.061626e-002 
8.313634e-002 
7.841542e-002 
7.445886e-002 
6.921075e-002 
6.125562e-002 
5.544730e-002 
5.258463e-002 
4.469557e-002 
3.588206e-002 
3.090315e-002 
2.744579e-002 
2.239216e-002 
1.452788e-002 
9.544314e-003 
1.306876e-002 
2.367634e-002 
3.590050e-002 
5.240618e-002 
6.797408e-002 
7.743341e-002 
7.712614e-002 
7.296445e-002 
7.574746e-002 
8.244922e-002 
8.465762e-002 
8.065608e-002 
7.385659e-002 
6.093110e-002 
4.377417e-002 
2.801007e-002 
2.856518e-002 
5.001577e-002 
7.413008e-002 
7.200192e-002 
4.482511e-003 
-1.070600e-001 
-1.984362e-001 
-2.370787e-001 
-2.344000e-001 
-2.082835e-001 
-1.741613e-001 
-1.620563e-001 
-2.096544e-001 
-2.958761e-001 
-3.180617e-001 
-2.539056e-001 
-1.709018e-001 
-1.256527e-001 
-1.166551e-001 
-1.259201e-001 
-1.505676e-001 
-1.707013e-001 
-1.393500e-001 
-4.752055e-002 
4.428363e-002 
8.986082e-002 
9.342568e-002 
8.680972e-002 
8.234485e-002 
7.415617e-002 
6.446589e-002 
5.694934e-002 
5.051806e-002 
4.248043e-002 
3.386923e-002 
2.923824e-002 
2.912746e-002 
3.036566e-002 
3.161792e-002 
3.645455e-002 
4.143207e-002 
4.408167e-002 
4.832989e-002 
5.628784e-002 
6.435064e-002 
7.101103e-002 
7.754476e-002 
8.301180e-002 
8.683654e-002 
8.698799e-002 
8.837629e-002 
9.195456e-002 
9.207454e-002 
8.754813e-002 
8.242780e-002 
7.669815e-002 
6.907725e-002 
5.957596e-002 
5.071967e-002 
4.578697e-002 
4.007375e-002 
3.264026e-002 
2.660345e-002 
2.282095e-002 
1.975034e-002 
1.507802e-002 
9.427170e-003 
7.192204e-003 
4.645819e-003 
-1.177410e-003 
-6.493418e-003 
-9.552023e-003 
-1.254546e-002 
-1.795405e-002 
-2.402857e-002 
-2.699082e-002 
-2.888619e-002 
-3.498316e-002 
-4.020445e-002 
-3.843445e-002 
-2.811640e-002 
-1.603956e-002 
-2.249532e-003 
1.488501e-002 
2.662475e-002 
2.959147e-002 
2.572142e-002 
2.641177e-002 
3.323592e-002 
3.683502e-002 
3.235399e-002 
2.702175e-002 
1.646489e-002 
-2.450748e-003 
-2.126154e-002 
-3.070306e-002 
-1.707623e-002 
1.222232e-002 
2.596809e-002 
-2.142339e-002 
-1.375927e-001 
-2.657061e-001 
-3.421210e-001 
-3.616464e-001 
-3.488393e-001 
-3.181464e-001 
-2.972167e-001 
-3.357379e-001 
-4.385592e-001 
-5.161569e-001 
-4.906535e-001 
-4.014861e-001 
-3.338361e-001 
-3.155570e-001 
-3.269340e-001 
-3.569330e-001 
-3.920181e-001 
-3.865731e-001 
-3.076505e-001 
-1.934627e-001 
-1.133729e-001 
-8.892630e-002 
-9.103209e-002 
-9.200895e-002 
-9.067499e-002 
-9.330581e-002 
-9.703549e-002 
-9.937714e-002 
-1.015090e-001 
-1.038381e-001 
-1.046672e-001 
-9.948879e-002 
-9.172661e-002 
-8.655177e-002 
-8.011751e-002 
-6.873887e-002 
-5.919118e-002 
-5.114500e-002 
-4.160838e-002 
-2.934857e-002 
-1.702966e-002 
-9.411240e-003 
-4.544134e-003 
2.700432e-003 
9.248925e-003 
9.934151e-003 
1.090802e-002 
1.414415e-002 
1.542505e-002 
1.039551e-002 
1.443783e-003 
-7.175406e-003 
-1.524038e-002 
-2.604876e-002 
-4.004630e-002 
-4.977405e-002 
-5.551321e-002 
-6.394686e-002 
-7.345366e-002 
-7.895941e-002 
-8.379434e-002 
-9.022874e-002 
-9.749530e-002 
-1.038383e-001 
-1.061724e-001 
-1.105809e-001 
-1.179109e-001 
-1.209336e-001 
-1.236891e-001 
-1.303897e-001 
-1.347107e-001 
-1.349906e-001 
-1.350968e-001 
-1.377900e-001 
-1.395955e-001 
-1.288325e-001 
-1.117442e-001 
-9.913951e-002 
-8.350716e-002 
-6.851586e-002 
-6.044819e-002 
-6.233797e-002 
-6.469561e-002 
-5.718480e-002 
-4.803284e-002 
-5.136265e-002 
-5.838683e-002 
-6.419046e-002 
-7.739599e-002 
-9.394846e-002 
-1.072997e-001 
-9.890910e-002 
-6.841167e-002 
-4.334282e-002 
-5.870357e-002 
-1.464725e-001 
-2.749169e-001 
-3.722699e-001 
-4.142682e-001 
-4.110348e-001 
-3.775141e-001 
-3.456765e-001 
-3.572320e-001 
-4.358621e-001 
-5.368032e-001 
-5.540833e-001 
-4.860267e-001 
-4.074136e-001 
-3.659179e-001 
-3.666411e-001 
-3.960349e-001 
-4.353876e-001 
-4.507356e-001 
-4.022819e-001 
-2.963446e-001 
-2.001004e-001 
-1.495026e-001 
-1.415810e-001 
-1.479683e-001 
-1.494784e-001 
-1.495121e-001 
-1.529027e-001 
-1.579387e-001 
-1.601421e-001 
-1.597481e-001 
-1.597417e-001 
-1.604122e-001 
-1.563185e-001 
-1.483540e-001 
-1.410463e-001 
-1.337190e-001 
-1.236975e-001 
-1.139858e-001 
-1.059144e-001 
-9.717686e-002 
-8.591492e-002 
-7.465592e-002 
-6.768044e-002 
-6.574414e-002 
-6.888414e-002 
-7.481873e-002 
-8.267166e-002 
-8.972175e-002 
-9.724391e-002 
-1.088409e-001 
-1.259175e-001 
-1.452729e-001 
-1.672620e-001 
-1.903804e-001 
-2.086122e-001 
-2.231239e-001 
-2.358112e-001 
-2.497152e-001 
-2.647076e-001 
-2.772826e-001 
-2.855096e-001 
-2.918446e-001 
-2.948204e-001 
-2.931893e-001 
-2.895358e-001 
-2.864426e-001 
-2.863456e-001 
-2.854113e-001 
-2.805911e-001 
-2.737696e-001 
-2.628086e-001 
-2.446871e-001 
-2.223600e-001 
-1.995702e-001 
-1.846925e-001 
-1.753290e-001 
-1.669919e-001 
-1.587944e-001 
-1.499885e-001 
-1.389032e-001 
-1.295252e-001 
-1.248536e-001 
-1.273749e-001 
-1.361679e-001 
-1.408132e-001 
-1.408273e-001 
-1.273159e-001 
-9.417461e-002 
-6.047890e-002 
-7.305989e-002 
-1.624593e-001 
-2.836038e-001 
-3.664186e-001 
-3.966000e-001 
-3.892730e-001 
-3.531718e-001 
-3.137660e-001 
-3.214667e-001 
-4.025348e-001 
-4.917668e-001 
-4.894781e-001 
-4.121119e-001 
-3.342286e-001 
-2.893245e-001 
-2.789418e-001 
-2.985255e-001 
-3.336402e-001 
-3.416331e-001 
-2.774861e-001 
-1.620088e-001 
-6.612629e-002 
-1.657012e-002 
-5.143030e-004 
1.511710e-003 
5.144257e-004 
-6.028596e-004 
-1.146878e-003 
-5.476272e-004 
-1.770625e-003 
-3.689253e-003 
-2.488562e-003 
1.818743e-003 
5.801670e-003 
1.070184e-002 
1.979955e-002 
3.166674e-002 
4.333155e-002 
5.349215e-002 
6.533680e-002 
7.886030e-002 
9.172006e-002 
1.037361e-001 
1.176963e-001 
1.327299e-001 
1.435582e-001 
1.514315e-001 
1.617119e-001 
1.721365e-001 
1.784386e-001 
1.831578e-001 
1.878572e-001 
1.901938e-001 
1.870573e-001 
1.802411e-001 
1.771703e-001 
1.766962e-001 
1.718476e-001 
1.673371e-001 
1.665077e-001 
1.653166e-001 
1.611341e-001 
1.565000e-001 
1.541123e-001 
1.535884e-001 
1.499506e-001 
1.442223e-001 
1.418198e-001 
1.392724e-001 
1.350585e-001 
1.317527e-001 
1.329909e-001 
1.428643e-001 
1.583455e-001 
1.740785e-001 
1.922394e-001 
2.062815e-001 
2.119477e-001 
2.116597e-001 
2.122616e-001 
2.177483e-001 
2.231474e-001 
2.209286e-001 
2.152782e-001 
2.058253e-001 
1.879125e-001 
1.696034e-001 
1.563032e-001 
1.595647e-001 
1.804590e-001 
1.973707e-001 
1.746980e-001 
7.590368e-002 
-7.000193e-002 
-1.879252e-001 
-2.426784e-001 
-2.457368e-001 
-2.172619e-001 
-1.869373e-001 
-1.961541e-001 
-2.746661e-001 
-3.813550e-001 
-4.083173e-001 
-3.390510e-001 
-2.445167e-001 
-1.886674e-001 
-1.801604e-001 
-2.007960e-001 
-2.327431e-001 
-2.441758e-001 
-1.888260e-001 
-6.680250e-002 
5.386418e-002 
1.211091e-001 
1.370954e-001 
1.378522e-001 
1.408933e-001 
1.429884e-001 
1.439781e-001 
1.459908e-001 
1.510884e-001 
1.548735e-001 
1.557230e-001 
1.620479e-001 
1.710322e-001 
1.784265e-001 
1.860184e-001 
1.956039e-001 
2.044904e-001 
2.111355e-001 
2.150407e-001 
2.211989e-001 
2.287670e-001 
2.316636e-001 
2.342286e-001 
2.379914e-001 
2.381980e-001 
2.331786e-001 
2.275433e-001 
2.251227e-001 
2.226573e-001 
2.155830e-001 
2.065564e-001 
2.002594e-001 
1.911100e-001 
1.769355e-001 
1.655253e-001 
1.600462e-001 
1.562285e-001 
1.495508e-001 
1.431452e-001 
1.397824e-001 
1.364090e-001 
1.289124e-001 
1.228966e-001 
1.213922e-001 
1.199650e-001 
1.148687e-001 
1.086026e-001 
1.060354e-001 
1.031158e-001 
9.703688e-002 
9.151778e-002 
9.043197e-002 
9.646988e-002 
1.077766e-001 
1.207708e-001 
1.388803e-001 
1.539726e-001 
1.594488e-001 
1.582015e-001 
1.570864e-001 
1.594154e-001 
1.627393e-001 
1.608165e-001 
1.559615e-001 
1.476935e-001 
1.286205e-001 
1.070823e-001 
9.045899e-002 
8.624111e-002 
9.599754e-002 
1.166581e-001 
1.191958e-001 
5.134795e-002 
-7.871687e-002 
-2.022641e-001 
-2.672952e-001 
-2.783145e-001 
-2.611361e-001 
-2.302204e-001 
-2.112493e-001 
-2.609162e-001 
-3.673053e-001 
-4.200478e-001 
-3.743256e-001 
-2.832344e-001 
-2.209400e-001 
-2.043507e-001 
-2.139678e-001 
-2.423474e-001 
-2.707913e-001 
-2.454904e-001 
-1.475045e-001 
-3.392929e-002 
3.776684e-002 
5.840394e-002 
5.864279e-002 
5.617382e-002 
5.323400e-002 
4.920294e-002 
4.432910e-002 
4.178506e-002 
3.797803e-002 
3.324549e-002 
3.322779e-002 
3.540939e-002 
3.777349e-002 
4.265305e-002 
5.024627e-002 
6.024002e-002 
6.957703e-002 
7.701448e-002 
8.638342e-002 
9.660467e-002 
1.060812e-001 
1.161419e-001 
1.266360e-001 
1.360851e-001 
1.419614e-001 
1.448253e-001 
1.493622e-001 
1.531704e-001 
1.538768e-001 
1.531944e-001 
1.510916e-001 
1.463485e-001 
1.370706e-001 
1.269570e-001 
1.200638e-001 
1.150027e-001 
1.079084e-001 
1.012148e-001 
9.674888e-002 
9.284748e-002 
8.646235e-002 
7.914904e-002 
7.624027e-002 
7.393807e-002 
6.865946e-002 
6.165561e-002 
5.828469e-002 
5.557541e-002 
4.959968e-002 
4.274739e-002 
4.131460e-002 
4.800100e-002 
5.885097e-002 
7.172559e-002 
8.879908e-002 
1.031162e-001 
1.075898e-001 
1.041065e-001 
1.029887e-001 
1.076244e-001 
1.115573e-001 
1.105218e-001 
1.059878e-001 
9.625520e-002 
7.672166e-002 
5.605755e-002 
4.047013e-002 
4.261192e-002 
6.082898e-002 
8.321063e-002 
8.047497e-002 
2.377434e-003 
-1.319651e-001 
-2.424503e-001 
-2.924842e-001 
-2.957927e-001 
-2.722686e-001 
-2.430636e-001 
-2.357949e-001 
-2.969466e-001 
-4.069995e-001 
-4.455729e-001 
-3.824096e-001 
-2.944880e-001 
-2.450245e-001 
-2.376101e-001 
-2.533497e-001 
-2.844161e-001 
-3.108468e-001 
-2.783843e-001 
-1.729072e-001 
-6.500661e-002 
-6.763875e-003 
5.620069e-003 
5.579799e-003 
5.822822e-003 
2.672412e-003 
-5.872347e-004 
2.632825e-004 
2.051891e-003 
6.496118e-004 
-6.009180e-004 
3.527872e-003 
1.095283e-002 
1.671971e-002 
2.450693e-002 
3.723697e-002 
5.045248e-002 
5.911593e-002 
6.780249e-002 
8.069031e-002 
9.498072e-002 
1.070872e-001 
1.187902e-001 
1.312830e-001 
1.423503e-001 
1.493967e-001 
1.556098e-001 
1.655148e-001 
1.742120e-001 
1.787872e-001 
1.812654e-001 
1.833046e-001 
1.834779e-001 
1.814661e-001 
1.784875e-001 
1.795936e-001 
1.822172e-001 
1.818673e-001 
1.812245e-001 
1.823702e-001 
1.835007e-001 
1.813690e-001 
1.761916e-001 
1.733737e-001 
1.723674e-001 
1.680664e-001 
1.628114e-001 
1.590677e-001 
1.566719e-001 
1.573360e-001 
1.621213e-001 
1.714837e-001 
1.852548e-001 
1.914582e-001 
1.915621e-001 
1.893861e-001 
1.864820e-001 
1.842804e-001 
1.830430e-001 
1.809914e-001 
1.767648e-001 
1.665703e-001 
1.475248e-001 
1.319130e-001 
1.226373e-001 
1.285628e-001 
1.546706e-001 
1.816255e-001 
1.579619e-001 
5.149149e-002 
-8.264407e-002 
-1.724464e-001 
-2.053180e-001 
-2.022396e-001 
-1.733361e-001 
-1.412320e-001 
-1.596624e-001 
-2.581601e-001 
-3.584413e-001 
-3.533312e-001 
-2.716484e-001 
-1.967247e-001 
-1.619713e-001 
-1.597634e-001 
-1.853427e-001 
-2.269657e-001 
-2.377820e-001 
-1.694459e-001 
-5.050130e-002 
4.234064e-002 
8.417013e-002 
9.383437e-002 
9.315492e-002 
8.965772e-002 
8.672365e-002 
8.548604e-002 
8.399298e-002 
8.093092e-002 
7.834791e-002 
7.813771e-002 
8.132867e-002 
8.331584e-002 
8.730515e-002 
9.574054e-002 
1.058497e-001 
1.147280e-001 
1.230599e-001 
1.329403e-001 
1.445214e-001 
1.561903e-001 
1.678337e-001 
1.818946e-001 
1.948892e-001 
2.043907e-001 
2.102932e-001 
2.171484e-001 
2.245160e-001 
2.284272e-001 
2.313475e-001 
2.341489e-001 
2.332389e-001 
2.271064e-001 
2.190604e-001 
2.133637e-001 
2.098825e-001 
2.042731e-001 
1.989620e-001 
1.967157e-001 
1.922346e-001 
1.843939e-001 
1.764416e-001 
1.716246e-001 
1.679106e-001 
1.619985e-001 
1.560876e-001 
1.518793e-001 
1.470067e-001 
1.396564e-001 
1.334523e-001 
1.328147e-001 
1.407006e-001 
1.527960e-001 
1.672838e-001 
1.847781e-001 
1.966203e-001 
2.011715e-001 
1.991025e-001 
1.986556e-001 
2.040144e-001 
2.067413e-001 
2.031227e-001 
1.981954e-001 
1.882187e-001 
1.683895e-001 
1.485238e-001 
1.344243e-001 
1.385706e-001 
1.603461e-001 
1.766760e-001 
1.510083e-001 
4.926869e-002 
-9.635012e-002 
-2.120211e-001 
-2.610195e-001 
-2.603938e-001 
-2.322467e-001 
-2.025608e-001 
-2.163734e-001 
-2.995084e-001 
-4.018760e-001 
-4.215516e-001 
-3.476898e-001 
-2.524962e-001 
-2.022560e-001 
-1.982741e-001 
-2.201968e-001 
-2.534411e-001 
-2.618697e-001 
-2.010576e-001 
-7.770874e-002 
3.780140e-002 
9.933309e-002 
1.111657e-001 
1.102354e-001 
1.138129e-001 
1.160333e-001 
1.161671e-001 
1.187644e-001 
1.221485e-001 
1.232056e-001 
1.250594e-001 
1.300953e-001 
1.392719e-001 
1.472791e-001 
1.529520e-001 
1.606064e-001 
1.698248e-001 
1.769441e-001 
1.832808e-001 
1.923109e-001 
2.010070e-001 
2.060795e-001 
2.086867e-001 
2.119283e-001 
2.153488e-001 
2.159231e-001 
2.133371e-001 
2.123844e-001 
2.113655e-001 
2.050067e-001 
1.974279e-001 
1.912821e-001 
1.844051e-001 
1.757645e-001 
1.664492e-001 
1.593152e-001 
1.550658e-001 
1.491748e-001 
1.430292e-001 
1.404407e-001 
1.390319e-001 
1.354574e-001 
1.322308e-001 
1.310510e-001 
1.291909e-001 
1.263248e-001 
1.218776e-001 
1.186748e-001 
1.177595e-001 
1.153108e-001 
1.120367e-001 
1.131836e-001 
1.180957e-001 
1.279373e-001 
1.421817e-001 
1.578935e-001 
1.725941e-001 
1.807245e-001 
1.794734e-001 
1.765090e-001 
1.770990e-001 
1.770697e-001 
1.748284e-001 
1.701008e-001 
1.602726e-001 
1.430088e-001 
1.216690e-001 
1.025566e-001 
9.658405e-002 
1.088937e-001 
1.272740e-001 
1.182305e-001 
3.058410e-002 
-1.084587e-001 
-2.209346e-001 
-2.705957e-001 
-2.747662e-001 
-2.559122e-001 
-2.250327e-001 
-2.182712e-001 
-2.866103e-001 
-3.981390e-001 
-4.297737e-001 
-3.622494e-001 
-2.716745e-001 
-2.254644e-001 
-2.198109e-001 
-2.334056e-001 
-2.656052e-001 
-2.901250e-001 
-2.496752e-001 
-1.395993e-001 
-3.205675e-002 
2.285126e-002 
3.102668e-002 
2.838905e-002 
2.532102e-002 
2.077916e-002 
1.825910e-002 
1.829399e-002 
1.801170e-002 
1.408304e-002 
1.242659e-002 
1.702221e-002 
2.129949e-002 
2.331728e-002 
2.910214e-002 
3.913728e-002 
4.775346e-002 
5.251200e-002 
5.824106e-002 
6.844323e-002 
7.715049e-002 
8.122049e-002 
8.579863e-002 
9.318839e-002 
9.838320e-002 
9.944161e-002 
9.955956e-002 
1.011316e-001 
1.020298e-001 
9.911538e-002 
9.454160e-002 
9.051458e-002 
8.477432e-002 
7.567115e-002 
6.553798e-002 
5.819683e-002 
5.276699e-002 
4.673567e-002 
4.118409e-002 
3.864091e-002 
3.536531e-002 
2.933113e-002 
2.216023e-002 
1.770559e-002 
1.480240e-002 
9.067642e-003 
2.467890e-003 
-1.947143e-003 
-6.661198e-003 
-1.486979e-002 
-2.272960e-002 
-2.710453e-002 
-2.791774e-002 
-2.631451e-002 
-1.799122e-002 
-3.949140e-003 
1.012507e-002 
1.842676e-002 
2.182022e-002 
2.191111e-002 
2.111897e-002 
2.104040e-002 
2.278647e-002 
2.478197e-002 
1.962614e-002 
7.402919e-003 
-8.651552e-003 
-2.538176e-002 
-4.064288e-002 
-4.547857e-002 
-3.433467e-002 
-1.238315e-002 
-1.193250e-002 
-8.056102e-002 
-2.025124e-001 
-3.153921e-001 
-3.798766e-001 
-3.969285e-001 
-3.831795e-001 
-3.556267e-001 
-3.459314e-001 
-4.016995e-001 
-5.058484e-001 
-5.572613e-001 
-5.196437e-001 
-4.436712e-001 
-3.891296e-001 
-3.734859e-001 
-3.870679e-001 
-4.206992e-001 
-4.502825e-001 
-4.255940e-001 
-3.344667e-001 
-2.318044e-001 
-1.645984e-001 
-1.396883e-001 
-1.380845e-001 
-1.415173e-001 
-1.431197e-001 
-1.423441e-001 
-1.418765e-001 
-1.445393e-001 
-1.464471e-001 
-1.437634e-001 
-1.400472e-001 
-1.380902e-001 
-1.332473e-001 
-1.241149e-001 
-1.137294e-001 
-1.047123e-001 
-9.612853e-002 
-8.405178e-002 
-7.209277e-002 
-6.305649e-002 
-5.335158e-002 
-4.071864e-002 
-2.913739e-002 
-2.158722e-002 
-1.520307e-002 
-7.842566e-003 
2.058671e-005 
4.831855e-003 
6.996624e-003 
8.360843e-003 
9.990161e-003 
6.615921e-003 
7.741626e-004 
-3.295586e-004 
9.712413e-004 
-3.291661e-005 
-3.153151e-003 
-5.269555e-003 
-4.350938e-003 
-3.015467e-003 
-4.497747e-003 
-2.155757e-003 
1.917267e-003 
9.855854e-004 
-3.060639e-003 
-4.191870e-003 
-3.245624e-003 
-3.227400e-003 
-5.390815e-003 
-4.662215e-003 
1.663241e-003 
1.091557e-002 
2.274878e-002 
3.844052e-002 
5.376931e-002 
6.152161e-002 
6.104443e-002 
6.070230e-002 
6.556308e-002 
6.953721e-002 
7.034862e-002 
6.792755e-002 
6.210223e-002 
4.937706e-002 
3.153496e-002 
1.777828e-002 
1.842116e-002 
3.218382e-002 
6.070988e-002 
7.890179e-002 
3.196025e-002 
-8.475736e-002 
-2.066939e-001 
-2.756653e-001 
-2.886556e-001 
-2.718511e-001 
-2.393861e-001 
-2.115320e-001 
-2.499919e-001 
-3.572779e-001 
-4.295286e-001 
-3.963798e-001 
-3.058801e-001 
-2.375314e-001 
-2.129549e-001 
-2.121696e-001 
-2.345586e-001 
-2.716905e-001 
-2.628391e-001 
-1.726621e-001 
-5.251760e-002 
2.704773e-002 
5.361364e-002 
6.017320e-002 
6.151762e-002 
5.015806e-002 
3.733840e-002 
3.582891e-002 
3.545884e-002 
2.899128e-002 
1.933530e-002 
1.593668e-002 
1.728233e-002 
9.204895e-003 
6.919374e-004 
5.637705e-003 
1.328672e-002 
1.391296e-002 
1.496449e-002 
2.086623e-002 
3.196848e-002 
4.095437e-002 
4.630721e-002 
5.484834e-002 
6.345569e-002 
6.702400e-002 
6.890225e-002 
7.373489e-002 
7.853440e-002 
7.953684e-002 
7.596359e-002 
7.162198e-002 
6.975075e-002 
6.676310e-002 
5.959836e-002 
5.160690e-002 
4.707415e-002 
4.320018e-002 
3.859395e-002 
3.746402e-002 
4.136578e-002 
4.462010e-002 
4.158204e-002 
4.055777e-002 
4.728715e-002 
5.842458e-002 
6.972428e-002 
8.523481e-002 
1.038133e-001 
1.198116e-001 
1.359311e-001 
1.596848e-001 
1.911191e-001 
2.238508e-001 
2.534669e-001 
2.818597e-001 
3.098038e-001 
3.316982e-001 
3.543537e-001 
3.829381e-001 
4.084109e-001 
4.255660e-001 
4.403876e-001 
4.534098e-001 
4.660107e-001 
4.753347e-001 
4.836768e-001 
4.980962e-001 
5.133420e-001 
5.193335e-001 
5.150793e-001 
5.035224e-001 
4.893521e-001 
4.821363e-001 
4.831736e-001 
4.921598e-001 
5.057041e-001 
5.144504e-001 
5.109985e-001 
4.997742e-001 
4.936615e-001 
5.002298e-001 
5.156722e-001 
5.289980e-001 
5.356559e-001 
5.348543e-001 
5.273052e-001 
5.202150e-001 
5.212879e-001 
5.324445e-001 
5.467107e-001 
5.564524e-001 
5.586148e-001 
5.551558e-001 
5.482290e-001 
5.419202e-001 
5.365630e-001 
5.276765e-001 
5.165157e-001 
5.059941e-001 
4.952788e-001 
4.827830e-001 
4.689943e-001 
4.556354e-001 
4.423033e-001 
4.256807e-001 
4.058407e-001 
3.887986e-001 
3.746486e-001 
3.576075e-001 
3.386493e-001 
3.211298e-001 
3.026546e-001 
2.814482e-001 
2.586321e-001 
2.386042e-001 
2.240957e-001 
2.080440e-001 
1.882050e-001 
1.700458e-001 
1.525791e-001 
1.319822e-001 
1.088851e-001 
8.574310e-002 
6.670949e-002 
4.728697e-002 
2.325961e-002 
-1.761126e-003 
-2.370853e-002 
-4.479926e-002 
-6.688709e-002 
-8.803355e-002 
-1.059890e-001 
-1.220319e-001 
-1.387725e-001 
-1.545389e-001 
-1.647653e-001 
-1.691061e-001 
-1.741256e-001 
-1.784268e-001 
-1.740344e-001 
-1.629794e-001 
-1.454852e-001 
-1.200380e-001 
-9.568586e-002 
-7.341142e-002 
-5.685703e-002 
-4.887339e-002 
-4.225087e-002 
-3.525438e-002 
-3.261696e-002 
-2.826146e-002 
-2.944384e-002 
-4.201433e-002 
-5.517972e-002 
-6.881743e-002 
-7.959504e-002 
-7.559328e-002 
-5.703466e-002 
-5.504455e-002 
-1.216616e-001 
-2.465132e-001 
-3.616300e-001 
-4.248714e-001 
-4.436377e-001 
-4.368984e-001 
-4.111159e-001 
-3.941837e-001 
-4.434772e-001 
-5.444207e-001 
-5.889663e-001 
-5.424056e-001 
-4.577691e-001 
-4.016937e-001 
-3.874857e-001 
-3.954937e-001 
-4.218106e-001 
-4.496833e-001 
-4.234846e-001 
-3.282494e-001 
-2.213321e-001 
-1.545915e-001 
-1.366447e-001 
-1.360575e-001 
-1.358195e-001 
-1.382591e-001 
-1.416045e-001 
-1.419749e-001 
-1.422808e-001 
-1.441364e-001 
-1.461462e-001 
-1.440818e-001 
-1.375969e-001 
-1.315585e-001 
-1.248607e-001 
-1.130084e-001 
-9.916407e-002 
-8.893000e-002 
-7.845672e-002 
-6.530404e-002 
-5.149113e-002 
-3.879148e-002 
-2.631024e-002 
-1.248353e-002 
1.399138e-003 
1.088910e-002 
1.768802e-002 
2.734432e-002 
3.527692e-002 
3.865854e-002 
4.204770e-002 
4.528244e-002 
4.514102e-002 
4.111940e-002 
3.513156e-002 
3.171950e-002 
2.844489e-002 
2.203164e-002 
1.539610e-002 
1.225039e-002 
7.764099e-003 
-4.145714e-004 
-9.457586e-003 
-1.725828e-002 
-2.583124e-002 
-3.761779e-002 
-4.908237e-002 
-5.716644e-002 
-6.388629e-002 
-6.849544e-002 
-6.519406e-002 
-5.567487e-002 
-4.399630e-002 
-3.765312e-002 
-3.445937e-002 
-3.158094e-002 
-3.430633e-002 
-3.968642e-002 
-3.966724e-002 
-4.079199e-002 
-4.783192e-002 
-6.116982e-002 
-8.013280e-002 
-9.556605e-002 
-1.123517e-001 
-1.296917e-001 
-1.319481e-001 
-1.107569e-001 
-9.379445e-002 
-1.228021e-001 
-2.254715e-001 
-3.548665e-001 
-4.483583e-001 
-4.925346e-001 
-4.936013e-001 
-4.630047e-001 
-4.277509e-001 
-4.436164e-001 
-5.285244e-001 
-6.203772e-001 
-6.259786e-001 
-5.581878e-001 
-4.819316e-001 
-4.389409e-001 
-4.342375e-001 
-4.607016e-001 
-5.010180e-001 
-5.105533e-001 
-4.520092e-001 
-3.438923e-001 
-2.502356e-001 
-1.986583e-001 
-1.863814e-001 
-1.903718e-001 
-1.947587e-001 
-1.966738e-001 
-1.990330e-001 
-2.042731e-001 
-2.092403e-001 
-2.111697e-001 
-2.099734e-001 
-2.104489e-001 
-2.093515e-001 
-2.025321e-001 
-1.936334e-001 
-1.865739e-001 
-1.786124e-001 
-1.672428e-001 
-1.541149e-001 
-1.421712e-001 
-1.325479e-001 
-1.185960e-001 
-1.034599e-001 
-9.214678e-002 
-8.178131e-002 
-6.774826e-002 
-5.319077e-002 
-4.360801e-002 
-3.838628e-002 
-3.210317e-002 
-2.579752e-002 
-2.503711e-002 
-2.623143e-002 
-2.644660e-002 
-2.605821e-002 
-2.886727e-002 
-3.300563e-002 
-3.301985e-002 
-3.066104e-002 
-3.231891e-002 
-3.420569e-002 
-3.304494e-002 
-3.299891e-002 
-3.469028e-002 
-3.718855e-002 
-3.702844e-002 
-3.244220e-002 
-2.388458e-002 
-1.138600e-002 
6.447087e-003 
2.510124e-002 
3.494102e-002 
3.515644e-002 
3.152838e-002 
3.389334e-002 
4.069624e-002 
4.539640e-002 
4.590238e-002 
4.354040e-002 
3.362644e-002 
1.460504e-002 
-2.790876e-003 
-4.434378e-003 
1.669792e-002 
4.928575e-002 
6.844431e-002 
2.766209e-002 
-8.461906e-002 
-2.082437e-001 
-2.838499e-001 
-3.047301e-001 
-2.886254e-001 
-2.559681e-001 
-2.336480e-001 
-2.699613e-001 
-3.739637e-001 
-4.523666e-001 
-4.298234e-001 
-3.506210e-001 
-2.863771e-001 
-2.629751e-001 
-2.720957e-001 
-3.034843e-001 
-3.439020e-001 
-3.425944e-001 
-2.638625e-001 
-1.519229e-001 
-7.320039e-002 
-4.124357e-002 
-3.615735e-002 
-3.702804e-002 
-3.958424e-002 
-4.479879e-002 
-4.791126e-002 
-4.951140e-002 
-5.467511e-002 
-5.991575e-002 
-5.948999e-002 
-5.706267e-002 
-5.555042e-002 
-5.308623e-002 
-4.588185e-002 
-3.438062e-002 
-2.432922e-002 
-1.602144e-002 
-3.916490e-003 
1.016155e-002 
2.205867e-002 
3.376862e-002 
4.865474e-002 
6.676209e-002 
8.220175e-002 
9.476540e-002 
1.084065e-001 
1.228858e-001 
1.336177e-001 
1.407880e-001 
1.485998e-001 
1.558855e-001 
1.591822e-001 
1.590592e-001 
1.595161e-001 
1.599185e-001 
1.586642e-001 
1.566967e-001 
1.577655e-001 
1.590743e-001 
1.562392e-001 
1.535367e-001 
1.520535e-001 
1.476525e-001 
1.410562e-001 
1.366522e-001 
1.388933e-001 
1.483004e-001 
1.597454e-001 
1.742884e-001 
1.945276e-001 
2.069073e-001 
2.100348e-001 
2.100890e-001 
2.126476e-001 
2.199957e-001 
2.237354e-001 
2.196721e-001 
2.146439e-001 
2.049934e-001 
1.844934e-001 
1.658458e-001 
1.522851e-001 
1.529617e-001 
1.700957e-001 
1.887575e-001 
1.731626e-001 
8.137427e-002 
-5.648567e-002 
-1.605490e-001 
-2.019471e-001 
-2.028149e-001 
-1.779926e-001 
-1.452665e-001 
-1.430016e-001 
-2.162982e-001 
-3.228147e-001 
-3.431882e-001 
-2.662677e-001 
-1.792642e-001 
-1.376446e-001 
-1.338497e-001 
-1.508535e-001 
-1.836863e-001 
-2.054500e-001 
-1.602932e-001 
-4.739481e-002 
5.600785e-002 
1.033587e-001 
1.074180e-001 
1.025426e-001 
1.005843e-001 
9.482089e-002 
8.663706e-002 
8.250023e-002 
7.973950e-002 
7.277133e-002 
6.704637e-002 
6.559124e-002 
6.801650e-002 
6.869248e-002 
6.714433e-002 
6.856023e-002 
7.112994e-002 
6.983424e-002 
6.814213e-002 
7.077159e-002 
7.528746e-002 
7.663651e-002 
7.405233e-002 
7.335090e-002 
7.347821e-002 
7.097775e-002 
6.790905e-002 
6.693768e-002 
6.616848e-002 
6.174327e-002 
5.389780e-002 
4.898631e-002 
4.629450e-002 
4.290921e-002 
4.038464e-002 
4.053224e-002 
4.112060e-002 
4.015131e-002 
4.010427e-002 
4.346794e-002 
4.694935e-002 
4.797226e-002 
4.991624e-002 
5.319085e-002 
5.494424e-002 
5.419032e-002 
5.642690e-002 
6.713330e-002 
8.259693e-002 
9.802395e-002 
1.155353e-001 
1.312758e-001 
1.397906e-001 
1.416394e-001 
1.394427e-001 
1.416479e-001 
1.463918e-001 
1.426285e-001 
1.338820e-001 
1.257584e-001 
1.138942e-001 
9.807684e-002 
8.062885e-002 
6.293882e-002 
5.083320e-002 
4.120068e-002 
4.716256e-002 
5.761094e-002 
2.389735e-002 
-7.911850e-002 
-2.024932e-001 
-2.804981e-001 
-3.002717e-001 
-2.853566e-001 
-2.502792e-001 
-2.086789e-001 
-2.210029e-001 
-3.036403e-001 
-3.851440e-001 
-3.766281e-001 
-2.926109e-001 
-2.144991e-001 
-1.832749e-001 
-1.828570e-001 
-2.032537e-001 
-2.367020e-001 
-2.376193e-001 
-1.726393e-001 
-6.597272e-002 
1.527814e-002 
3.991686e-002 
3.273783e-002 
2.354711e-002 
1.516014e-002 
7.923445e-003 
3.948965e-003 
5.462188e-003 
1.165981e-002 
1.804092e-002 
2.726742e-002 
4.009188e-002 
5.064115e-002 
5.846545e-002 
6.848724e-002 
8.044485e-002 
9.364352e-002 
1.042153e-001 
1.126180e-001 
1.197583e-001 
1.250895e-001 
1.289497e-001 
1.331499e-001 
1.374359e-001 
1.382227e-001 
1.372373e-001 
1.334638e-001 
1.272654e-001 
1.187982e-001 
1.110346e-001 
1.039973e-001 
9.776681e-002 
8.995438e-002 
8.566341e-002 
8.362123e-002 
7.848821e-002 
7.162874e-002 
6.438012e-002 
5.855418e-002 
5.263498e-002 
4.589769e-002 
4.009154e-002 
3.645367e-002 
2.743839e-002 
1.730160e-002 
1.001020e-002 
9.156159e-003 
1.611088e-002 
2.592628e-002 
3.816992e-002 
5.048361e-002 
5.752635e-002 
5.811623e-002 
5.716270e-002 
5.846761e-002 
6.323383e-002 
6.386569e-002 
5.768162e-002 
5.075571e-002 
4.117455e-002 
2.990114e-002 
2.297827e-002 
2.874877e-002 
5.254378e-002 
9.509781e-002 
1.374984e-001 
1.410985e-001 
6.947513e-002 
-4.088701e-002 
-1.176484e-001 
-1.394517e-001 
-1.234746e-001 
-8.819457e-002 
-5.435260e-002 
-6.353310e-002 
-1.464871e-001 
-2.526919e-001 
-2.733641e-001 
-2.128048e-001 
-1.508544e-001 
-1.331879e-001 
-1.562746e-001 
-2.063931e-001 
-2.676656e-001 
-3.065687e-001 
-2.752738e-001 
-1.824504e-001 
-9.995954e-002 
-6.416169e-002 
-6.347001e-002 
-6.991326e-002 
-7.359462e-002 
-7.663742e-002 
-8.126929e-002 
-8.520070e-002 
-8.835594e-002 
-9.326189e-002 
-9.700546e-002 
-9.475744e-002 
-9.045612e-002 
-8.616793e-002 
-8.038936e-002 
-7.303280e-002 
-6.484280e-002 
-5.706791e-002 
-4.981609e-002 
-3.757469e-002 
-2.514911e-002 
-1.660461e-002 
-8.165677e-003 
1.194952e-003 
1.076284e-002 
1.920589e-002 
2.738966e-002 
3.632383e-002 
4.460775e-002 
4.653314e-002 
4.693339e-002 
4.854092e-002 
4.907757e-002 
4.764784e-002 
4.743543e-002 
4.854150e-002 
4.851984e-002 
4.505879e-002 
3.950282e-002 
3.736635e-002 
3.494850e-002 
2.836059e-002 
2.403734e-002 
2.288314e-002 
1.817042e-002 
1.058341e-002 
4.385750e-003 
8.098086e-003 
1.994498e-002 
3.112785e-002 
4.467794e-002 
5.638762e-002 
5.927227e-002 
5.483276e-002 
5.206573e-002 
5.714186e-002 
6.565336e-002 
6.659901e-002 
6.407230e-002 
5.923313e-002 
4.524978e-002 
3.110473e-002 
2.545464e-002 
4.128059e-002 
7.699867e-002 
1.070864e-001 
9.371167e-002 
1.094655e-002 
-1.057019e-001 
-1.921276e-001 
-2.274899e-001 
-2.169005e-001 
-1.765616e-001 
-1.405722e-001 
-1.497505e-001 
-2.245334e-001 
-3.124783e-001 
-3.217189e-001 
-2.610420e-001 
-1.929068e-001 
-1.541454e-001 
-1.561827e-001 
-1.880859e-001 
-2.307840e-001 
-2.489641e-001 
-2.054081e-001 
-1.126207e-001 
-2.856844e-002 
1.692433e-002 
2.592140e-002 
2.178342e-002 
1.855839e-002 
1.188545e-002 
1.342730e-003 
-9.878846e-003 
-1.510756e-002 
-1.317307e-002 
-1.046610e-002 
-7.102053e-003 
-1.342552e-003 
5.154235e-003 
9.935845e-003 
1.654691e-002 
2.828184e-002 
4.513065e-002 
6.136066e-002 
7.517136e-002 
9.157605e-002 
1.117507e-001 
1.319476e-001 
1.481562e-001 
1.671794e-001 
1.885618e-001 
2.073305e-001 
2.231045e-001 
2.409635e-001 
2.601349e-001 
2.751449e-001 
2.844385e-001 
2.910540e-001 
2.971660e-001 
2.977263e-001 
2.975307e-001 
2.987101e-001 
2.992826e-001 
2.962889e-001 
2.911615e-001 
2.863779e-001 
2.798199e-001 
2.691674e-001 
2.610709e-001 
2.586387e-001 
2.550410e-001 
2.559960e-001 
2.646261e-001 
2.747866e-001 
2.834274e-001 
2.859509e-001 
2.875322e-001 
2.913340e-001 
2.881631e-001 
2.816729e-001 
2.808134e-001 
2.803573e-001 
2.765223e-001 
2.678462e-001 
2.528241e-001 
2.367846e-001 
2.145115e-001 
1.955369e-001 
1.991426e-001 
2.203180e-001 
2.200555e-001 
1.451688e-001 
7.477268e-003 
-1.260417e-001 
-2.067244e-001 
-2.325393e-001 
-2.180569e-001 
-1.835857e-001 
-1.700065e-001 
-2.308595e-001 
-3.469464e-001 
-4.096844e-001 
-3.757848e-001 
-2.924947e-001 
-2.311643e-001 
-2.131271e-001 
-2.257978e-001 
-2.602243e-001 
-2.905102e-001 
-2.624044e-001 
-1.633179e-001 
-5.256197e-002 
1.669016e-002 
3.438277e-002 
2.771869e-002 
1.649541e-002 
8.951884e-003 
1.973558e-003 
-1.084818e-002 
-2.810376e-002 
-4.597372e-002 
-5.946096e-002 
-6.708206e-002 
-6.933847e-002 
-6.178848e-002 
-4.935705e-002 
-4.596931e-002 
-4.237468e-002 
-2.612540e-002 
-2.089371e-004 
3.055420e-002 
6.007804e-002 
8.806014e-002 
1.154843e-001 
1.359881e-001 
1.534777e-001 
1.813739e-001 
2.160374e-001 
2.470957e-001 
2.683928e-001 
2.772791e-001 
2.793122e-001 
2.796417e-001 
2.764990e-001 
2.705683e-001 
2.664779e-001 
2.609319e-001 
2.484915e-001 
2.290415e-001 
2.081134e-001 
1.928063e-001 
1.839503e-001 
1.747512e-001 
1.642120e-001 
1.562236e-001 
1.436672e-001 
1.246216e-001 
1.056667e-001 
9.262161e-002 
9.002514e-002 
9.754279e-002 
1.081008e-001 
1.197520e-001 
1.271964e-001 
1.261146e-001 
1.226298e-001 
1.172457e-001 
1.135672e-001 
1.106510e-001 
1.048328e-001 
9.428004e-002 
7.808345e-002 
5.645563e-002 
3.696926e-002 
1.841952e-002 
1.475955e-003 
-3.335814e-003 
1.141643e-002 
2.853820e-002 
-4.165592e-003 
-1.069783e-001 
-2.243943e-001 
-2.981849e-001 
-3.249757e-001 
-3.223719e-001 
-2.949888e-001 
-2.595829e-001 
-2.758813e-001 
-3.637164e-001 
-4.438264e-001 
-4.321538e-001 
-3.569708e-001 
-2.944186e-001 
-2.707206e-001 
-2.708783e-001 
-2.960494e-001 
-3.352973e-001 
-3.423764e-001 
-2.826666e-001 
-1.853272e-001 
-1.138977e-001 
-8.713590e-002 
-8.625404e-002 
-9.244541e-002 
-9.786089e-002 
-9.972241e-002 
-1.052627e-001 
-1.131384e-001 
-1.191975e-001 
-1.208080e-001 
-1.210501e-001 
-1.226724e-001 
-1.209241e-001 
-1.132523e-001 
-1.071193e-001 
-1.043626e-001 
-9.700067e-002 
-8.654699e-002 
-7.661580e-002 
-6.767382e-002 
-5.604487e-002 
-4.151108e-002 
-2.999600e-002 
-2.443305e-002 
-1.735128e-002 
-6.534752e-003 
2.229094e-003 
8.424133e-003 
1.249433e-002 
1.564772e-002 
1.638205e-002 
1.243111e-002 
8.601974e-003 
1.034979e-002 
1.210562e-002 
1.005816e-002 
7.114601e-003 
5.501771e-003 
6.178003e-003 
6.156689e-003 
6.263861e-003 
1.074576e-002 
1.679338e-002 
2.519619e-002 
3.896996e-002 
5.637751e-002 
7.804744e-002 
9.384154e-002 
1.033104e-001 
1.091219e-001 
1.098382e-001 
1.095898e-001 
1.121057e-001 
1.085962e-001 
1.016726e-001 
9.047039e-002 
6.973285e-002 
5.230648e-002 
3.392465e-002 
1.982086e-002 
1.960963e-002 
3.989852e-002 
6.012496e-002 
3.649576e-002 
-5.817420e-002 
-1.715580e-001 
-2.500081e-001 
-2.852872e-001 
-2.814866e-001 
-2.519757e-001 
-2.161163e-001 
-2.301187e-001 
-3.156216e-001 
-4.004704e-001 
-4.006599e-001 
-3.406281e-001 
-2.774043e-001 
-2.445301e-001 
-2.460856e-001 
-2.760811e-001 
-3.219776e-001 
-3.378273e-001 
-2.866392e-001 
-1.949226e-001 
-1.202119e-001 
-8.173972e-002 
-7.316404e-002 
-7.858196e-002 
-8.562965e-002 
-8.853128e-002 
-9.166059e-002 
-1.012156e-001 
-1.116785e-001 
-1.177168e-001 
-1.207234e-001 
-1.232115e-001 
-1.251734e-001 
-1.203212e-001 
-1.094647e-001 
-9.944972e-002 
-8.843956e-002 
-7.239965e-002 
-5.623287e-002 
-4.122502e-002 
-2.332812e-002 
-3.365097e-003 
1.580106e-002 
3.401781e-002 
5.166987e-002 
6.739177e-002 
8.097660e-002 
9.081960e-002 
1.008605e-001 
1.120666e-001 
1.169024e-001 
1.153745e-001 
1.130817e-001 
1.078561e-001 
9.972726e-002 
9.006813e-002 
8.165170e-002 
7.858978e-002 
7.640780e-002 
7.121279e-002 
6.810381e-002 
6.952429e-002 
7.720749e-002 
9.102604e-002 
1.071018e-001 
1.294604e-001 
1.463515e-001 
1.517105e-001 
1.507814e-001 
1.505533e-001 
1.542901e-001 
1.596970e-001 
1.589561e-001 
1.554725e-001 
1.481590e-001 
1.257208e-001 
1.028071e-001 
8.587922e-002 
7.801232e-002 
7.640600e-002 
9.033479e-002 
1.126689e-001 
1.088928e-001 
3.942828e-002 
-6.343959e-002 
-1.414442e-001 
-1.763643e-001 
-1.748775e-001 
-1.522611e-001 
-1.132501e-001 
-1.035138e-001 
-1.624616e-001 
-2.479632e-001 
-2.702073e-001 
-2.276517e-001 
-1.658422e-001 
-1.289448e-001 
-1.237998e-001 
-1.406716e-001 
-1.796874e-001 
-2.128656e-001 
-1.923407e-001 
-1.187628e-001 
-4.757789e-002 
-7.025588e-003 
1.847944e-003 
-8.022937e-004 
-6.277983e-003 
-1.638744e-002 
-2.945573e-002 
-4.002705e-002 
-4.807570e-002 
-5.728100e-002 
-6.224118e-002 
-6.296748e-002 
-6.278551e-002 
-6.055168e-002 
-5.456324e-002 
-4.541511e-002 
-3.197896e-002 
-1.733667e-002 
-3.192830e-003 
1.594972e-002 
3.508294e-002 
5.393735e-002 
7.639694e-002 
9.590303e-002 
1.120943e-001 
1.280074e-001 
1.416493e-001 
1.543033e-001 
1.666144e-001 
1.731596e-001 
1.796423e-001 
1.818620e-001 
1.747666e-001 
1.689651e-001 
1.664746e-001 
1.628045e-001 
1.582525e-001 
1.556496e-001 
1.539908e-001 
1.575720e-001 
1.656042e-001 
1.811305e-001 
2.059920e-001 
2.292848e-001 
2.374886e-001 
2.383020e-001 
2.374288e-001 
2.375419e-001 
2.414415e-001 
2.454045e-001 
2.481497e-001 
2.469561e-001 
2.306755e-001 
2.036822e-001 
1.869944e-001 
1.790443e-001 
1.782613e-001 
1.887506e-001 
2.137766e-001 
2.389842e-001 
2.043446e-001 
1.049677e-001 
1.454000e-002 
-2.617479e-002 
-2.937439e-002 
-1.238942e-002 
2.073158e-002 
5.410214e-002 
3.378754e-002 
-6.104863e-002 
-1.231288e-001 
-9.722290e-002 
-3.231405e-002 
1.097770e-002 
1.961438e-002 
7.679601e-003 
-2.460837e-002 
-7.012872e-002 
-8.019264e-002 
-2.326071e-002 
5.161460e-002 
1.011838e-001 
1.134016e-001 
1.089870e-001 
1.033507e-001 
9.713463e-002 
9.123539e-002 
8.301452e-002 
7.087576e-002 
6.229894e-002 
5.992839e-002 
6.117179e-002 
6.269027e-002 
6.651148e-002 
7.516576e-002 
8.689487e-002 
9.921870e-002 
1.141346e-001 
1.347306e-001 
1.586208e-001 
1.819667e-001 
2.029696e-001 
2.280779e-001 
2.561568e-001 
2.814748e-001 
3.041784e-001 
3.266601e-001 
3.495869e-001 
3.693541e-001 
3.831638e-001 
3.971612e-001 
4.124351e-001 
4.215679e-001 
4.253705e-001 
4.299984e-001 
4.367555e-001 
4.501599e-001 
4.708467e-001 
4.975844e-001 
5.282315e-001 
5.461449e-001 
5.533540e-001 
5.601337e-001 
5.654440e-001 
5.720189e-001 
5.837049e-001 
5.921677e-001 
5.944922e-001 
5.860618e-001 
5.659486e-001 
5.548098e-001 
5.488721e-001 
5.449346e-001 
5.494624e-001 
5.693854e-001 
5.984907e-001 
6.095892e-001 
5.614208e-001 
4.795492e-001 
4.145276e-001 
3.813633e-001 
3.824823e-001 
4.077126e-001 
4.487883e-001 
4.669956e-001 
4.227194e-001 
3.397170e-001 
3.059314e-001 
3.353503e-001 
3.879936e-001 
4.242258e-001 
4.297744e-001 
4.073481e-001 
3.621073e-001 
3.223451e-001 
3.248823e-001 
3.788437e-001 
4.388818e-001 
4.754100e-001 
4.786640e-001 
4.640997e-001 
4.474960e-001 
4.344526e-001 
4.206640e-001 
4.018291e-001 
3.863863e-001 
3.736624e-001 
3.615769e-001 
3.475131e-001 
3.378004e-001 
3.372549e-001 
3.424682e-001 
3.471595e-001 
3.554439e-001 
3.699918e-001 
3.840331e-001 
3.976736e-001 
4.152906e-001 
4.409123e-001 
4.696084e-001 
4.921774e-001 
5.122916e-001 
5.378819e-001 
5.621926e-001 
5.805616e-001 
6.000564e-001 
6.231769e-001 
6.437242e-001 
6.541652e-001 
6.588494e-001 
6.711993e-001 
6.922945e-001 
7.111830e-001 
7.330853e-001 
7.638220e-001 
7.877492e-001 
7.967323e-001 
8.015857e-001 
8.093567e-001 
8.234903e-001 
8.325068e-001 
8.300974e-001 
8.282746e-001 
8.196679e-001 
7.959536e-001 
7.748274e-001 
7.608735e-001 
7.489960e-001 
7.427447e-001 
7.453784e-001 
7.572150e-001 
7.469869e-001 
6.723579e-001 
5.687858e-001 
4.907634e-001 
4.492441e-001 
4.396366e-001 
4.514446e-001 
4.778139e-001 
4.819649e-001 
4.196604e-001 
3.306526e-001 
3.068317e-001 
3.441597e-001 
3.940308e-001 
4.206392e-001 
4.203084e-001 
4.010328e-001 
3.601832e-001 
3.239525e-001 
3.428685e-001 
4.101267e-001 
4.700153e-001 
4.998810e-001 
5.012859e-001 
4.925296e-001 
4.805729e-001 
4.642242e-001 
4.480449e-001 
4.347955e-001 
4.203081e-001 
4.078158e-001 
4.011582e-001 
3.969851e-001 
3.928866e-001 
3.901744e-001 
3.895810e-001 
3.923763e-001 
3.973775e-001 
4.019832e-001 
4.090018e-001 
4.176729e-001 
4.241934e-001 
4.297759e-001 
4.361791e-001 
4.407840e-001 
4.444627e-001 
4.482054e-001 
4.494316e-001 
4.487715e-001 
4.449719e-001 
4.362437e-001 
4.274266e-001 
4.180527e-001 
4.058394e-001 
4.012648e-001 
4.066550e-001 
4.141867e-001 
4.245912e-001 
4.289308e-001 
4.257757e-001 
4.211890e-001 
4.101499e-001 
4.010526e-001 
3.992234e-001 
3.887811e-001 
3.659751e-001 
3.373059e-001 
2.991027e-001 
2.624214e-001 
2.282618e-001 
1.961799e-001 
1.750471e-001 
1.630857e-001 
1.457571e-001 
1.001810e-001 
-6.755568e-003 
-1.479290e-001 
-2.617437e-001 
-3.232970e-001 
-3.404492e-001 
-3.344036e-001 
-3.247221e-001 
-3.429691e-001 
-4.193087e-001 
-5.213862e-001 
-5.571945e-001 
-5.142422e-001 
-4.468877e-001 
-4.090032e-001 
-4.122111e-001 
-4.407090e-001 
-4.762097e-001 
-4.936479e-001 
-4.554699e-001 
-3.640912e-001 
-2.729405e-001 
-2.190939e-001 
-2.091200e-001 
-2.173989e-001 
-2.195933e-001 
-2.161806e-001 
-2.145195e-001 
-2.143377e-001 
-2.096566e-001 
-2.002473e-001 
-1.923503e-001 
-1.879642e-001 
-1.806762e-001 
-1.696476e-001 
-1.595567e-001 
-1.489679e-001 
-1.378853e-001 
-1.273784e-001 
-1.218477e-001 
-1.177824e-001 
-1.115217e-001 
-1.027787e-001 
-9.675419e-002 
-9.139730e-002 
-8.437313e-002 
-8.213780e-002 
-8.471933e-002 
-8.766671e-002 
-8.810498e-002 
-8.952750e-002 
-9.500685e-002 
-1.037283e-001 
-1.066658e-001 
-1.081303e-001 
-1.085286e-001 
-9.370537e-002 
-6.819475e-002 
-4.050794e-002 
-2.173164e-002 
-1.487445e-002 
-7.516488e-003 
-1.157310e-003 
1.281993e-003 
1.003858e-002 
1.836684e-002 
1.505405e-002 
8.970694e-005 
-3.154097e-002 
-6.163543e-002 
-8.240306e-002 
-1.034964e-001 
-1.199227e-001 
-1.227108e-001 
-1.245762e-001 
-1.555764e-001 
-2.564327e-001 
-3.917379e-001 
-4.965227e-001 
-5.523548e-001 
-5.694685e-001 
-5.615967e-001 
-5.380916e-001 
-5.402041e-001 
-6.087946e-001 
-7.077537e-001 
-7.357394e-001 
-6.892036e-001 
-6.159884e-001 
-5.654882e-001 
-5.488344e-001 
-5.566008e-001 
-5.843176e-001 
-6.011471e-001 
-5.619410e-001 
-4.697611e-001 
-3.777141e-001 
-3.161495e-001 
-2.974859e-001 
-3.004047e-001 
-3.056122e-001 
-3.099763e-001 
-3.136510e-001 
-3.197013e-001 
-3.233642e-001 
-3.203804e-001 
-3.173120e-001 
-3.191148e-001 
-3.178222e-001 
-3.093605e-001 
-2.988244e-001 
-2.876008e-001 
-2.751298e-001 
-2.603048e-001 
-2.438574e-001 
-2.270600e-001 
-2.071032e-001 
-1.814572e-001 
-1.552816e-001 
-1.332378e-001 
-1.142425e-001 
-9.664354e-002 
-7.874685e-002 
-5.917796e-002 
-3.945084e-002 
-2.063364e-002 
-5.484786e-003 
3.836603e-003 
7.024303e-003 
8.554668e-003 
1.214401e-002 
1.938833e-002 
3.093329e-002 
4.986999e-002 
7.452787e-002 
9.849937e-002 
1.198331e-001 
1.335518e-001 
1.439404e-001 
1.523734e-001 
1.608521e-001 
1.697159e-001 
1.777208e-001 
1.773469e-001 
1.698600e-001 
1.575518e-001 
1.392773e-001 
1.243955e-001 
1.120900e-001 
1.047726e-001 
1.122205e-001 
1.286839e-001 
1.222788e-001 
5.361335e-002 
-5.628534e-002 
-1.507788e-001 
-2.027574e-001 
-2.203481e-001 
-2.140225e-001 
-1.923400e-001 
-1.912350e-001 
-2.537136e-001 
-3.547702e-001 
-3.950166e-001 
-3.640593e-001 
-3.099290e-001 
-2.768645e-001 
-2.747937e-001 
-2.968008e-001 
-3.392493e-001 
-3.770210e-001 
-3.630022e-001 
-2.923614e-001 
-2.200393e-001 
-1.787082e-001 
-1.742077e-001 
-1.837783e-001 
-1.935188e-001 
-2.018283e-001 
-2.093445e-001 
-2.139889e-001 
-2.155176e-001 
-2.155640e-001 
-2.161630e-001 
-2.136098e-001 
-2.057713e-001 
-1.946503e-001 
-1.826124e-001 
-1.659935e-001 
-1.406681e-001 
-1.174293e-001 
-9.719075e-002 
-7.451208e-002 
-4.952546e-002 
-2.494626e-002 
2.871023e-004 
2.357774e-002 
4.744060e-002 
6.860399e-002 
8.182566e-002 
9.525623e-002 
1.089474e-001 
1.169539e-001 
1.227111e-001 
1.258834e-001 
1.211738e-001 
1.153726e-001 
1.133058e-001 
1.192907e-001 
1.344056e-001 
1.518255e-001 
1.657070e-001 
1.736236e-001 
1.756310e-001 
1.758205e-001 
1.796934e-001 
1.874652e-001 
1.945482e-001 
1.964555e-001 
1.921149e-001 
1.786372e-001 
1.625670e-001 
1.529508e-001 
1.475810e-001 
1.519978e-001 
1.757151e-001 
2.060744e-001 
2.079694e-001 
1.432783e-001 
3.599414e-002 
-4.782124e-002 
-8.605296e-002 
-9.078788e-002 
-6.838361e-002 
-3.263441e-002 
-2.834117e-002 
-9.098480e-002 
-1.854774e-001 
-2.159054e-001 
-1.673514e-001 
-9.913927e-002 
-5.581355e-002 
-4.242096e-002 
-5.818582e-002 
-9.844731e-002 
-1.258829e-001 
-9.680336e-002 
-1.374239e-002 
7.053869e-002 
1.225032e-001 
1.379546e-001 
1.340668e-001 
1.247372e-001 
1.179206e-001 
1.139043e-001 
1.058905e-001 
9.427328e-002 
8.750456e-002 
8.294115e-002 
7.465872e-002 
6.561939e-002 
6.061468e-002 
6.038502e-002 
6.089706e-002 
6.089712e-002 
6.349518e-002 
7.106428e-002 
7.987066e-002 
8.926123e-002 
9.922061e-002 
1.097846e-001 
1.178923e-001 
1.213636e-001 
1.244234e-001 
1.261911e-001 
1.252660e-001 
1.224619e-001 
1.171979e-001 
1.073649e-001 
9.134333e-002 
7.010367e-002 
5.286138e-002 
4.452845e-002 
3.825832e-002 
3.584299e-002 
3.942837e-002 
3.876419e-002 
2.761646e-002 
1.159458e-002 
-1.583888e-003 
-7.546043e-003 
-1.591879e-002 
-3.406423e-002 
-5.037421e-002 
-6.816663e-002 
-1.005213e-001 
-1.352092e-001 
-1.635284e-001 
-1.864951e-001 
-1.994596e-001 
-1.980517e-001 
-2.027389e-001 
-2.589188e-001 
-3.915037e-001 
-5.422044e-001 
-6.417498e-001 
-6.896462e-001 
-7.041450e-001 
-6.935946e-001 
-6.817785e-001 
-7.270220e-001 
-8.394283e-001 
-9.362745e-001 
-9.322026e-001 
-8.631949e-001 
-8.058735e-001 
-7.860400e-001 
-7.954363e-001 
-8.295634e-001 
-8.746287e-001 
-8.813036e-001 
-8.136036e-001 
-7.060080e-001 
-6.301955e-001 
-6.037479e-001 
-6.054128e-001 
-6.136262e-001 
-6.237138e-001 
-6.333127e-001 
-6.395789e-001 
-6.445423e-001 
-6.526689e-001 
-6.609231e-001 
-6.648831e-001 
-6.650752e-001 
-6.646251e-001 
-6.622689e-001 
-6.560919e-001 
-6.525788e-001 
-6.549511e-001 
-6.584228e-001 
-6.565298e-001 
-6.522790e-001 
-6.491176e-001 
-6.471153e-001 
-6.467538e-001 
-6.512353e-001 
-6.601341e-001 
-6.714603e-001 
-6.797514e-001 
-6.864286e-001 
-6.986458e-001 
-7.133187e-001 
-7.279155e-001 
-7.449510e-001 
-7.605375e-001 
-7.690101e-001 
-7.696229e-001 
-7.623246e-001 
-7.535427e-001 
-7.467139e-001 
-7.420656e-001 
-7.437739e-001 
-7.522659e-001 
-7.585731e-001 
-7.615303e-001 
-7.694159e-001 
-7.842658e-001 
-8.043218e-001 
-8.305254e-001 
-8.592401e-001 
-8.885316e-001 
-9.157127e-001 
-9.317779e-001 
-9.270785e-001 
-9.340766e-001 
-9.996910e-001 
-1.124423e+000 
-1.262595e+000 
-1.361821e+000 
-1.411283e+000 
-1.427297e+000 
-1.414748e+000 
-1.395355e+000 
-1.439304e+000 
-1.540233e+000 
-1.616520e+000 
-1.613984e+000 
-1.549780e+000 
-1.485665e+000 
-1.457607e+000 
-1.459441e+000 
-1.484916e+000 
-1.519301e+000 
-1.511239e+000 
-1.440031e+000 
-1.334668e+000 
-1.246830e+000 
-1.203973e+000 
-1.194702e+000 
-1.194010e+000 
-1.187386e+000 
-1.180473e+000 
-1.176525e+000 
-1.175129e+000 
-1.173418e+000 
-1.170418e+000 
-1.167263e+000 
-1.163926e+000 
-1.157548e+000 
-1.151101e+000 
-1.151079e+000 
-1.154068e+000 
-1.157759e+000 
-1.157264e+000 
-1.153185e+000 
-1.149449e+000 
-1.145044e+000 
-1.140974e+000 
-1.142914e+000 
-1.146881e+000 
-1.146070e+000 
-1.141658e+000 
-1.133591e+000 
-1.126270e+000 
-1.121278e+000 
-1.117322e+000 
-1.116766e+000 
-1.118042e+000 
-1.116190e+000 
-1.110768e+000 
-1.100043e+000 
-1.083387e+000 
-1.065021e+000 
-1.044068e+000 
-1.028089e+000 
-1.021557e+000 
-1.017922e+000 
-1.017505e+000 
-1.014963e+000 
-1.010616e+000 
-1.013503e+000 
-1.020759e+000 
-1.033294e+000 
-1.057393e+000 
-1.079539e+000 
-1.095719e+000 
-1.108384e+000 
-1.110036e+000 
-1.095619e+000 
-1.091721e+000 
-1.144293e+000 
-1.247871e+000 
-1.352628e+000 
-1.419010e+000 
-1.445762e+000 
-1.447343e+000 
-1.427908e+000 
-1.404957e+000 
-1.441608e+000 
-1.528540e+000 
-1.576626e+000 
-1.553472e+000 
-1.490211e+000 
-1.435447e+000 
-1.411286e+000 
-1.406759e+000 
-1.422970e+000 
-1.448754e+000 
-1.429903e+000 
-1.352362e+000 
-1.256333e+000 
-1.182284e+000 
-1.143141e+000 
-1.122842e+000 
-1.109920e+000 
-1.100125e+000 
-1.086502e+000 
-1.072381e+000 
-1.059728e+000 
-1.045698e+000 
-1.028843e+000 
-1.010855e+000 
-9.929880e-001 
-9.778691e-001 
-9.608573e-001 
-9.401591e-001 
-9.217002e-001 
-9.039190e-001 
-8.871953e-001 
-8.724278e-001 
-8.572672e-001 
-8.420046e-001 
-8.285674e-001 
-8.127441e-001 
-7.985578e-001 
-7.877145e-001 
-7.778002e-001 
-7.705872e-001 
-7.656663e-001 
-7.622017e-001 
-7.618360e-001 
-7.603127e-001 
-7.599827e-001 
-7.606102e-001 
-7.540394e-001 
-7.415043e-001 
-7.262701e-001 
-7.081825e-001 
-6.847619e-001 
-6.653312e-001 
-6.544380e-001 
-6.497180e-001 
-6.433318e-001 
-6.374442e-001 
-6.372248e-001 
-6.421111e-001 
-6.459088e-001 
-6.522782e-001 
-6.704599e-001 
-6.878604e-001 
-6.994013e-001 
-7.051745e-001 
-6.974830e-001 
-6.828875e-001 
-6.965954e-001 
-7.684849e-001 
-8.730264e-001 
-9.540892e-001 
-9.906263e-001 
-9.990146e-001 
-9.868876e-001 
-9.604521e-001 
-9.591531e-001 
-1.017199e+000 
-1.093591e+000 
-1.104692e+000 
-1.051628e+000 
-9.928182e-001 
-9.617226e-001 
-9.550776e-001 
-9.649517e-001 
-9.896690e-001 
-1.003957e+000 
-9.665741e-001 
-8.818820e-001 
-8.053057e-001 
-7.651082e-001 
-7.524332e-001 
-7.470364e-001 
-7.414225e-001 
-7.391465e-001 
-7.377033e-001 
-7.337209e-001 
-7.288823e-001 
-7.254496e-001 
-7.200870e-001 
-7.106849e-001 
-6.968649e-001 
-6.824061e-001 
-6.673300e-001 
-6.490927e-001 
-6.296917e-001 
-6.117443e-001 
-5.943618e-001 
-5.720329e-001 
-5.464763e-001 
-5.218518e-001 
-4.993968e-001 
-4.759854e-001 
-4.525176e-001 
-4.325973e-001 
-4.170426e-001 
-3.996385e-001 
-3.814001e-001 
-3.696287e-001 
-3.626382e-001 
-3.557917e-001 
-3.508259e-001 
-3.507854e-001 
-3.536520e-001 
-3.478063e-001 
-3.323105e-001 
-3.180184e-001 
-3.024453e-001 
-2.885986e-001 
-2.821513e-001 
-2.839152e-001 
-2.907995e-001 
-2.937714e-001 
-2.908772e-001 
-2.965248e-001 
-3.066879e-001 
-3.183445e-001 
-3.400185e-001 
-3.631348e-001 
-3.817410e-001 
-3.901213e-001 
-3.790599e-001 
-3.555881e-001 
-3.488882e-001 
-3.981972e-001 
-4.943872e-001 
-5.841483e-001 
-6.346270e-001 
-6.453064e-001 
-6.289360e-001 
-5.966900e-001 
-5.762754e-001 
-6.145429e-001 
-6.958655e-001 
-7.298318e-001 
-6.953729e-001 
-6.321581e-001 
-5.849092e-001 
-5.741907e-001 
-5.875190e-001 
-6.183744e-001 
-6.518645e-001 
-6.432106e-001 
-5.798219e-001 
-5.068647e-001 
-4.605558e-001 
-4.534831e-001 
-4.641522e-001 
-4.709971e-001 
-4.773678e-001 
-4.891142e-001 
-5.001953e-001 
-5.071454e-001 
-5.138012e-001 
-5.204551e-001 
-5.239443e-001 
-5.198627e-001 
-5.107403e-001 
-5.040490e-001 
-4.953562e-001 
-4.790443e-001 
-4.626023e-001 
-4.490796e-001 
-4.320736e-001 
-4.104274e-001 
-3.879084e-001 
-3.681795e-001 
-3.504736e-001 
-3.296574e-001 
-3.098174e-001 
-2.956675e-001 
-2.827967e-001 
-2.677142e-001 
-2.559131e-001 
-2.510207e-001 
-2.493821e-001 
-2.472551e-001 
-2.454477e-001 
-2.442860e-001 
-2.370564e-001 
-2.228425e-001 
-2.060709e-001 
-1.905402e-001 
-1.834515e-001 
-1.785570e-001 
-1.753899e-001 
-1.727146e-001 
-1.665496e-001 
-1.597483e-001 
-1.589637e-001 
-1.601882e-001 
-1.684605e-001 
-1.827677e-001 
-1.866776e-001 
-1.867021e-001 
-1.795559e-001 
-1.572113e-001 
-1.248914e-001 
-1.067582e-001 
-1.418073e-001 
-2.148975e-001 
-2.715927e-001 
-2.955389e-001 
-2.962512e-001 
-2.731202e-001 
-2.314239e-001 
-2.041346e-001 
-2.327989e-001 
-2.959656e-001 
-3.098040e-001 
-2.675038e-001 
-2.080379e-001 
-1.596292e-001 
-1.335967e-001 
-1.316715e-001 
-1.502275e-001 
-1.648150e-001 
-1.365926e-001 
-6.263828e-002 
1.643581e-002 
7.865009e-002 
1.133145e-001 
1.291694e-001 
1.444811e-001 
1.659877e-001 
1.861014e-001 
1.997329e-001 
2.136080e-001 
2.347716e-001 
2.610674e-001 
2.874924e-001 
3.200076e-001 
3.644082e-001 
4.121330e-001 
4.584076e-001 
5.081748e-001 
5.668003e-001 
6.337358e-001 
6.996899e-001 
7.657971e-001 
8.386116e-001 
9.126223e-001 
9.841117e-001 
1.058707e+000 
1.137105e+000 
1.216717e+000 
1.289818e+000 
1.354196e+000 
1.417934e+000 
1.478920e+000 
1.531056e+000 
1.580271e+000 
1.632121e+000 
1.683697e+000 
1.731092e+000 
1.775579e+000 
1.821228e+000 
1.862893e+000 
1.891788e+000 
1.913745e+000 
1.936908e+000 
1.956176e+000 
1.964799e+000 
1.965920e+000 
1.964786e+000 
1.956636e+000 
1.938275e+000 
1.917443e+000 
1.906924e+000 
1.908379e+000 
1.918950e+000 
1.926600e+000 
1.896269e+000 
1.811612e+000 
1.710047e+000 
1.632819e+000 
1.592377e+000 
1.581273e+000 
1.588152e+000 
1.595515e+000 
1.563330e+000 
1.477454e+000 
1.401137e+000 
1.389953e+000 
1.423647e+000 
1.459799e+000 
1.473830e+000 
1.465965e+000 
1.436542e+000 
1.395104e+000 
1.378072e+000 
1.412546e+000 
1.476641e+000 
1.530722e+000 
1.556629e+000 
1.560735e+000 
1.559986e+000 
1.555264e+000 
1.547526e+000 
1.537184e+000 
1.526312e+000 
1.520614e+000 
1.518320e+000 
1.516353e+000 
1.515867e+000 
1.517491e+000 
1.516584e+000 
1.518204e+000 
1.521493e+000 
1.527803e+000 
1.539402e+000 
1.551905e+000 
1.564069e+000 
1.575108e+000 
1.584288e+000 
1.592059e+000 
1.601794e+000 
1.608230e+000 
1.614072e+000 
1.619974e+000 
1.622741e+000 
1.621058e+000 
1.615348e+000 
1.609915e+000 
1.609672e+000 
1.615796e+000 
1.621631e+000 
1.629295e+000 
1.634789e+000 
1.632825e+000 
1.626487e+000 
1.619306e+000 
1.614094e+000 
1.611780e+000 
1.602724e+000 
1.584401e+000 
1.562499e+000 
1.531749e+000 
1.498691e+000 
1.471692e+000 
1.450020e+000 
1.439999e+000 
1.446243e+000 
1.443464e+000 
1.384213e+000 
1.257896e+000 
1.121060e+000 
1.027746e+000 
9.802399e-001 
9.610424e-001 
9.625846e-001 
9.663298e-001 
9.166087e-001 
8.017220e-001 
7.113225e-001 
7.110399e-001 
7.630440e-001 
8.041777e-001 
8.088052e-001 
7.848900e-001 
7.406604e-001 
6.857155e-001 
6.653053e-001 
7.127757e-001 
7.934329e-001 
8.515444e-001 
8.651016e-001 
8.522287e-001 
8.354593e-001 
8.202028e-001 
7.996818e-001 
7.753358e-001 
7.541359e-001 
7.377500e-001 
7.195512e-001 
7.022393e-001 
6.939008e-001 
6.927706e-001 
6.926180e-001 
6.922529e-001 
6.984547e-001 
7.076921e-001 
7.138694e-001 
7.178316e-001 
7.267908e-001 
7.392549e-001 
7.493023e-001 
7.560954e-001 
7.656754e-001 
7.740729e-001 
7.753886e-001 
7.723122e-001 
7.695868e-001 
7.670433e-001 
7.593576e-001 
7.491563e-001 
7.438985e-001 
7.429430e-001 
7.402023e-001 
7.389568e-001 
7.360103e-001 
7.289528e-001 
7.150947e-001 
6.961146e-001 
6.798068e-001 
6.640900e-001 
6.387786e-001 
6.070797e-001 
5.717167e-001 
5.283876e-001 
4.820843e-001 
4.383909e-001 
4.055093e-001 
3.883725e-001 
3.813280e-001 
3.517149e-001 
2.592023e-001 
1.135025e-001 
-2.983711e-002 
-1.246417e-001 
-1.646760e-001 
-1.711854e-001 
-1.631345e-001 
-1.687766e-001 
-2.360426e-001 
-3.468005e-001 
-4.110426e-001 
-3.905171e-001 
-3.199059e-001 
-2.605678e-001 
-2.467564e-001 
-2.669380e-001 
-3.035251e-001 
-3.320401e-001 
-3.100810e-001 
-2.250338e-001 
-1.180978e-001 
-4.064243e-002 
-1.642027e-002 
-2.934964e-002 
-4.110783e-002 
-3.882787e-002 
-3.750585e-002 
-4.679154e-002 
-5.495968e-002 
-6.162194e-002 
-7.152201e-002 
-8.245696e-002 
-8.843480e-002 
-8.111453e-002 
-7.668621e-002 
-8.471734e-002 
-9.343780e-002 
-9.301958e-002 
-9.411678e-002 
-9.486814e-002 
-9.103340e-002 
-8.555938e-002 
-8.251622e-002 
-8.687142e-002 
-8.818330e-002 
-8.266508e-002 
-7.931390e-002 
-8.474576e-002 
-9.011864e-002 
-9.392819e-002 
-1.028372e-001 
-1.153959e-001 
-1.233794e-001 
-1.243063e-001 
-1.201964e-001 
-1.123852e-001 
-9.602949e-002 
-7.093169e-002 
-5.721064e-002 
-5.737856e-002 
-5.765426e-002 
-5.808190e-002 
-5.682121e-002 
-5.374898e-002 
-5.434647e-002 
-5.406945e-002 
-6.450035e-002 
-8.972378e-002 
-1.067099e-001 
-1.157844e-001 
-1.198678e-001 
-1.041365e-001 
-8.747997e-002 
-1.043398e-001 
-1.783341e-001 
-2.893108e-001 
-3.801068e-001 
-4.233202e-001 
-4.335074e-001 
-4.175378e-001 
-3.877341e-001 
-3.906356e-001 
-4.515716e-001 
-5.285047e-001 
-5.484169e-001 
-5.056792e-001 
-4.475131e-001 
-4.154376e-001 
-4.101739e-001 
-4.274855e-001 
-4.629229e-001 
-4.825498e-001 
-4.488693e-001 
-3.717384e-001 
-3.008290e-001 
-2.655926e-001 
-2.600844e-001 
-2.622854e-001 
-2.656892e-001 
-2.695289e-001 
-2.736157e-001 
-2.783317e-001 
-2.856242e-001 
-2.933330e-001 
-2.950480e-001 
-2.907628e-001 
-2.826485e-001 
-2.752143e-001 
-2.688467e-001 
-2.623412e-001 
-2.554279e-001 
-2.486560e-001 
-2.369739e-001 
-2.234554e-001 
-2.125323e-001 
-2.001465e-001 
-1.901479e-001 
-1.830895e-001 
-1.774218e-001 
-1.708908e-001 
-1.611404e-001 
-1.505137e-001 
-1.463120e-001 
-1.429236e-001 
-1.378037e-001 
-1.370877e-001 
-1.380002e-001 
-1.368740e-001 
-1.315607e-001 
-1.236845e-001 
-1.148009e-001 
-1.012601e-001 
-7.995684e-002 
-5.787646e-002 
-4.301581e-002 
-3.380242e-002 
-2.845546e-002 
-2.530191e-002 
-2.404642e-002 
-2.457955e-002 
-2.761586e-002 
-3.393553e-002 
-4.921663e-002 
-7.144845e-002 
-9.036752e-002 
-1.029946e-001 
-1.034619e-001 
-8.413098e-002 
-6.055841e-002 
-7.162100e-002 
-1.483243e-001 
-2.601160e-001 
-3.447580e-001 
-3.828555e-001 
-3.862059e-001 
-3.628750e-001 
-3.300802e-001 
-3.320230e-001 
-3.964911e-001 
-4.784076e-001 
-4.900189e-001 
-4.315455e-001 
-3.638563e-001 
-3.232669e-001 
