79
2.0573
472.7848
2.8071
1.830090e-004 
2.374064e-003 
5.151449e-003 
7.315758e-003 
1.022748e-002 
1.412676e-002 
1.835239e-002 
2.194091e-002 
2.502041e-002 
3.088646e-002 
3.820801e-002 
4.227730e-002 
4.682423e-002 
5.523858e-002 
6.409173e-002 
7.095087e-002 
7.866377e-002 
9.093454e-002 
1.068024e-001 
1.186168e-001 
1.273686e-001 
1.389416e-001 
1.496314e-001 
1.534829e-001 
1.554461e-001 
1.610457e-001 
1.675858e-001 
1.695686e-001 
1.663284e-001 
1.650132e-001 
1.639336e-001 
1.578155e-001 
1.499397e-001 
1.453671e-001 
1.410323e-001 
1.317963e-001 
1.200256e-001 
1.101368e-001 
1.015781e-001 
9.007884e-002 
7.915573e-002 
7.250698e-002 
6.679123e-002 
5.945069e-002 
5.233598e-002 
4.769185e-002 
4.140781e-002 
3.194890e-002 
2.492302e-002 
2.599063e-002 
2.708521e-002 
2.036475e-002 
1.284068e-002 
5.615479e-003 
-4.301277e-003 
-1.574870e-002 
-2.409499e-002 
-2.409532e-002 
-2.338631e-002 
-3.473332e-002 
-4.836065e-002 
-5.441710e-002 
-6.096157e-002 
-6.774614e-002 
-7.117799e-002 
-7.119257e-002 
-7.167182e-002 
-7.961790e-002 
-8.822140e-002 
-8.516743e-002 
-6.522628e-002 
-2.955581e-002 
-2.538609e-002 
-5.497995e-002 
-1.032078e-001 
-1.773248e-001 
-2.336169e-001 
-2.469285e-001 
-2.313775e-001 
-1.931795e-001 
-1.851125e-001 
-2.391411e-001 
-2.786572e-001 
-3.081840e-001 
-3.190595e-001 
-2.679302e-001 
-2.051830e-001 
-1.734836e-001 
-1.723484e-001 
-2.001449e-001 
-2.109538e-001 
-1.748349e-001 
-1.204257e-001 
-3.905260e-002 
4.441049e-002 
8.962315e-002 
1.045971e-001 
1.104362e-001 
1.174559e-001 
1.258150e-001 
1.331320e-001 
1.413141e-001 
1.527449e-001 
1.624318e-001 
1.689255e-001 
1.769023e-001 
1.878788e-001 
1.977990e-001 
2.074921e-001 
2.188321e-001 
2.328344e-001 
2.440518e-001 
2.497162e-001 
2.539793e-001 
2.576381e-001 
2.578544e-001 
2.542621e-001 
2.505456e-001 
2.452721e-001 
2.362825e-001 
2.223862e-001 
2.072632e-001 
1.932960e-001 
1.777801e-001 
1.607287e-001 
1.454290e-001 
1.307413e-001 
1.135060e-001 
9.581981e-002 
8.034550e-002 
6.812263e-002 
5.680954e-002 
4.579113e-002 
3.919579e-002 
3.560390e-002 
3.098020e-002 
2.518370e-002 
2.133609e-002 
1.999818e-002 
1.638797e-002 
9.688074e-003 
4.782676e-003 
1.163850e-003 
-6.379625e-003 
-1.656838e-002 
-2.331047e-002 
-2.140070e-002 
-1.897998e-002 
-2.271172e-002 
-2.699517e-002 
-3.031286e-002 
-3.595291e-002 
-4.417884e-002 
-4.953929e-002 
-4.595344e-002 
-4.136128e-002 
-4.798130e-002 
-5.805102e-002 
-6.495478e-002 
-7.062362e-002 
-7.653574e-002 
-8.103516e-002 
-8.196724e-002 
-8.272738e-002 
-8.966855e-002 
-9.449074e-002 
-8.568871e-002 
-5.881158e-002 
-6.430047e-002 
-1.080398e-001 
-1.723496e-001 
-2.496808e-001 
-2.934405e-001 
-2.945968e-001 
-2.743508e-001 
-2.408630e-001 
-2.337120e-001 
-2.878549e-001 
-3.329778e-001 
-3.617162e-001 
-3.474018e-001 
-2.757300e-001 
-2.166285e-001 
-1.967589e-001 
-2.009022e-001 
-2.218375e-001 
-2.262074e-001 
-1.856641e-001 
-1.181383e-001 
-2.467140e-002 
4.836618e-002 
7.615696e-002 
8.239124e-002 
8.756692e-002 
9.683202e-002 
1.033007e-001 
1.109262e-001 
1.231770e-001 
1.346390e-001 
1.427637e-001 
1.513136e-001 
1.628818e-001 
1.762154e-001 
1.868729e-001 
1.966984e-001 
2.115017e-001 
2.271836e-001 
2.373759e-001 
2.440358e-001 
2.504676e-001 
2.541095e-001 
2.523052e-001 
2.453989e-001 
2.403272e-001 
2.349750e-001 
2.229019e-001 
2.060356e-001 
1.904230e-001 
1.751965e-001 
1.562257e-001 
1.356457e-001 
1.177156e-001 
1.024436e-001 
8.277679e-002 
6.203702e-002 
4.494809e-002 
3.154130e-002 
1.797063e-002 
4.912694e-003 
-2.561345e-003 
-6.456968e-003 
-1.229890e-002 
-1.924399e-002 
-2.249699e-002 
-2.549533e-002 
-3.075678e-002 
-3.806265e-002 
-4.380570e-002 
-4.872233e-002 
-5.785648e-002 
-6.846196e-002 
-7.589800e-002 
-8.278176e-002 
-9.299837e-002 
-1.002587e-001 
-9.924186e-002 
-9.606356e-002 
-1.005788e-001 
-1.074581e-001 
-1.109866e-001 
-1.143360e-001 
-1.209848e-001 
-1.259146e-001 
-1.213784e-001 
-1.158481e-001 
-1.226418e-001 
-1.346355e-001 
-1.386609e-001 
-1.405636e-001 
-1.441403e-001 
-1.477013e-001 
-1.465882e-001 
-1.438673e-001 
-1.499963e-001 
-1.584939e-001 
-1.568727e-001 
-1.274278e-001 
-1.096647e-001 
-1.283810e-001 
-1.688696e-001 
-2.391746e-001 
-3.059258e-001 
-3.323308e-001 
-3.274521e-001 
-2.946275e-001 
-2.601566e-001 
-2.888803e-001 
-3.313055e-001 
-3.676176e-001 
-3.934723e-001 
-3.524728e-001 
-2.815294e-001 
-2.353978e-001 
-2.174315e-001 
-2.328251e-001 
-2.536216e-001 
-2.325607e-001 
-1.876652e-001 
-1.114496e-001 
-2.134817e-002 
3.551099e-002 
5.756466e-002 
6.106726e-002 
6.511993e-002 
7.536859e-002 
8.393818e-002 
9.097984e-002 
1.011488e-001 
1.128418e-001 
1.244646e-001 
1.341505e-001 
1.459140e-001 
1.608306e-001 
1.741382e-001 
1.858297e-001 
2.002961e-001 
2.127389e-001 
2.205996e-001 
2.262868e-001 
2.296791e-001 
2.302196e-001 
2.260523e-001 
2.184346e-001 
2.108636e-001 
2.015158e-001 
1.867622e-001 
1.727535e-001 
1.595117e-001 
1.426631e-001 
1.235821e-001 
1.049237e-001 
8.785523e-002 
7.189256e-002 
5.376402e-002 
3.686867e-002 
2.478089e-002 
1.209708e-002 
-1.384672e-004 
-8.649994e-003 
-1.395856e-002 
-1.740508e-002 
-2.231686e-002 
-2.963799e-002 
-3.408711e-002 
-3.912455e-002 
-4.768544e-002 
-5.577679e-002 
-6.219177e-002 
-6.899064e-002 
-7.863052e-002 
-9.016036e-002 
-9.539744e-002 
-9.247546e-002 
-9.174985e-002 
-9.641778e-002 
-1.000034e-001 
-1.039080e-001 
-1.125218e-001 
-1.215918e-001 
-1.243405e-001 
-1.189571e-001 
-1.166879e-001 
-1.249248e-001 
-1.333491e-001 
-1.362603e-001 
-1.414711e-001 
-1.457430e-001 
-1.438235e-001 
-1.391359e-001 
-1.394341e-001 
-1.436312e-001 
-1.441490e-001 
-1.151355e-001 
-8.896586e-002 
-9.467176e-002 
-1.197235e-001 
-1.813514e-001 
-2.535979e-001 
-2.879362e-001 
-2.888286e-001 
-2.598975e-001 
-2.214237e-001 
-2.403519e-001 
-2.788662e-001 
-3.196796e-001 
-3.627853e-001 
-3.416398e-001 
-2.748091e-001 
-2.271497e-001 
-2.063318e-001 
-2.213028e-001 
-2.494562e-001 
-2.442249e-001 
-2.162402e-001 
-1.532052e-001 
-6.322786e-002 
1.412472e-003 
2.817828e-002 
3.355659e-002 
3.714242e-002 
4.552439e-002 
5.089128e-002 
5.607473e-002 
6.422827e-002 
7.399321e-002 
8.130016e-002 
8.560408e-002 
9.479920e-002 
1.083108e-001 
1.175818e-001 
1.258222e-001 
1.385292e-001 
1.535793e-001 
1.662349e-001 
1.747561e-001 
1.845954e-001 
1.952860e-001 
1.991486e-001 
1.983008e-001 
1.974163e-001 
1.977577e-001 
1.959272e-001 
1.875169e-001 
1.784589e-001 
1.708319e-001 
1.588635e-001 
1.437802e-001 
1.302292e-001 
1.181357e-001 
1.069824e-001 
9.173421e-002 
7.546636e-002 
6.489052e-002 
5.540128e-002 
4.428168e-002 
3.583344e-002 
3.254375e-002 
3.042233e-002 
2.481456e-002 
1.778744e-002 
1.586020e-002 
1.874389e-002 
2.110344e-002 
2.057049e-002 
1.894764e-002 
1.750686e-002 
9.224816e-003 
-3.176720e-003 
-1.053510e-002 
-1.351355e-002 
-1.638174e-002 
-2.349584e-002 
-3.438335e-002 
-4.422889e-002 
-5.383637e-002 
-6.565876e-002 
-6.974344e-002 
-6.957317e-002 
-7.236466e-002 
-7.772902e-002 
-8.283334e-002 
-8.436770e-002 
-7.552661e-002 
-3.864195e-002 
-1.429822e-002 
-2.664667e-002 
-7.845449e-002 
-1.500167e-001 
-1.977131e-001 
-2.117613e-001 
-2.045377e-001 
-1.670239e-001 
-1.357229e-001 
-1.727524e-001 
-2.301047e-001 
-2.785386e-001 
-2.788075e-001 
-2.277699e-001 
-1.757501e-001 
-1.440687e-001 
-1.327892e-001 
-1.579992e-001 
-1.860362e-001 
-1.716365e-001 
-1.188767e-001 
-3.313274e-002 
4.013706e-002 
8.293797e-002 
1.044482e-001 
1.112411e-001 
1.142677e-001 
1.219554e-001 
1.308408e-001 
1.395663e-001 
1.466672e-001 
1.538607e-001 
1.626624e-001 
1.690251e-001 
1.739760e-001 
1.838434e-001 
1.957220e-001 
2.046478e-001 
2.131175e-001 
2.234713e-001 
2.318669e-001 
2.339504e-001 
2.331678e-001 
2.338694e-001 
2.356877e-001 
2.329511e-001 
2.272114e-001 
2.232729e-001 
2.179531e-001 
2.070143e-001 
1.946198e-001 
1.849352e-001 
1.772784e-001 
1.676900e-001 
1.550750e-001 
1.440483e-001 
1.340881e-001 
1.214419e-001 
1.093175e-001 
1.018920e-001 
9.751672e-002 
9.333587e-002 
8.788804e-002 
8.368831e-002 
7.961291e-002 
7.293025e-002 
6.935912e-002 
7.225372e-002 
7.281814e-002 
6.802651e-002 
6.148100e-002 
5.346087e-002 
4.470240e-002 
3.373385e-002 
2.671450e-002 
2.744786e-002 
2.380499e-002 
1.032367e-002 
-8.206175e-004 
-7.386090e-003 
-1.448542e-002 
-2.128451e-002 
-2.581011e-002 
-2.547537e-002 
-2.657244e-002 
-3.006232e-002 
-2.956198e-002 
-1.923198e-003 
2.860761e-002 
1.865251e-002 
-1.883357e-002 
-7.752145e-002 
-1.443123e-001 
-1.782042e-001 
-1.800063e-001 
-1.555237e-001 
-1.154158e-001 
-1.304193e-001 
-1.825320e-001 
-2.181401e-001 
-2.434244e-001 
-2.258503e-001 
-1.634626e-001 
-1.147039e-001 
-9.293791e-002 
-1.039081e-001 
-1.333556e-001 
-1.282430e-001 
-8.760239e-002 
-2.435890e-002 
5.934524e-002 
1.272676e-001 
1.585697e-001 
1.676248e-001 
1.708439e-001 
1.783830e-001 
1.871880e-001 
1.935626e-001 
2.009227e-001 
2.129303e-001 
2.244581e-001 
2.312960e-001 
2.392376e-001 
2.495062e-001 
2.609248e-001 
2.711710e-001 
2.807655e-001 
2.940018e-001 
3.048836e-001 
3.076667e-001 
3.074789e-001 
3.076143e-001 
3.048499e-001 
2.983460e-001 
2.889627e-001 
2.804304e-001 
2.701715e-001 
2.526976e-001 
2.336317e-001 
2.182623e-001 
2.027004e-001 
1.839425e-001 
1.652697e-001 
1.502252e-001 
1.354047e-001 
1.172055e-001 
9.954017e-002 
8.818142e-002 
7.993463e-002 
7.042723e-002 
6.232217e-002 
6.042922e-002 
5.941705e-002 
5.426121e-002 
4.887768e-002 
4.675639e-002 
4.530006e-002 
3.882807e-002 
2.930366e-002 
2.275395e-002 
2.112567e-002 
1.979141e-002 
1.672966e-002 
1.302277e-002 
9.095909e-003 
4.464360e-005 
-1.248406e-002 
-2.189705e-002 
-2.531614e-002 
-2.522507e-002 
-2.966453e-002 
-4.036429e-002 
-5.022222e-002 
-5.892024e-002 
-6.932319e-002 
-7.543653e-002 
-7.705156e-002 
-7.862740e-002 
-8.419446e-002 
-8.875853e-002 
-8.785469e-002 
-6.003467e-002 
-5.344661e-002 
-8.775923e-002 
-1.372379e-001 
-2.123464e-001 
-2.705940e-001 
-2.810854e-001 
-2.666473e-001 
-2.334697e-001 
-2.081236e-001 
-2.536711e-001 
-2.984797e-001 
-3.271665e-001 
-3.379620e-001 
-2.801718e-001 
-2.100211e-001 
-1.776518e-001 
-1.716645e-001 
-1.900466e-001 
-2.052342e-001 
-1.740097e-001 
-1.208444e-001 
-3.757859e-002 
4.747653e-002 
8.885561e-002 
1.010123e-001 
1.057955e-001 
1.134618e-001 
1.208283e-001 
1.279674e-001 
1.397915e-001 
1.538538e-001 
1.624346e-001 
1.699229e-001 
1.812345e-001 
1.933689e-001 
2.026819e-001 
2.127056e-001 
2.264606e-001 
2.421561e-001 
2.518607e-001 
2.563618e-001 
2.634559e-001 
2.693956e-001 
2.681855e-001 
2.628385e-001 
2.587567e-001 
2.531771e-001 
2.420813e-001 
2.251307e-001 
2.099778e-001 
1.971874e-001 
1.802174e-001 
1.601022e-001 
1.421818e-001 
1.261580e-001 
1.077139e-001 
8.694400e-002 
6.888005e-002 
5.608977e-002 
4.412014e-002 
3.159191e-002 
2.171565e-002 
1.701325e-002 
1.438215e-002 
9.598820e-003 
6.132771e-003 
6.206846e-003 
5.012121e-003 
5.170352e-004 
-6.183206e-003 
-1.119518e-002 
-1.424185e-002 
-2.120246e-002 
-2.966154e-002 
-3.459203e-002 
-4.007802e-002 
-4.884033e-002 
-5.840171e-002 
-6.483200e-002 
-6.816769e-002 
-7.429278e-002 
-8.233558e-002 
-8.685249e-002 
-9.028545e-002 
-9.587931e-002 
-1.015790e-001 
-1.039316e-001 
-1.039341e-001 
-1.076837e-001 
-1.106207e-001 
-1.055557e-001 
-9.903978e-002 
-9.768533e-002 
-9.859271e-002 
-9.815451e-002 
-9.800987e-002 
-1.025127e-001 
-1.062942e-001 
-1.013166e-001 
-9.719135e-002 
-1.025741e-001 
-1.094381e-001 
-1.122992e-001 
-1.143003e-001 
-1.185545e-001 
-1.198069e-001 
-1.145018e-001 
-1.082722e-001 
-9.568037e-002 
-7.101693e-002 
-7.730345e-002 
-1.192346e-001 
-1.838818e-001 
-2.591603e-001 
-2.973033e-001 
-2.984111e-001 
-2.792779e-001 
-2.414051e-001 
-2.390255e-001 
-2.949268e-001 
-3.372425e-001 
-3.635526e-001 
-3.495063e-001 
-2.821281e-001 
-2.287655e-001 
-2.066863e-001 
-2.103742e-001 
-2.375998e-001 
-2.408410e-001 
-1.968788e-001 
-1.319547e-001 
-4.631547e-002 
2.231650e-002 
5.214437e-002 
6.240754e-002 
6.481411e-002 
7.060924e-002 
8.024572e-002 
9.025197e-002 
9.792919e-002 
1.062212e-001 
1.176978e-001 
1.306340e-001 
1.407757e-001 
1.503740e-001 
1.628353e-001 
1.771440e-001 
1.902313e-001 
2.007877e-001 
2.137447e-001 
2.272019e-001 
2.356223e-001 
2.396936e-001 
2.427952e-001 
2.450427e-001 
2.435203e-001 
2.361703e-001 
2.276528e-001 
2.199889e-001 
2.076552e-001 
1.911132e-001 
1.745550e-001 
1.581139e-001 
1.403995e-001 
1.206368e-001 
1.016294e-001 
8.573619e-002 
6.927709e-002 
5.121908e-002 
3.694004e-002 
2.531823e-002 
1.414346e-002 
4.683121e-003 
-1.307876e-003 
-4.163880e-003 
-8.657774e-003 
-1.493279e-002 
-1.834192e-002 
-2.113041e-002 
-2.774216e-002 
-3.441133e-002 
-3.975758e-002 
-4.478034e-002 
-5.321279e-002 
-6.386384e-002 
-7.071579e-002 
-7.648899e-002 
-8.562765e-002 
-9.480439e-002 
-1.010364e-001 
-1.063334e-001 
-1.138455e-001 
-1.208590e-001 
-1.226792e-001 
-1.236075e-001 
-1.277313e-001 
-1.315815e-001 
-1.331155e-001 
-1.333606e-001 
-1.351410e-001 
-1.368836e-001 
-1.340913e-001 
-1.312271e-001 
-1.327810e-001 
-1.347847e-001 
-1.350627e-001 
-1.353617e-001 
-1.328992e-001 
-1.243478e-001 
-1.142333e-001 
-1.087317e-001 
-1.083641e-001 
-1.107758e-001 
-1.120084e-001 
-1.130584e-001 
-1.124767e-001 
-1.057848e-001 
-9.975559e-002 
-1.040393e-001 
-1.117843e-001 
-1.172815e-001 
-1.198973e-001 
-1.193359e-001 
-1.195577e-001 
-1.184309e-001 
-1.169107e-001 
-1.174889e-001 
-1.170934e-001 
-9.008702e-002 
-7.472616e-002 
-8.895961e-002 
-1.231638e-001 
-1.931754e-001 
-2.632111e-001 
-2.923212e-001 
-2.936313e-001 
-2.671371e-001 
-2.378874e-001 
-2.686192e-001 
-3.043816e-001 
-3.420493e-001 
-3.774302e-001 
-3.472908e-001 
-2.813118e-001 
-2.406599e-001 
-2.231966e-001 
-2.369608e-001 
-2.580960e-001 
-2.434644e-001 
-2.077164e-001 
-1.354373e-001 
-4.538052e-002 
1.304718e-002 
3.827900e-002 
4.949558e-002 
5.457349e-002 
5.830651e-002 
6.441208e-002 
7.409232e-002 
8.294011e-002 
8.872790e-002 
9.654731e-002 
1.075029e-001 
1.180394e-001 
1.265148e-001 
1.362282e-001 
1.492475e-001 
1.615595e-001 
1.722106e-001 
1.843193e-001 
1.972205e-001 
2.068414e-001 
2.114656e-001 
2.142398e-001 
2.166851e-001 
2.143376e-001 
2.076684e-001 
2.014433e-001 
1.945155e-001 
1.833347e-001 
1.682179e-001 
1.526983e-001 
1.391707e-001 
1.224969e-001 
1.030482e-001 
8.631979e-002 
7.230964e-002 
5.545791e-002 
3.755369e-002 
2.351266e-002 
1.355011e-002 
3.517269e-003 
-5.994682e-003 
-1.158077e-002 
-1.453623e-002 
-1.772809e-002 
-2.377471e-002 
-2.696247e-002 
-2.868771e-002 
-3.411105e-002 
-4.162060e-002 
-4.700092e-002 
-5.310766e-002 
-6.068053e-002 
-6.900974e-002 
-7.643298e-002 
-8.102956e-002 
-8.978521e-002 
-1.009835e-001 
-1.074055e-001 
-1.072426e-001 
-1.055378e-001 
-1.049778e-001 
-1.048910e-001 
-1.038386e-001 
-1.063094e-001 
-1.127246e-001 
-1.146235e-001 
-1.091288e-001 
-1.033080e-001 
-1.038926e-001 
-1.079276e-001 
-1.108995e-001 
-1.128126e-001 
-1.162171e-001 
-1.161548e-001 
-1.118049e-001 
-1.093045e-001 
-1.125527e-001 
-1.152396e-001 
-1.135487e-001 
-1.031591e-001 
-6.604431e-002 
-3.593634e-002 
-3.887915e-002 
-7.072056e-002 
-1.342559e-001 
-1.932527e-001 
-2.166294e-001 
-2.161402e-001 
-1.850923e-001 
-1.495279e-001 
-1.734578e-001 
-2.199209e-001 
-2.640521e-001 
-2.896569e-001 
-2.585306e-001 
-2.045622e-001 
-1.692805e-001 
-1.541280e-001 
-1.732485e-001 
-2.062325e-001 
-2.060863e-001 
-1.719888e-001 
-1.040850e-001 
-2.865098e-002 
2.105636e-002 
4.613502e-002 
5.499532e-002 
5.500922e-002 
5.636919e-002 
6.178430e-002 
6.881872e-002 
7.265228e-002 
7.648343e-002 
8.396555e-002 
9.190603e-002 
9.688500e-002 
1.043370e-001 
1.178471e-001 
1.323665e-001 
1.449171e-001 
1.568243e-001 
1.681048e-001 
1.762853e-001 
1.802626e-001 
1.822769e-001 
1.867452e-001 
1.897185e-001 
1.872482e-001 
1.804383e-001 
1.726929e-001 
1.630302e-001 
1.504620e-001 
1.356924e-001 
1.236853e-001 
1.129165e-001 
9.683566e-002 
7.736884e-002 
6.044055e-002 
4.625435e-002 
3.178578e-002 
1.714236e-002 
7.020437e-003 
2.989624e-003 
-3.354601e-003 
-1.256047e-002 
-1.773777e-002 
-1.954424e-002 
-2.426896e-002 
-3.179031e-002 
-3.787016e-002 
-4.148600e-002 
-4.793383e-002 
-5.567501e-002 
-5.770836e-002 
-5.477423e-002 
-5.734824e-002 
-6.540125e-002 
-7.135614e-002 
-7.706918e-002 
-8.588952e-002 
-9.458726e-002 
-9.740220e-002 
-9.673304e-002 
-1.014489e-001 
-1.140484e-001 
-1.204483e-001 
-1.226035e-001 
-1.292118e-001 
-1.341149e-001 
-1.350808e-001 
-1.352138e-001 
-1.382134e-001 
-1.417508e-001 
-1.318296e-001 
-8.952901e-002 
-5.652955e-002 
-5.864261e-002 
-9.179767e-002 
-1.498290e-001 
-1.973377e-001 
-2.142744e-001 
-2.064203e-001 
-1.709727e-001 
-1.369304e-001 
-1.627102e-001 
-2.157923e-001 
-2.655933e-001 
-2.826040e-001 
-2.476317e-001 
-2.004943e-001 
-1.731920e-001 
-1.691875e-001 
-1.973281e-001 
-2.342658e-001 
-2.389119e-001 
-2.079170e-001 
-1.420305e-001 
-7.381830e-002 
-3.322228e-002 
-1.588450e-002 
-8.344527e-003 
-2.610090e-004 
8.807129e-003 
1.688888e-002 
2.880803e-002 
4.286538e-002 
5.285165e-002 
6.144625e-002 
7.334630e-002 
8.718296e-002 
1.019317e-001 
1.156926e-001 
1.301012e-001 
1.474565e-001 
1.611440e-001 
1.694012e-001 
1.780079e-001 
1.876330e-001 
1.939207e-001 
1.971220e-001 
1.970852e-001 
1.962126e-001 
1.936136e-001 
1.846491e-001 
1.740925e-001 
1.665361e-001 
1.586373e-001 
1.472910e-001 
1.366669e-001 
1.284314e-001 
1.197240e-001 
1.078690e-001 
9.664314e-002 
9.055524e-002 
8.696820e-002 
8.204996e-002 
7.822106e-002 
7.999205e-002 
8.363638e-002 
8.294318e-002 
8.158632e-002 
8.304842e-002 
8.341053e-002 
8.177672e-002 
8.321292e-002 
8.925083e-002 
9.419978e-002 
9.339223e-002 
8.734980e-002 
8.091774e-002 
7.412463e-002 
6.533315e-002 
5.960669e-002 
5.840042e-002 
5.404847e-002 
4.253254e-002 
3.028886e-002 
1.963727e-002 
1.188771e-002 
7.449815e-003 
2.691768e-003 
-1.186429e-003 
-4.930721e-003 
-1.129011e-002 
-1.546787e-002 
4.918619e-004 
4.353190e-002 
6.039793e-002 
3.454502e-002 
-2.325963e-002 
-9.226962e-002 
-1.350416e-001 
-1.469639e-001 
-1.336857e-001 
-8.900113e-002 
-6.991144e-002 
-1.232858e-001 
-1.805351e-001 
-2.188197e-001 
-2.117996e-001 
-1.595999e-001 
-1.097902e-001 
-8.319749e-002 
-8.370240e-002 
-1.193195e-001 
-1.437388e-001 
-1.186165e-001 
-6.176205e-002 
1.901199e-002 
8.896262e-002 
1.281856e-001 
1.427652e-001 
1.483844e-001 
1.563806e-001 
1.680653e-001 
1.782287e-001 
1.854486e-001 
1.954947e-001 
2.083239e-001 
2.172436e-001 
2.258762e-001 
2.394703e-001 
2.534822e-001 
2.647283e-001 
2.732790e-001 
2.824938e-001 
2.911587e-001 
2.934055e-001 
2.911289e-001 
2.908483e-001 
2.894271e-001 
2.801546e-001 
2.682892e-001 
2.570877e-001 
2.440255e-001 
2.252585e-001 
2.054956e-001 
1.899503e-001 
1.754461e-001 
1.565068e-001 
1.359173e-001 
1.200827e-001 
1.052473e-001 
8.938535e-002 
7.467348e-002 
6.766919e-002 
6.422760e-002 
5.823036e-002 
5.297721e-002 
5.170704e-002 
5.233957e-002 
5.122281e-002 
4.968780e-002 
5.060883e-002 
5.317285e-002 
5.017840e-002 
4.351175e-002 
3.859624e-002 
3.673932e-002 
3.877228e-002 
3.987338e-002 
3.792678e-002 
3.547909e-002 
2.777781e-002 
1.561338e-002 
6.247932e-003 
4.883130e-004 
-8.781186e-004 
-2.986546e-003 
-1.225401e-002 
-2.210316e-002 
-3.138586e-002 
-4.230644e-002 
-4.776932e-002 
-4.930833e-002 
-5.258867e-002 
-5.714807e-002 
-6.048118e-002 
-5.875863e-002 
-4.060927e-002 
-1.914049e-002 
-3.651771e-002 
-8.746440e-002 
-1.611789e-001 
-2.393278e-001 
-2.718482e-001 
-2.644456e-001 
-2.408195e-001 
-2.104590e-001 
-2.250930e-001 
-2.866079e-001 
-3.298104e-001 
-3.508501e-001 
-3.222924e-001 
-2.459939e-001 
-1.969625e-001 
-1.841748e-001 
-1.936550e-001 
-2.161482e-001 
-2.079251e-001 
-1.535954e-001 
-7.462248e-002 
2.006774e-002 
8.674007e-002 
1.102027e-001 
1.203629e-001 
1.288596e-001 
1.379271e-001 
1.485902e-001 
1.618493e-001 
1.753531e-001 
1.891499e-001 
2.013364e-001 
2.159949e-001 
2.336847e-001 
2.480768e-001 
2.620326e-001 
2.777771e-001 
2.913895e-001 
3.025787e-001 
3.100247e-001 
3.147020e-001 
3.177076e-001 
3.146503e-001 
3.063503e-001 
2.972575e-001 
2.854441e-001 
2.685137e-001 
2.483243e-001 
2.275040e-001 
2.065111e-001 
1.831496e-001 
1.588314e-001 
1.358332e-001 
1.145970e-001 
9.145668e-002 
6.812598e-002 
4.992560e-002 
3.612205e-002 
2.330982e-002 
1.188893e-002 
4.402357e-003 
6.268289e-004 
-2.489422e-003 
-6.146502e-003 
-5.852727e-003 
-3.545957e-003 
-2.968427e-003 
-5.621215e-003 
-8.685379e-003 
-9.914371e-003 
-1.237782e-002 
-1.689827e-002 
-2.156460e-002 
-2.623194e-002 
-3.170138e-002 
-3.383335e-002 
-3.279984e-002 
-3.270387e-002 
-3.509786e-002 
-4.072836e-002 
-4.804920e-002 
-5.443070e-002 
-5.997182e-002 
-6.289899e-002 
-6.069572e-002 
-6.326296e-002 
-7.212889e-002 
-8.022690e-002 
-8.809689e-002 
-9.242089e-002 
-9.303669e-002 
-9.531475e-002 
-9.673483e-002 
-9.764787e-002 
-9.885320e-002 
-9.473469e-002 
-6.498102e-002 
-6.156155e-002 
-9.868616e-002 
-1.515768e-001 
-2.251641e-001 
-2.720848e-001 
-2.738215e-001 
-2.586277e-001 
-2.248524e-001 
-2.036407e-001 
-2.576835e-001 
-3.012038e-001 
-3.215376e-001 
-3.205375e-001 
-2.575670e-001 
-1.943166e-001 
-1.683142e-001 
-1.632962e-001 
-1.839187e-001 
-1.960577e-001 
-1.519787e-001 
-8.883455e-002 
-6.748282e-003 
7.036716e-002 
1.076390e-001 
1.205594e-001 
1.249226e-001 
1.324563e-001 
1.446446e-001 
1.576604e-001 
1.666733e-001 
1.760501e-001 
1.899000e-001 
2.034028e-001 
2.135357e-001 
2.237039e-001 
2.385047e-001 
2.539109e-001 
2.647722e-001 
2.745855e-001 
2.857929e-001 
2.946611e-001 
2.972095e-001 
2.947970e-001 
2.943872e-001 
2.932573e-001 
2.835870e-001 
2.698209e-001 
2.571272e-001 
2.430276e-001 
2.257948e-001 
2.058418e-001 
1.879772e-001 
1.725465e-001 
1.520640e-001 
1.299777e-001 
1.122825e-001 
9.740776e-002 
8.267932e-002 
6.823161e-002 
5.681384e-002 
4.982324e-002 
4.274540e-002 
3.618494e-002 
3.472022e-002 
3.597166e-002 
3.557743e-002 
3.223705e-002 
2.968265e-002 
2.808865e-002 
2.451918e-002 
1.873324e-002 
1.420317e-002 
1.072926e-002 
4.954018e-003 
-2.910354e-003 
-8.784480e-003 
-1.300609e-002 
-2.012371e-002 
-2.834129e-002 
-3.401455e-002 
-3.747650e-002 
-4.289241e-002 
-4.946557e-002 
-5.385884e-002 
-5.701329e-002 
-5.817551e-002 
-5.664752e-002 
-5.398483e-002 
-5.035760e-002 
-4.993265e-002 
-5.302323e-002 
-5.453857e-002 
-5.585301e-002 
-5.676367e-002 
-5.371336e-002 
-5.338744e-002 
-5.675980e-002 
-6.036518e-002 
-6.595403e-002 
-6.880940e-002 
-6.850076e-002 
-6.961621e-002 
-7.020878e-002 
-6.514212e-002 
-6.057582e-002 
-3.553957e-002 
-2.332437e-002 
-4.998420e-002 
-9.410206e-002 
-1.658542e-001 
-2.370302e-001 
-2.607049e-001 
-2.529213e-001 
-2.245861e-001 
-1.946628e-001 
-2.283536e-001 
-2.721939e-001 
-3.008237e-001 
-3.237187e-001 
-2.864194e-001 
-2.127012e-001 
-1.696180e-001 
-1.537854e-001 
-1.658753e-001 
-1.832837e-001 
-1.582187e-001 
-1.079046e-001 
-2.989528e-002 
6.391185e-002 
1.228991e-001 
1.451014e-001 
1.556292e-001 
1.628319e-001 
1.698022e-001 
1.778553e-001 
1.899674e-001 
2.029289e-001 
2.129966e-001 
2.221006e-001 
2.366951e-001 
2.526986e-001 
2.645632e-001 
2.764131e-001 
2.921234e-001 
3.077207e-001 
3.194225e-001 
3.292709e-001 
3.398323e-001 
3.488489e-001 
3.504049e-001 
3.461572e-001 
3.421226e-001 
3.362805e-001 
3.241911e-001 
3.091806e-001 
2.943537e-001 
2.777388e-001 
2.563746e-001 
2.315484e-001 
2.088735e-001 
1.892962e-001 
1.670931e-001 
1.440837e-001 
1.251937e-001 
1.093533e-001 
9.252146e-002 
7.594573e-002 
6.453408e-002 
5.818558e-002 
5.246802e-002 
4.651680e-002 
4.455693e-002 
4.462133e-002 
4.230925e-002 
3.733092e-002 
3.351713e-002 
3.173428e-002 
2.707426e-002 
1.995316e-002 
1.503763e-002 
1.073810e-002 
2.061072e-003 
-7.524196e-003 
-1.538184e-002 
-2.179141e-002 
-2.877572e-002 
-3.795484e-002 
-4.355369e-002 
-4.630540e-002 
-5.325103e-002 
-6.075944e-002 
-6.429504e-002 
-6.763870e-002 
-7.059896e-002 
-6.930063e-002 
-6.298485e-002 
-5.605766e-002 
-5.403423e-002 
-5.604825e-002 
-5.623224e-002 
-5.640106e-002 
-5.816514e-002 
-5.639371e-002 
-4.924651e-002 
-4.744825e-002 
-5.438318e-002 
-6.154897e-002 
-6.647834e-002 
-6.905058e-002 
-7.148618e-002 
-7.238660e-002 
-7.094217e-002 
-6.978297e-002 
-7.299416e-002 
-6.283019e-002 
-3.789559e-002 
-4.663997e-002 
-9.033485e-002 
-1.546676e-001 
-2.285286e-001 
-2.673515e-001 
-2.682205e-001 
-2.497434e-001 
-2.145223e-001 
-2.153586e-001 
-2.696719e-001 
-3.113197e-001 
-3.355087e-001 
-3.193344e-001 
-2.517656e-001 
-1.983761e-001 
-1.769996e-001 
-1.801929e-001 
-2.033691e-001 
-2.025113e-001 
-1.562044e-001 
-8.623123e-002 
1.256182e-003 
7.016890e-002 
1.014349e-001 
1.131870e-001 
1.173117e-001 
1.239086e-001 
1.343509e-001 
1.476616e-001 
1.580271e-001 
1.672214e-001 
1.802178e-001 
1.956390e-001 
2.086318e-001 
2.197805e-001 
2.341420e-001 
2.513562e-001 
2.661832e-001 
2.774754e-001 
2.899483e-001 
3.026933e-001 
3.105665e-001 
3.120882e-001 
3.135426e-001 
3.129174e-001 
3.052433e-001 
2.935629e-001 
2.808830e-001 
2.673016e-001 
2.499860e-001 
2.285227e-001 
2.095150e-001 
1.914123e-001 
1.670446e-001 
1.420681e-001 
1.214952e-001 
1.017181e-001 
8.121137e-002 
6.199524e-002 
4.752217e-002 
3.718002e-002 
2.455342e-002 
1.258218e-002 
7.723257e-003 
6.128232e-003 
1.486817e-003 
-3.712637e-003 
-5.957615e-003 
-8.351767e-003 
-1.542013e-002 
-2.450154e-002 
-3.030222e-002 
-3.425405e-002 
-4.245724e-002 
-5.282331e-002 
-5.935660e-002 
-6.522112e-002 
-7.531725e-002 
-8.642017e-002 
-9.327625e-002 
-9.753655e-002 
-1.044897e-001 
-1.127493e-001 
-1.158303e-001 
-1.182349e-001 
-1.248708e-001 
-1.313780e-001 
-1.294981e-001 
-1.205591e-001 
-1.135453e-001 
-1.121358e-001 
-1.089173e-001 
-1.051451e-001 
-1.086896e-001 
-1.129895e-001 
-1.108026e-001 
-1.027777e-001 
-9.855643e-002 
-1.038390e-001 
-1.100777e-001 
-1.116111e-001 
-1.165328e-001 
-1.226717e-001 
-1.230687e-001 
-1.214318e-001 
-1.232222e-001 
-1.267453e-001 
-1.278864e-001 
-1.059070e-001 
-8.579279e-002 
-9.995126e-002 
-1.349173e-001 
-1.974480e-001 
-2.710317e-001 
-3.058916e-001 
-3.027122e-001 
-2.762222e-001 
-2.438759e-001 
-2.636018e-001 
-3.064932e-001 
-3.424389e-001 
-3.778438e-001 
-3.597715e-001 
-2.898332e-001 
-2.386830e-001 
-2.230226e-001 
-2.380483e-001 
-2.621359e-001 
-2.520363e-001 
-2.158450e-001 
-1.523027e-001 
-6.250811e-002 
4.526629e-003 
2.854370e-002 
3.214013e-002 
3.538551e-002 
4.470993e-002 
5.286025e-002 
5.928453e-002 
7.006820e-002 
8.288754e-002 
9.233435e-002 
1.007274e-001 
1.134207e-001 
1.294772e-001 
1.433688e-001 
1.547701e-001 
1.699927e-001 
1.860498e-001 
1.960221e-001 
2.017822e-001 
2.072726e-001 
2.116327e-001 
2.093364e-001 
2.016004e-001 
1.954123e-001 
1.887114e-001 
1.749656e-001 
1.570646e-001 
1.399092e-001 
1.224918e-001 
1.011521e-001 
7.745959e-002 
5.792347e-002 
4.051864e-002 
1.963225e-002 
-2.600272e-003 
-1.957281e-002 
-3.217838e-002 
-4.509520e-002 
-5.725975e-002 
-6.330881e-002 
-6.443376e-002 
-6.739588e-002 
-7.262339e-002 
-7.512342e-002 
-7.501024e-002 
-7.818252e-002 
-8.440199e-002 
-8.922157e-002 
-9.035970e-002 
-9.312546e-002 
-9.979031e-002 
-1.069526e-001 
-1.119996e-001 
-1.180658e-001 
-1.246445e-001 
-1.251814e-001 
-1.221006e-001 
-1.218595e-001 
-1.253307e-001 
-1.304369e-001 
-1.350343e-001 
-1.387275e-001 
-1.428749e-001 
-1.420072e-001 
-1.370659e-001 
-1.393046e-001 
-1.465855e-001 
-1.508898e-001 
-1.533395e-001 
-1.548933e-001 
-1.564405e-001 
-1.558472e-001 
-1.516705e-001 
-1.491787e-001 
-1.489404e-001 
-1.232865e-001 
-8.992473e-002 
-8.709984e-002 
-1.209552e-001 
-1.841255e-001 
-2.383204e-001 
-2.594731e-001 
-2.601679e-001 
-2.354178e-001 
-1.955783e-001 
-2.040125e-001 
-2.521759e-001 
-3.037771e-001 
-3.269183e-001 
-2.926381e-001 
-2.382058e-001 
-2.021613e-001 
-1.849892e-001 
-1.991591e-001 
-2.303331e-001 
-2.337748e-001 
-2.006107e-001 
-1.333885e-001 
-5.763470e-002 
-6.918596e-003 
1.802353e-002 
2.508443e-002 
2.789198e-002 
3.646434e-002 
4.513768e-002 
5.139498e-002 
5.767177e-002 
6.676376e-002 
7.631124e-002 
8.302325e-002 
8.945891e-002 
1.007751e-001 
1.124147e-001 
1.218890e-001 
1.326410e-001 
1.460236e-001 
1.577264e-001 
1.638388e-001 
1.677970e-001 
1.741489e-001 
1.776957e-001 
1.753519e-001 
1.726852e-001 
1.713038e-001 
1.676042e-001 
1.586243e-001 
1.470519e-001 
1.387584e-001 
1.315367e-001 
1.188440e-001 
1.057173e-001 
9.707424e-002 
8.865620e-002 
7.659536e-002 
6.334844e-002 
5.406033e-002 
4.970993e-002 
4.342766e-002 
3.635008e-002 
3.431256e-002 
3.461412e-002 
3.178619e-002 
2.708092e-002 
2.371719e-002 
2.301157e-002 
1.966010e-002 
1.173227e-002 
5.328676e-003 
8.283167e-004 
-5.945401e-003 
-1.515278e-002 
-2.295522e-002 
-2.823775e-002 
-2.870035e-002 
-2.804054e-002 
-2.917096e-002 
-2.912177e-002 
-3.131800e-002 
-3.753648e-002 
-4.286371e-002 
-4.590435e-002 
-4.580141e-002 
-4.171415e-002 
-4.317351e-002 
-4.930926e-002 
-5.487868e-002 
-6.222972e-002 
-6.581693e-002 
-6.449911e-002 
-6.386619e-002 
-6.407654e-002 
-6.273990e-002 
-6.239188e-002 
-4.269828e-002 
-1.850553e-002 
-2.599425e-002 
-5.779366e-002 
-1.194020e-001 
-1.930019e-001 
-2.255092e-001 
-2.217350e-001 
-1.979854e-001 
-1.628881e-001 
-1.739954e-001 
-2.205303e-001 
-2.607405e-001 
-2.942662e-001 
-2.735756e-001 
-2.036355e-001 
-1.575038e-001 
-1.428802e-001 
-1.525517e-001 
-1.768252e-001 
-1.746152e-001 
-1.388772e-001 
-7.260990e-002 
1.565659e-002 
7.808973e-002 
1.028890e-001 
1.142984e-001 
1.233364e-001 
1.322477e-001 
1.398023e-001 
1.513767e-001 
1.647841e-001 
1.754967e-001 
1.867948e-001 
2.019209e-001 
2.173234e-001 
2.301478e-001 
2.417650e-001 
2.562626e-001 
2.724887e-001 
2.836986e-001 
2.923545e-001 
3.008405e-001 
3.052946e-001 
3.031019e-001 
2.970598e-001 
2.906804e-001 
2.827766e-001 
2.688723e-001 
2.521939e-001 
2.370048e-001 
2.193401e-001 
1.984025e-001 
1.768015e-001 
1.573061e-001 
1.390238e-001 
1.189572e-001 
9.892666e-002 
8.296549e-002 
6.890827e-002 
5.429071e-002 
4.193008e-002 
3.441429e-002 
3.104442e-002 
2.791523e-002 
2.470912e-002 
2.395615e-002 
2.397013e-002 
1.956270e-002 
1.349411e-002 
9.932679e-003 
7.321819e-003 
2.317429e-003 
-4.524383e-003 
-1.044121e-002 
-1.487898e-002 
-2.255571e-002 
-3.157390e-002 
-3.662800e-002 
-4.190571e-002 
-4.893479e-002 
-5.119146e-002 
-4.679495e-002 
-4.380646e-002 
-4.556399e-002 
-5.000141e-002 
-5.176596e-002 
-5.333427e-002 
-5.773403e-002 
-5.876296e-002 
-5.212860e-002 
-4.999684e-002 
-5.860920e-002 
-6.741560e-002 
-7.205398e-002 
-7.347147e-002 
-7.653065e-002 
-8.015328e-002 
-7.943660e-002 
-7.642725e-002 
-7.921250e-002 
-6.263648e-002 
-4.430126e-002 
-5.894329e-002 
-1.006125e-001 
-1.743133e-001 
-2.421382e-001 
-2.633672e-001 
-2.574296e-001 
-2.316787e-001 
-1.964932e-001 
-2.139879e-001 
-2.587439e-001 
-2.992564e-001 
-3.246110e-001 
-2.835312e-001 
-2.111143e-001 
-1.681950e-001 
-1.511558e-001 
-1.588720e-001 
-1.778158e-001 
-1.657489e-001 
-1.228071e-001 
-4.609567e-002 
4.349012e-002 
9.796274e-002 
1.189410e-001 
1.268127e-001 
1.329163e-001 
1.386123e-001 
1.436808e-001 
1.533583e-001 
1.656423e-001 
1.754155e-001 
1.851717e-001 
1.981006e-001 
2.116550e-001 
2.224788e-001 
2.314855e-001 
2.452328e-001 
2.629452e-001 
2.785255e-001 
2.906323e-001 
3.025633e-001 
3.137959e-001 
3.179880e-001 
3.160227e-001 
3.136383e-001 
3.107910e-001 
3.023317e-001 
2.905831e-001 
2.779498e-001 
2.631084e-001 
2.439789e-001 
2.230040e-001 
2.033661e-001 
1.832477e-001 
1.620567e-001 
1.417327e-001 
1.244492e-001 
1.063309e-001 
8.691751e-002 
7.215514e-002 
6.305481e-002 
5.340787e-002 
4.500128e-002 
4.150824e-002 
3.986319e-002 
3.661630e-002 
3.190314e-002 
2.822522e-002 
2.558385e-002 
2.094939e-002 
1.354509e-002 
8.755573e-003 
4.630200e-003 
-2.900782e-003 
-9.586827e-003 
-1.468732e-002 
-2.231314e-002 
-2.989175e-002 
-3.585660e-002 
-4.112400e-002 
-4.461713e-002 
-5.069290e-002 
-5.626378e-002 
-5.808031e-002 
-5.806163e-002 
-5.507935e-002 
-4.954710e-002 
-4.575213e-002 
-4.498851e-002 
-4.732756e-002 
-5.077650e-002 
-5.033369e-002 
-4.853120e-002 
-4.499079e-002 
-4.379915e-002 
-4.686036e-002 
-5.127254e-002 
-5.702775e-002 
-6.100735e-002 
-5.998740e-002 
-5.781384e-002 
-5.888807e-002 
-6.195961e-002 
-6.252592e-002 
-5.916043e-002 
-3.841136e-002 
-1.722768e-002 
-2.363810e-002 
-5.367542e-002 
-1.111413e-001 
-1.899603e-001 
-2.370002e-001 
-2.419522e-001 
-2.216794e-001 
-1.901228e-001 
-2.036409e-001 
-2.444043e-001 
-2.773335e-001 
-3.137073e-001 
-3.156865e-001 
-2.539583e-001 
-1.954862e-001 
-1.714729e-001 
-1.801329e-001 
-2.033704e-001 
-1.969233e-001 
-1.631996e-001 
-1.066295e-001 
-2.031135e-002 
5.961694e-002 
9.583237e-002 
1.049193e-001 
1.099731e-001 
1.187737e-001 
1.253537e-001 
1.309167e-001 
1.414808e-001 
1.547611e-001 
1.648741e-001 
1.733657e-001 
1.869572e-001 
2.031998e-001 
2.157168e-001 
2.263576e-001 
2.416089e-001 
2.589879e-001 
2.702180e-001 
2.776164e-001 
2.867048e-001 
2.924951e-001 
2.908317e-001 
2.858516e-001 
2.812860e-001 
2.753788e-001 
2.632525e-001 
2.477279e-001 
2.338002e-001 
2.167398e-001 
1.947295e-001 
1.750926e-001 
1.581449e-001 
1.388301e-001 
1.178864e-001 
9.965006e-002 
8.511699e-002 
7.001410e-002 
5.444947e-002 
4.495029e-002 
4.099696e-002 
3.412883e-002 
2.633115e-002 
2.403341e-002 
2.441130e-002 
2.100087e-002 
1.530095e-002 
1.166953e-002 
9.496171e-003 
4.599313e-003 
-5.002237e-003 
-1.186171e-002 
-1.635123e-002 
-2.451486e-002 
-3.567718e-002 
-4.423086e-002 
-5.028183e-002 
-5.706713e-002 
-6.678408e-002 
-7.628767e-002 
-8.004319e-002 
-7.955120e-002 
-7.847624e-002 
-8.025224e-002 
-8.098195e-002 
-8.366861e-002 
-9.046294e-002 
-9.649292e-002 
-9.864766e-002 
-9.665587e-002 
-9.263483e-002 
-9.491041e-002 
-1.021646e-001 
-1.067931e-001 
-1.124764e-001 
-1.157962e-001 
-1.148828e-001 
-1.153736e-001 
-1.161011e-001 
-1.140568e-001 
-1.109595e-001 
-8.302396e-002 
-7.607009e-002 
-1.065937e-001 
-1.548427e-001 
-2.295484e-001 
-2.845886e-001 
-2.943335e-001 
-2.817647e-001 
-2.487904e-001 
-2.263655e-001 
-2.719491e-001 
-3.142416e-001 
-3.463122e-001 
-3.545457e-001 
-2.959803e-001 
-2.319556e-001 
-2.017844e-001 
-1.951445e-001 
-2.140686e-001 
-2.278076e-001 
-1.972407e-001 
-1.453880e-001 
-6.171136e-002 
1.905475e-002 
5.723678e-002 
7.133773e-002 
7.826693e-002 
8.554342e-002 
9.171301e-002 
9.775370e-002 
1.066331e-001 
1.166777e-001 
1.234062e-001 
1.308379e-001 
1.431811e-001 
1.539258e-001 
1.619439e-001 
1.716818e-001 
1.843033e-001 
1.976644e-001 
2.073994e-001 
2.153787e-001 
2.242968e-001 
2.291783e-001 
2.271796e-001 
2.227638e-001 
2.188641e-001 
2.134361e-001 
2.025612e-001 
1.884820e-001 
1.753768e-001 
1.601695e-001 
1.401288e-001 
1.201180e-001 
1.028726e-001 
8.704136e-002 
6.770909e-002 
4.716416e-002 
3.006839e-002 
1.544673e-002 
-1.176883e-004 
-1.340568e-002 
-2.067730e-002 
-2.624215e-002 
-3.298495e-002 
-3.981643e-002 
-4.263331e-002 
-4.511850e-002 
-5.106328e-002 
-5.790592e-002 
-6.180213e-002 
-6.606898e-002 
-7.473644e-002 
-8.364106e-002 
-8.893457e-002 
-9.407923e-002 
-1.049100e-001 
-1.169790e-001 
-1.239601e-001 
-1.252836e-001 
-1.250508e-001 
-1.268860e-001 
-1.277315e-001 
-1.284450e-001 
-1.349621e-001 
-1.441682e-001 
-1.475156e-001 
-1.449501e-001 
-1.408792e-001 
-1.419744e-001 
-1.480251e-001 
-1.522925e-001 
-1.565367e-001 
-1.625080e-001 
-1.637327e-001 
-1.599750e-001 
-1.574765e-001 
-1.594170e-001 
-1.613449e-001 
-1.592701e-001 
-1.474464e-001 
-1.134391e-001 
-9.199573e-002 
-1.018141e-001 
-1.500683e-001 
-2.205260e-001 
-2.620096e-001 
-2.652166e-001 
-2.512250e-001 
-2.183806e-001 
-1.946958e-001 
-2.244074e-001 
-2.759958e-001 
-3.278262e-001 
-3.269478e-001 
-2.687329e-001 
-2.162076e-001 
-1.956082e-001 
-1.984748e-001 
-2.224200e-001 
-2.438426e-001 
-2.341469e-001 
-1.870465e-001 
-1.049927e-001 
-3.849958e-002 
-9.307083e-003 
-2.832817e-003 
2.059856e-004 
7.135230e-003 
1.192948e-002 
1.800998e-002 
2.658567e-002 
3.226830e-002 
3.765978e-002 
4.673033e-002 
5.828910e-002 
7.009321e-002 
8.038364e-002 
9.274991e-002 
1.080547e-001 
1.191471e-001 
1.266902e-001 
1.360831e-001 
1.442816e-001 
1.467624e-001 
1.465388e-001 
1.468601e-001 
1.463271e-001 
1.412322e-001 
1.310334e-001 
1.214417e-001 
1.126428e-001 
9.998983e-002 
8.610205e-002 
7.509469e-002 
6.389757e-002 
4.954815e-002 
3.414510e-002 
2.137647e-002 
1.144285e-002 
7.458396e-004 
-8.167516e-003 
-1.251371e-002 
-1.510541e-002 
-1.937143e-002 
-2.369591e-002 
-2.519130e-002 
-2.774135e-002 
-3.461532e-002 
-3.762638e-002 
-3.227954e-002 
-2.778717e-002 
-3.036335e-002 
-3.522430e-002 
-3.963611e-002 
-4.654726e-002 
-5.754275e-002 
-6.474641e-002 
-6.235235e-002 
-6.098423e-002 
-7.105407e-002 
-8.349651e-002 
-8.974715e-002 
-9.474789e-002 
-1.007402e-001 
-1.049428e-001 
-1.038940e-001 
-1.025358e-001 
-1.085673e-001 
-1.141061e-001 
-1.095455e-001 
-7.627270e-002 
-3.994211e-002 
-3.826619e-002 
-6.597750e-002 
-1.272617e-001 
-1.921424e-001 
-2.217463e-001 
-2.220538e-001 
-1.925062e-001 
-1.492995e-001 
-1.623426e-001 
-2.103964e-001 
-2.592697e-001 
-2.953677e-001 
-2.674896e-001 
-2.059109e-001 
-1.623986e-001 
-1.426025e-001 
-1.600038e-001 
-1.945241e-001 
-1.958529e-001 
-1.659904e-001 
-1.004408e-001 
-1.354951e-002 
4.637090e-002 
7.326144e-002 
8.073743e-002 
8.509464e-002 
9.619595e-002 
1.057628e-001 
1.125519e-001 
1.224399e-001 
1.352117e-001 
1.442461e-001 
1.525081e-001 
1.641906e-001 
1.771890e-001 
1.884651e-001 
1.984131e-001 
2.113088e-001 
2.249911e-001 
2.335505e-001 
2.373954e-001 
2.431187e-001 
2.464890e-001 
2.440980e-001 
2.394035e-001 
2.360328e-001 
2.322489e-001 
2.228774e-001 
2.097222e-001 
1.989101e-001 
1.902985e-001 
1.780461e-001 
1.640636e-001 
1.528965e-001 
1.437254e-001 
1.322458e-001 
1.179180e-001 
1.081273e-001 
1.026689e-001 
9.670049e-002 
9.013540e-002 
8.672093e-002 
8.669690e-002 
8.578342e-002 
8.232657e-002 
7.949788e-002 
7.779545e-002 
7.180727e-002 
6.797751e-002 
7.054376e-002 
7.221259e-002 
6.833531e-002 
6.130556e-002 
5.395574e-002 
4.657115e-002 
3.635525e-002 
2.806744e-002 
2.805987e-002 
2.605942e-002 
1.415346e-002 
1.282802e-004 
-9.477349e-003 
-1.592802e-002 
-2.159651e-002 
-2.800074e-002 
-3.129416e-002 
-3.321340e-002 
-3.619835e-002 
-3.909896e-002 
-1.811892e-002 
7.479802e-003 
-5.777148e-003 
-5.182238e-002 
-1.270203e-001 
-1.946416e-001 
-2.163218e-001 
-2.105287e-001 
-1.854525e-001 
-1.483967e-001 
-1.659114e-001 
-2.207072e-001 
-2.647953e-001 
-2.887906e-001 
-2.488807e-001 
-1.779850e-001 
-1.354761e-001 
-1.203153e-001 
-1.318295e-001 
-1.577167e-001 
-1.476395e-001 
-9.863955e-002 
-2.139124e-002 
6.809417e-002 
1.269734e-001 
1.506444e-001 
1.565291e-001 
1.615725e-001 
1.709191e-001 
1.830599e-001 
1.941902e-001 
2.039156e-001 
2.173543e-001 
2.314351e-001 
2.422372e-001 
2.531717e-001 
2.670276e-001 
2.815793e-001 
2.940499e-001 
3.040913e-001 
3.153466e-001 
3.238400e-001 
3.258502e-001 
3.247027e-001 
3.225331e-001 
3.192796e-001 
3.108124e-001 
2.973927e-001 
2.843428e-001 
2.704256e-001 
2.513088e-001 
2.303682e-001 
2.118511e-001 
1.947420e-001 
1.751354e-001 
1.533773e-001 
1.350581e-001 
1.195834e-001 
1.026490e-001 
8.664189e-002 
7.568030e-002 
6.910030e-002 
6.242293e-002 
5.596827e-002 
5.505292e-002 
5.674484e-002 
5.403069e-002 
4.896882e-002 
4.512327e-002 
4.132858e-002 
3.892892e-002 
3.994235e-002 
4.340299e-002 
4.500363e-002 
3.965622e-002 
2.905345e-002 
1.922579e-002 
1.104687e-002 
4.306646e-003 
2.121422e-003 
-2.584619e-004 
-9.324002e-003 
-2.244626e-002 
-3.607228e-002 
-4.786798e-002 
-5.425907e-002 
-5.659984e-002 
-5.936921e-002 
-6.354059e-002 
-6.844603e-002 
-7.014630e-002 
-6.127517e-002 
-3.214744e-002 
-3.024795e-002 
-6.523986e-002 
-1.227519e-001 
-1.991019e-001 
-2.410329e-001 
-2.388197e-001 
-2.220523e-001 
-1.895348e-001 
-1.782949e-001 
-2.317929e-001 
-2.787714e-001 
-3.087176e-001 
-3.011028e-001 
-2.330610e-001 
-1.780534e-001 
-1.611626e-001 
-1.638346e-001 
-1.882207e-001 
-1.993421e-001 
-1.619011e-001 
-9.833469e-002 
-1.287404e-002 
5.631761e-002 
8.519961e-002 
9.602958e-002 
1.007152e-001 
1.070395e-001 
1.161086e-001 
1.276944e-001 
1.376737e-001 
1.457542e-001 
1.573434e-001 
1.720947e-001 
1.841506e-001 
1.940033e-001 
2.076338e-001 
2.234925e-001 
2.365990e-001 
2.463077e-001 
2.560449e-001 
2.643203e-001 
2.659190e-001 
2.623365e-001 
2.601231e-001 
2.570456e-001 
2.480518e-001 
2.350014e-001 
2.218982e-001 
2.076725e-001 
1.904468e-001 
1.718137e-001 
1.563692e-001 
1.415354e-001 
1.230030e-001 
1.042970e-001 
8.960292e-002 
7.653466e-002 
6.289443e-002 
5.204369e-002 
4.508702e-002 
4.015086e-002 
3.459050e-002 
3.098124e-002 
3.036918e-002 
3.026461e-002 
2.640985e-002 
2.119720e-002 
1.810837e-002 
1.289983e-002 
3.373083e-003 
-4.759194e-003 
-4.580086e-003 
-1.397884e-003 
-5.040571e-003 
-1.364988e-002 
-1.942961e-002 
-2.546922e-002 
-3.683863e-002 
-4.836546e-002 
-4.989860e-002 
-4.636601e-002 
-5.357358e-002 
-6.906642e-002 
-7.873964e-002 
-8.337965e-002 
-9.034560e-002 
-9.712110e-002 
-9.804906e-002 
-9.629378e-002 
-1.016176e-001 
-1.090549e-001 
-1.078054e-001 
-7.550142e-002 
-6.592501e-002 
-9.704815e-002 
-1.449127e-001 
-2.196441e-001 
-2.782418e-001 
-2.913219e-001 
-2.782977e-001 
-2.423266e-001 
-2.168917e-001 
-2.647145e-001 
-3.091715e-001 
-3.430244e-001 
-3.596249e-001 
-3.048449e-001 
-2.362087e-001 
-2.032577e-001 
-1.999157e-001 
-2.263685e-001 
-2.459900e-001 
-2.161719e-001 
-1.675447e-001 
-8.894493e-002 
-7.275467e-003 
3.299193e-002 
4.177510e-002 
3.837411e-002 
4.120628e-002 
4.961720e-002 
5.594318e-002 
5.955105e-002 
6.609658e-002 
7.468530e-002 
8.222599e-002 
8.802952e-002 
9.649461e-002 
1.088303e-001 
1.199484e-001 
1.297056e-001 
1.422336e-001 
1.558888e-001 
1.658022e-001 
1.714693e-001 
1.752676e-001 
1.782180e-001 
1.766099e-001 
1.715991e-001 
1.671464e-001 
1.608026e-001 
1.496384e-001 
1.354667e-001 
1.211656e-001 
1.073333e-001 
9.084103e-002 
7.257276e-002 
5.828381e-002 
4.525613e-002 
2.798127e-002 
1.036386e-002 
-3.927264e-003 
-1.480319e-002 
-2.464349e-002 
-3.374900e-002 
-3.710734e-002 
-3.635063e-002 
-3.958024e-002 
-4.482583e-002 
-4.756689e-002 
-4.921814e-002 
-5.230910e-002 
-5.842013e-002 
-6.446897e-002 
-6.614383e-002 
-6.552324e-002 
-6.675562e-002 
-7.065217e-002 
-7.415986e-002 
-7.881908e-002 
-8.754160e-002 
-9.827207e-002 
-1.045602e-001 
-1.044136e-001 
-1.058666e-001 
-1.153321e-001 
-1.254926e-001 
-1.304949e-001 
-1.376140e-001 
-1.453139e-001 
-1.474413e-001 
-1.454007e-001 
-1.462883e-001 
-1.528682e-001 
-1.557930e-001 
-1.488176e-001 
-1.174954e-001 
-9.389796e-002 
-1.001471e-001 
-1.379214e-001 
-2.071996e-001 
-2.620874e-001 
-2.767473e-001 
-2.674455e-001 
-2.379088e-001 
-2.060513e-001 
-2.293585e-001 
-2.784830e-001 
-3.300361e-001 
-3.470602e-001 
-2.992407e-001 
-2.408092e-001 
-2.110878e-001 
-2.034656e-001 
-2.222570e-001 
-2.506112e-001 
-2.453972e-001 
-2.045509e-001 
-1.282212e-001 
-5.353490e-002 
-1.393784e-002 
1.396184e-003 
7.270400e-003 
9.983674e-003 
1.470014e-002 
2.349656e-002 
3.045469e-002 
3.311708e-002 
3.713933e-002 
4.563962e-002 
5.537102e-002 
6.279681e-002 
7.037399e-002 
8.280776e-002 
9.643562e-002 
1.055464e-001 
1.144311e-001 
1.283661e-001 
1.408684e-001 
1.454215e-001 
1.474310e-001 
1.505085e-001 
1.528787e-001 
1.503879e-001 
1.441025e-001 
1.405186e-001 
1.373932e-001 
1.268841e-001 
1.127998e-001 
1.019410e-001 
9.258028e-002 
8.083279e-002 
6.599920e-002 
5.393185e-002 
4.435995e-002 
3.260997e-002 
2.102168e-002 
1.306680e-002 
9.654232e-003 
8.120076e-003 
3.927855e-003 
9.281654e-004 
7.153450e-004 
-1.386785e-003 
4.307221e-004 
5.348768e-003 
6.404019e-003 
5.968508e-003 
1.360511e-003 
-6.534571e-003 
-1.262679e-002 
-1.982171e-002 
-2.464120e-002 
-2.481705e-002 
-3.081087e-002 
-4.228654e-002 
-5.294473e-002 
-6.202345e-002 
-6.787672e-002 
-7.349984e-002 
-7.856954e-002 
-8.032622e-002 
-8.356669e-002 
-9.004052e-002 
-9.329635e-002 
-8.317361e-002 
-4.051795e-002 
-1.501471e-002 
-3.098452e-002 
-7.583219e-002 
-1.447295e-001 
-1.990666e-001 
-2.166641e-001 
-2.075381e-001 
-1.671825e-001 
-1.350642e-001 
-1.752360e-001 
-2.294476e-001 
-2.741851e-001 
-2.867307e-001 
-2.406221e-001 
-1.797814e-001 
-1.444481e-001 
-1.382863e-001 
-1.674787e-001 
-1.957797e-001 
-1.799185e-001 
-1.336739e-001 
-5.502833e-002 
2.627883e-002 
7.480210e-002 
9.049582e-002 
9.354718e-002 
1.006737e-001 
1.112759e-001 
1.186432e-001 
1.241788e-001 
1.335900e-001 
1.441832e-001 
1.498757e-001 
1.543377e-001 
1.638821e-001 
1.752662e-001 
1.833194e-001 
1.910554e-001 
2.013998e-001 
2.120170e-001 
2.170411e-001 
2.182725e-001 
2.210389e-001 
2.237428e-001 
2.198389e-001 
2.136330e-001 
2.102540e-001 
2.051893e-001 
1.956029e-001 
1.829627e-001 
1.723209e-001 
1.630843e-001 
1.501603e-001 
1.352443e-001 
1.253928e-001 
1.162794e-001 
1.036268e-001 
9.035557e-002 
8.056464e-002 
7.439155e-002 
6.764044e-002 
6.174184e-002 
6.101457e-002 
6.212845e-002 
5.886619e-002 
5.396607e-002 
5.118123e-002 
4.904233e-002 
4.247592e-002 
3.406364e-002 
3.181632e-002 
3.555569e-002 
3.548165e-002 
2.889846e-002 
2.391207e-002 
1.889017e-002 
8.906438e-003 
-3.357445e-003 
-9.433326e-003 
-7.910150e-003 
-1.023838e-002 
-2.329921e-002 
-3.526451e-002 
-4.124868e-002 
-4.930289e-002 
-5.763433e-002 
-6.025499e-002 
-5.828389e-002 
-6.089232e-002 
-7.044182e-002 
-7.301011e-002 
-6.439818e-002 
-3.218192e-002 
-2.180435e-002 
-4.836855e-002 
-8.848341e-002 
-1.603789e-001 
-2.252552e-001 
-2.395011e-001 
-2.241101e-001 
-1.904212e-001 
-1.651977e-001 
-2.083789e-001 
-2.481216e-001 
-2.773910e-001 
-3.002269e-001 
-2.519279e-001 
-1.788548e-001 
-1.431730e-001 
-1.373149e-001 
-1.571632e-001 
-1.727878e-001 
-1.443166e-001 
-9.763390e-002 
-1.851611e-002 
7.079532e-002 
1.193295e-001 
1.346405e-001 
1.408085e-001 
1.503947e-001 
1.592282e-001 
1.655459e-001 
1.757449e-001 
1.886403e-001 
1.989706e-001 
2.081569e-001 
2.200798e-001 
2.334668e-001 
2.442349e-001 
2.534195e-001 
2.655250e-001 
2.796718e-001 
2.899432e-001 
2.953207e-001 
2.998593e-001 
3.025307e-001 
2.989300e-001 
2.919237e-001 
2.849650e-001 
2.775946e-001 
2.659958e-001 
2.488471e-001 
2.319124e-001 
2.153725e-001 
1.945040e-001 
1.741091e-001 
1.573654e-001 
1.410777e-001 
1.240681e-001 
1.050127e-001 
8.880617e-002 
7.698458e-002 
6.409801e-002 
5.339468e-002 
4.992322e-002 
4.815370e-002 
4.490795e-002 
4.152849e-002 
4.066709e-002 
4.138036e-002 
3.842603e-002 
3.338731e-002 
3.074247e-002 
2.859963e-002 
2.187239e-002 
1.380243e-002 
8.936513e-003 
4.714773e-003 
-3.076182e-003 
-1.119247e-002 
-1.765811e-002 
-2.344573e-002 
-3.108221e-002 
-3.716820e-002 
-3.330814e-002 
-2.761522e-002 
-2.970617e-002 
-3.301599e-002 
-3.375804e-002 
-3.645978e-002 
-4.083558e-002 
-4.354831e-002 
-3.766623e-002 
-3.033356e-002 
-3.613651e-002 
-4.698076e-002 
-5.094357e-002 
-5.291957e-002 
-5.792919e-002 
-6.157839e-002 
-6.032527e-002 
-5.877336e-002 
-6.133087e-002 
-6.469314e-002 
-4.084728e-002 
-2.090070e-002 
-4.034563e-002 
-8.099008e-002 
-1.224597e-001 
-1.887023e-001 
-2.425039e-001 
-2.516726e-001 
-2.262903e-001 
-1.912823e-001 
-2.171763e-001 
-2.642277e-001 
-2.777376e-001 
-2.898644e-001 
-3.088569e-001 
-2.591486e-001 
-1.948686e-001 
-1.662929e-001 
-1.770590e-001 
-2.020393e-001 
-1.862228e-001 
-1.403642e-001 
-9.054545e-002 
-2.007507e-002 
6.253533e-002 
1.027552e-001 
1.148613e-001 
1.165845e-001 
1.226223e-001 
1.334882e-001 
1.414643e-001 
1.501045e-001 
1.629579e-001 
1.747273e-001 
1.858176e-001 
1.971115e-001 
2.086791e-001 
2.244584e-001 
2.382651e-001 
2.498732e-001 
2.647982e-001 
2.767814e-001 
2.830183e-001 
2.878397e-001 
2.900839e-001 
2.904109e-001 
2.866605e-001 
2.776852e-001 
2.681561e-001 
2.568892e-001 
2.404978e-001 
2.229997e-001 
2.072007e-001 
1.907092e-001 
1.717258e-001 
1.511548e-001 
1.327553e-001 
1.149894e-001 
9.659058e-002 
7.917017e-002 
6.643337e-002 
5.668086e-002 
4.569820e-002 
3.657026e-002 
3.202272e-002 
2.975796e-002 
2.615112e-002 
2.303972e-002 
2.184262e-002 
1.986259e-002 
1.323529e-002 
5.515451e-003 
7.701682e-004 
-4.240865e-003 
-1.213906e-002 
-2.007897e-002 
-2.517777e-002 
-3.129557e-002 
-4.053570e-002 
-4.919218e-002 
-5.434352e-002 
-5.873006e-002 
-6.485766e-002 
-7.082963e-002 
-7.508097e-002 
-7.960162e-002 
-8.258037e-002 
-7.970602e-002 
-7.343687e-002 
-7.033173e-002 
-7.042536e-002 
-7.176590e-002 
-7.334852e-002 
-7.548891e-002 
-7.712194e-002 
-7.396934e-002 
-6.964608e-002 
-7.298852e-002 
-8.189221e-002 
-8.854280e-002 
-9.265709e-002 
-9.546832e-002 
-9.894689e-002 
-1.028219e-001 
-1.045431e-001 
-1.084007e-001 
-1.131725e-001 
-1.130049e-001 
-1.037586e-001 
-7.878255e-002 
-6.855203e-002 
-8.708079e-002 
-1.226502e-001 
-1.906999e-001 
-2.571479e-001 
-2.816786e-001 
-2.791820e-001 
-2.535254e-001 
-2.339238e-001 
-2.620208e-001 
-2.954915e-001 
-3.309731e-001 
-3.644312e-001 
-3.314044e-001 
-2.664446e-001 
-2.279401e-001 
-2.156985e-001 
-2.322000e-001 
-2.491990e-001 
-2.303937e-001 
-1.892123e-001 
-1.186620e-001 
-3.131466e-002 
2.665189e-002 
5.001449e-002 
5.490627e-002 
5.652371e-002 
6.432139e-002 
7.617225e-002 
8.539917e-002 
9.328130e-002 
1.057162e-001 
1.186204e-001 
1.284518e-001 
1.393868e-001 
1.536796e-001 
1.694113e-001 
1.836725e-001 
1.973357e-001 
2.112752e-001 
2.201755e-001 
2.235082e-001 
2.269890e-001 
2.288395e-001 
2.271561e-001 
2.214516e-001 
2.142407e-001 
2.057515e-001 
1.913446e-001 
1.734332e-001 
1.591882e-001 
1.457302e-001 
1.281696e-001 
1.096223e-001 
9.221331e-002 
7.624830e-002 
5.786746e-002 
3.907029e-002 
2.598437e-002 
1.709863e-002 
6.297629e-003 
-4.503335e-003 
-1.012321e-002 
-1.441584e-002 
-2.150725e-002 
-2.949747e-002 
-3.492165e-002 
-3.953727e-002 
-4.805948e-002 
-5.935964e-002 
-6.660189e-002 
-7.335167e-002 
-8.512985e-002 
-9.712754e-002 
-1.064904e-001 
-1.158409e-001 
-1.257292e-001 
-1.313886e-001 
-1.300216e-001 
-1.291042e-001 
-1.350184e-001 
-1.427479e-001 
-1.473161e-001 
-1.508649e-001 
-1.559042e-001 
-1.571880e-001 
-1.514265e-001 
-1.497380e-001 
-1.576434e-001 
-1.664083e-001 
-1.701439e-001 
-1.698182e-001 
-1.696392e-001 
-1.699393e-001 
-1.665162e-001 
-1.639611e-001 
-1.686741e-001 
-1.720525e-001 
-1.651941e-001 
-1.297522e-001 
-9.562062e-002 
-9.240915e-002 
-1.166941e-001 
-1.731507e-001 
-2.314680e-001 
-2.588612e-001 
-2.580801e-001 
-2.264166e-001 
-1.863553e-001 
-1.999121e-001 
-2.393372e-001 
-2.829451e-001 
-3.133822e-001 
-2.863751e-001 
-2.291700e-001 
-1.864545e-001 
-1.674495e-001 
-1.825383e-001 
-2.103081e-001 
-2.085516e-001 
-1.808683e-001 
-1.202435e-001 
-4.234756e-002 
1.292023e-002 
3.780516e-002 
4.439878e-002 
4.825548e-002 
5.515336e-002 
5.889894e-002 
6.059507e-002 
6.638616e-002 
7.457921e-002 
8.012193e-002 
8.487992e-002 
9.086660e-002 
9.876299e-002 
1.055783e-001 
1.118051e-001 
1.233382e-001 
1.362833e-001 
1.447066e-001 
1.510172e-001 
1.568472e-001 
1.595996e-001 
1.592936e-001 
1.554890e-001 
1.533338e-001 
1.518017e-001 
1.443401e-001 
1.344184e-001 
1.262835e-001 
1.159913e-001 
1.021546e-001 
8.774243e-002 
7.542132e-002 
6.529958e-002 
5.123462e-002 
3.515651e-002 
2.345983e-002 
1.379779e-002 
2.032341e-003 
-8.117871e-003 
-1.295309e-002 
-1.566239e-002 
-2.068353e-002 
-2.671188e-002 
-2.950990e-002 
-3.176803e-002 
-3.810006e-002 
-4.600473e-002 
-5.163435e-002 
-5.698027e-002 
-6.127702e-002 
-6.131696e-002 
-5.869876e-002 
-5.928975e-002 
-6.456787e-002 
-7.279575e-002 
-7.925571e-002 
-8.443939e-002 
-8.912751e-002 
-8.824866e-002 
-8.577879e-002 
-8.989044e-002 
-9.872119e-002 
-1.056317e-001 
-1.094375e-001 
-1.086560e-001 
-1.086207e-001 
-1.091455e-001 
-1.069286e-001 
-1.066218e-001 
-1.094148e-001 
-1.083868e-001 
-8.085594e-002 
-3.643350e-002 
-2.473622e-002 
-4.972227e-002 
-1.050401e-001 
-1.712109e-001 
-2.093043e-001 
-2.192664e-001 
-2.017307e-001 
-1.557853e-001 
-1.512133e-001 
-2.017256e-001 
-2.503304e-001 
-2.885966e-001 
-2.766245e-001 
-2.184249e-001 
-1.714321e-001 
-1.465644e-001 
-1.480769e-001 
-1.808346e-001 
-1.932459e-001 
-1.640849e-001 
-1.039618e-001 
-1.863886e-002 
5.002850e-002 
8.585467e-002 
1.013688e-001 
1.079024e-001 
1.152770e-001 
1.262559e-001 
1.355804e-001 
1.433448e-001 
1.530315e-001 
1.649101e-001 
1.748791e-001 
1.826978e-001 
1.937671e-001 
2.082994e-001 
2.206580e-001 
2.306637e-001 
2.424971e-001 
2.550753e-001 
2.635537e-001 
2.671930e-001 
2.700972e-001 
2.725067e-001 
2.708530e-001 
2.643105e-001 
2.565835e-001 
2.498476e-001 
2.388857e-001 
2.246582e-001 
2.120962e-001 
1.987575e-001 
1.837643e-001 
1.686056e-001 
1.543098e-001 
1.418331e-001 
1.284091e-001 
1.139213e-001 
1.042153e-001 
9.641307e-002 
8.757769e-002 
8.172274e-002 
7.942386e-002 
7.878803e-002 
7.609424e-002 
7.122280e-002 
6.955307e-002 
6.782934e-002 
6.189848e-002 
5.562749e-002 
5.104262e-002 
4.656306e-002 
4.034501e-002 
3.098997e-002 
2.266794e-002 
1.621844e-002 
7.785826e-003 
3.488343e-003 
5.702323e-003 
7.827327e-003 
5.531433e-003 
3.234264e-004 
-5.997193e-003 
-1.029579e-002 
-1.337887e-002 
-1.523407e-002 
-1.170812e-002 
-1.028749e-002 
-1.660244e-002 
-2.551763e-002 
-3.220680e-002 
-3.529325e-002 
-3.526451e-002 
-3.651572e-002 
-3.850162e-002 
-3.982013e-002 
-4.044986e-002 
-3.943375e-002 
-1.456326e-002 
9.192847e-003 
-3.371920e-003 
-4.325341e-002 
-1.145678e-001 
-1.832803e-001 
-2.053448e-001 
-1.970674e-001 
-1.698366e-001 
-1.349980e-001 
-1.575623e-001 
-2.057495e-001 
-2.440744e-001 
-2.707138e-001 
-2.345373e-001 
-1.617434e-001 
-1.179023e-001 
-1.050555e-001 
-1.192053e-001 
-1.429541e-001 
-1.284806e-001 
-8.270644e-002 
-8.316252e-003 
8.126388e-002 
1.411731e-001 
1.645597e-001 
1.701030e-001 
1.764933e-001 
1.883527e-001 
2.001980e-001 
2.100488e-001 
2.198666e-001 
2.327760e-001 
2.461442e-001 
2.562940e-001 
2.665938e-001 
2.819692e-001 
2.976827e-001 
3.093859e-001 
3.200085e-001 
3.322002e-001 
3.416478e-001 
3.435501e-001 
3.422033e-001 
3.414159e-001 
3.390591e-001 
3.291457e-001 
3.158238e-001 
3.035631e-001 
2.894579e-001 
2.692583e-001 
2.465378e-001 
2.269554e-001 
2.085552e-001 
1.872341e-001 
1.640902e-001 
1.461446e-001 
1.295259e-001 
1.106759e-001 
9.208462e-002 
7.869651e-002 
7.005365e-002 
6.281172e-002 
5.564589e-002 
5.222052e-002 
5.170047e-002 
4.714830e-002 
4.135076e-002 
3.760885e-002 
3.481841e-002 
3.071494e-002 
2.476955e-002 
1.866505e-002 
1.341113e-002 
4.957438e-003 
-4.555928e-003 
-1.072607e-002 
-1.656461e-002 
-2.576966e-002 
-3.549977e-002 
-3.943080e-002 
-3.731803e-002 
-3.799099e-002 
-4.203515e-002 
-4.403635e-002 
-4.632240e-002 
-5.317697e-002 
-6.123358e-002 
-6.321051e-002 
-5.879720e-002 
-5.877304e-002 
-6.703528e-002 
-7.352554e-002 
-7.784530e-002 
-8.402146e-002 
-8.959137e-002 
-9.047229e-002 
-8.965275e-002 
-9.138414e-002 
-9.307555e-002 
-8.958373e-002 
-5.913731e-002 
-4.692342e-002 
-7.269549e-002 
-1.124339e-001 
-1.830793e-001 
-2.556278e-001 
-2.806687e-001 
-2.716990e-001 
-2.384039e-001 
-2.085146e-001 
-2.484493e-001 
-2.882078e-001 
-3.160478e-001 
-3.458800e-001 
-3.111178e-001 
-2.359150e-001 
-1.915695e-001 
-1.806893e-001 
-2.012513e-001 
-2.220373e-001 
-1.946321e-001 
-1.495188e-001 
-7.650372e-002 
1.563052e-002 
7.595027e-002 
9.565531e-002 
9.881664e-002 
1.051698e-001 
1.158564e-001 
1.242060e-001 
1.313080e-001 
1.424463e-001 
1.543744e-001 
1.657233e-001 
1.754436e-001 
1.888916e-001 
2.054119e-001 
2.183046e-001 
2.292966e-001 
2.436092e-001 
2.590238e-001 
2.708148e-001 
2.795574e-001 
2.868946e-001 
2.929166e-001 
2.927930e-001 
2.871229e-001 
2.801200e-001 
2.727754e-001 
2.614928e-001 
2.451555e-001 
2.281879e-001 
2.112826e-001 
1.914776e-001 
1.695435e-001 
1.486715e-001 
1.291187e-001 
1.104900e-001 
8.963784e-002 
7.070796e-002 
5.628539e-002 
4.235688e-002 
2.941024e-002 
1.971057e-002 
1.318877e-002 
8.716942e-003 
5.089716e-003 
1.906961e-003 
2.184010e-003 
1.333987e-003 
-2.159166e-003 
-7.997049e-003 
-1.377931e-002 
-1.894931e-002 
-2.542604e-002 
-3.280933e-002 
-3.912888e-002 
-4.467458e-002 
-5.253240e-002 
-6.252490e-002 
-7.216809e-002 
-7.840246e-002 
-8.554202e-002 
-9.360977e-002 
-9.502731e-002 
-9.018998e-002 
-8.987259e-002 
-9.441635e-002 
-9.824312e-002 
-1.012371e-001 
-1.063662e-001 
-1.126289e-001 
-1.126013e-001 
-1.045932e-001 
-1.039250e-001 
-1.134846e-001 
-1.193788e-001 
-1.224120e-001 
-1.280301e-001 
-1.327512e-001 
-1.324577e-001 
-1.293102e-001 
-1.282870e-001 
-1.335218e-001 
-1.140857e-001 
-8.955884e-002 
-9.712122e-002 
-1.321637e-001 
-2.006162e-001 
-2.677407e-001 
-2.945202e-001 
-2.938768e-001 
-2.682363e-001 
-2.313361e-001 
-2.460898e-001 
-2.882631e-001 
-3.346227e-001 
-3.712590e-001 
-3.390157e-001 
-2.713215e-001 
-2.283768e-001 
-2.134574e-001 
-2.284125e-001 
-2.539674e-001 
-2.500875e-001 
-2.200105e-001 
-1.535719e-001 
-6.571760e-002 
-9.206564e-003 
1.029074e-002 
1.266472e-002 
1.679502e-002 
2.547683e-002 
3.166535e-002 
3.663860e-002 
4.547146e-002 
5.643563e-002 
6.403654e-002 
7.113651e-002 
8.346521e-002 
9.922395e-002 
1.120613e-001 
1.228363e-001 
1.372788e-001 
1.537550e-001 
1.643099e-001 
1.705227e-001 
1.790609e-001 
1.864914e-001 
1.857446e-001 
1.795809e-001 
1.747450e-001 
1.704913e-001 
1.599528e-001 
1.445066e-001 
1.316732e-001 
1.195284e-001 
1.015466e-001 
8.023670e-002 
6.284210e-002 
4.663702e-002 
2.744413e-002 
7.673994e-003 
-7.042580e-003 
-1.835600e-002 
-3.129723e-002 
-4.376598e-002 
-5.054177e-002 
-5.368497e-002 
-5.955181e-002 
-6.494701e-002 
-6.730846e-002 
-6.923895e-002 
-7.593934e-002 
-8.594189e-002 
-9.330999e-002 
-9.846518e-002 
-1.024234e-001 
-1.027580e-001 
-1.026078e-001 
-1.058485e-001 
-1.125705e-001 
-1.238650e-001 
-1.332411e-001 
-1.382651e-001 
-1.422354e-001 
-1.416198e-001 
-1.424194e-001 
-1.505192e-001 
-1.588831e-001 
-1.658005e-001 
-1.700261e-001 
-1.695630e-001 
-1.684998e-001 
-1.684892e-001 
-1.683999e-001 
-1.710402e-001 
-1.744300e-001 
-1.651784e-001 
-1.245796e-001 
-9.604787e-002 
-1.091438e-001 
-1.623306e-001 
-2.353957e-001 
-2.876491e-001 
-3.105818e-001 
-3.113452e-001 
-2.750748e-001 
-2.420841e-001 
-2.787476e-001 
-3.411564e-001 
-3.934673e-001 
-3.985283e-001 
-3.543781e-001 
-3.051026e-001 
-2.710726e-001 
-2.568217e-001 
-2.829915e-001 
-3.156615e-001 
-3.044267e-001 
-2.520921e-001 
-1.706415e-001 
-9.667865e-002 
-4.925989e-002 
-2.585310e-002 
-1.813939e-002 
-1.617648e-002 
-8.744770e-003 
1.575063e-003 
8.005492e-003 
1.258861e-002 
2.077514e-002 
3.017261e-002 
3.858763e-002 
4.626093e-002 
5.511930e-002 
6.740979e-002 
7.886815e-002 
8.882114e-002 
1.018376e-001 
1.169881e-001 
1.294283e-001 
1.387846e-001 
1.449200e-001 
1.499632e-001 
1.538589e-001 
1.537275e-001 
1.528819e-001 
1.525961e-001 
1.488914e-001 
1.404268e-001 
1.306031e-001 
1.226123e-001 
1.149054e-001 
1.045478e-001 
9.364514e-002 
8.433492e-002 
7.332312e-002 
5.886743e-002 
4.636152e-002 
3.846707e-002 
3.291423e-002 
2.612712e-002 
2.114182e-002 
1.929786e-002 
1.658162e-002 
1.066509e-002 
5.974659e-003 
3.054411e-003 
2.986233e-005 
3.650746e-004 
1.785893e-003 
7.868385e-004 
-4.200238e-003 
-1.268328e-002 
-2.059941e-002 
-2.672345e-002 
-3.508449e-002 
-3.855924e-002 
-3.827478e-002 
-4.483882e-002 
-5.640904e-002 
-6.569517e-002 
-7.116370e-002 
-7.396140e-002 
-7.779548e-002 
-8.097109e-002 
-8.110739e-002 
-8.438773e-002 
-8.807672e-002 
-8.536551e-002 
-5.582108e-002 
-1.634955e-002 
-1.448845e-002 
-4.377801e-002 
-9.719273e-002 
-1.710818e-001 
-2.228070e-001 
-2.371451e-001 
-2.173133e-001 
-1.724608e-001 
-1.772792e-001 
-2.313226e-001 
-2.718812e-001 
-3.066766e-001 
-3.089010e-001 
-2.554967e-001 
-1.976416e-001 
-1.640231e-001 
-1.672744e-001 
-2.038471e-001 
-2.130899e-001 
-1.784963e-001 
-1.177360e-001 
-3.138881e-002 
4.839826e-002 
9.508564e-002 
1.148653e-001 
1.189791e-001 
1.222448e-001 
1.327386e-001 
1.452405e-001 
1.543714e-001 
1.624793e-001 
1.739240e-001 
1.859787e-001 
1.961028e-001 
2.057347e-001 
2.196607e-001 
2.351199e-001 
2.474077e-001 
2.589635e-001 
2.716200e-001 
2.818316e-001 
2.867900e-001 
2.894081e-001 
2.912306e-001 
2.904358e-001 
2.845313e-001 
2.780814e-001 
2.709096e-001 
2.589095e-001 
2.434087e-001 
2.279668e-001 
2.138824e-001 
1.976565e-001 
1.787758e-001 
1.632420e-001 
1.500838e-001 
1.338581e-001 
1.174974e-001 
1.052207e-001 
9.626191e-002 
8.684115e-002 
7.677942e-002 
7.190375e-002 
7.041306e-002 
6.567476e-002 
5.954120e-002 
5.565756e-002 
5.254635e-002 
4.591374e-002 
3.652826e-002 
3.069625e-002 
2.586945e-002 
1.626020e-002 
5.382192e-003 
-2.231053e-003 
-2.738701e-003 
-2.258873e-003 
-7.191818e-003 
-1.109052e-002 
-1.381771e-002 
-2.222364e-002 
-3.122125e-002 
-3.596968e-002 
-3.504250e-002 
-3.135796e-002 
-3.750880e-002 
-4.676774e-002 
-5.120552e-002 
-5.865214e-002 
-6.567329e-002 
-6.636338e-002 
-6.664144e-002 
-6.842324e-002 
-7.350557e-002 
-7.611280e-002 
-6.884077e-002 
-3.802125e-002 
-2.981259e-002 
-5.634682e-002 
-9.877032e-002 
-1.753516e-001 
-2.451863e-001 
-2.643833e-001 
-2.520712e-001 
-2.181879e-001 
-1.931868e-001 
-2.380975e-001 
-2.782144e-001 
-3.083678e-001 
-3.353100e-001 
-2.908992e-001 
-2.141102e-001 
-1.736972e-001 
-1.662369e-001 
-1.882930e-001 
-2.065499e-001 
-1.768814e-001 
-1.289391e-001 
-4.901443e-002 
4.593548e-002 
1.008136e-001 
1.172008e-001 
1.213793e-001 
1.279069e-001 
1.366857e-001 
1.447798e-001 
1.547946e-001 
1.680152e-001 
1.785697e-001 
1.874084e-001 
1.988503e-001 
2.134975e-001 
2.272150e-001 
2.401367e-001 
2.555268e-001 
2.718714e-001 
2.859415e-001 
2.952792e-001 
3.031889e-001 
3.100307e-001 
3.125900e-001 
3.087382e-001 
3.047819e-001 
2.978574e-001 
2.846465e-001 
2.683829e-001 
2.499409e-001 
2.318451e-001 
2.117804e-001 
1.889496e-001 
1.670319e-001 
1.462164e-001 
1.221052e-001 
9.953785e-002 
8.033253e-002 
6.289915e-002 
4.742874e-002 
3.232776e-002 
2.231126e-002 
1.624090e-002 
9.976552e-003 
5.259936e-003 
4.684010e-003 
4.015503e-003 
1.574203e-004 
-5.200973e-003 
-8.650080e-003 
-1.019107e-002 
-1.638301e-002 
-2.425561e-002 
-2.928884e-002 
-3.368314e-002 
-4.189528e-002 
-5.118106e-002 
-5.622910e-002 
-5.926237e-002 
-6.708965e-002 
-7.759270e-002 
-8.034708e-002 
-7.535452e-002 
-7.217506e-002 
-7.458126e-002 
-7.437315e-002 
-7.291021e-002 
-7.770037e-002 
-8.568424e-002 
-8.695327e-002 
-7.945546e-002 
-7.534816e-002 
-8.247207e-002 
-9.044076e-002 
-9.252800e-002 
-9.762826e-002 
-1.041509e-001 
-1.045222e-001 
-9.997775e-002 
-9.878918e-002 
-1.014785e-001 
-1.003228e-001 
-6.945570e-002 
-5.848967e-002 
-8.780032e-002 
-1.290390e-001 
-1.998288e-001 
-2.684900e-001 
-2.918658e-001 
-2.834820e-001 
-2.477793e-001 
-2.180148e-001 
-2.606732e-001 
-2.992777e-001 
-3.265459e-001 
-3.534910e-001 
-3.126872e-001 
-2.367491e-001 
-1.925372e-001 
-1.799895e-001 
-2.012108e-001 
-2.194306e-001 
-1.884458e-001 
-1.404228e-001 
-6.389989e-002 
3.000973e-002 
8.940771e-002 
1.082179e-001 
1.105899e-001 
1.159917e-001 
1.281278e-001 
1.376248e-001 
1.452330e-001 
1.559014e-001 
1.692928e-001 
1.793373e-001 
1.881818e-001 
2.022239e-001 
2.198146e-001 
2.348811e-001 
2.468856e-001 
2.622075e-001 
2.788703e-001 
2.893594e-001 
2.950044e-001 
3.019393e-001 
3.066501e-001 
3.050043e-001 
2.983166e-001 
2.918573e-001 
2.850581e-001 
2.708855e-001 
2.519444e-001 
2.358763e-001 
2.201554e-001 
1.988221e-001 
1.764944e-001 
1.581945e-001 
1.406689e-001 
1.188478e-001 
9.672979e-002 
8.040774e-002 
6.829947e-002 
5.509812e-002 
4.277196e-002 
3.829954e-002 
3.643333e-002 
3.008019e-002 
2.409358e-002 
2.250259e-002 
2.145960e-002 
1.737914e-002 
1.107050e-002 
6.226317e-003 
2.303615e-003 
-7.122766e-003 
-1.824965e-002 
-2.597795e-002 
-3.310522e-002 
-4.165700e-002 
-5.139644e-002 
-5.991363e-002 
-6.669944e-002 
-7.451328e-002 
-8.342859e-002 
-8.935639e-002 
-9.381325e-002 
-9.833630e-002 
-1.041556e-001 
-1.100216e-001 
-1.134400e-001 
-1.145379e-001 
-1.118315e-001 
-1.056964e-001 
-1.013890e-001 
-9.902140e-002 
-1.003231e-001 
-1.044901e-001 
-1.055912e-001 
-1.050517e-001 
-1.037971e-001 
-9.975926e-002 
-1.009318e-001 
-1.074751e-001 
-1.131342e-001 
-1.195362e-001 
-1.200612e-001 
-1.169963e-001 
-1.173832e-001 
-1.170054e-001 
-1.129656e-001 
-1.059499e-001 
-7.453464e-002 
-6.050211e-002 
-8.075322e-002 
-1.321691e-001 
-2.109031e-001 
-2.621259e-001 
-2.697395e-001 
-2.558792e-001 
-2.215607e-001 
-1.973770e-001 
-2.366852e-001 
-2.888841e-001 
-3.390200e-001 
-3.431253e-001 
-2.829395e-001 
-2.258813e-001 
-2.004274e-001 
-1.985265e-001 
-2.232071e-001 
-2.477242e-001 
-2.318301e-001 
-1.805847e-001 
-9.426306e-002 
-2.078227e-002 
1.487246e-002 
2.845546e-002 
3.233971e-002 
3.451408e-002 
3.767338e-002 
4.578845e-002 
5.444360e-002 
6.160629e-002 
6.955721e-002 
8.132444e-002 
9.328580e-002 
1.016869e-001 
1.115867e-001 
1.265952e-001 
1.432202e-001 
1.565482e-001 
1.688625e-001 
1.821467e-001 
1.933270e-001 
1.979059e-001 
2.000808e-001 
2.028909e-001 
2.033334e-001 
1.991868e-001 
1.902430e-001 
1.818177e-001 
1.729151e-001 
1.594598e-001 
1.431294e-001 
1.286919e-001 
1.141763e-001 
9.738616e-002 
7.963170e-002 
6.316451e-002 
5.008978e-002 
3.584133e-002 
2.001684e-002 
7.989770e-003 
7.896217e-004 
-6.894426e-003 
-1.448379e-002 
-1.892000e-002 
-2.271648e-002 
-2.816349e-002 
-3.764233e-002 
-4.532564e-002 
-4.912055e-002 
-5.704612e-002 
-6.883740e-002 
-7.754718e-002 
-8.268722e-002 
-8.606880e-002 
-9.004245e-002 
-9.619902e-002 
-9.832091e-002 
-1.036509e-001 
-1.147620e-001 
-1.216184e-001 
-1.234929e-001 
-1.237513e-001 
-1.246556e-001 
-1.309079e-001 
-1.372128e-001 
-1.401592e-001 
-1.465410e-001 
-1.499115e-001 
-1.475458e-001 
-1.471411e-001 
-1.493863e-001 
-1.522060e-001 
-1.541379e-001 
-1.502235e-001 
-1.205850e-001 
-7.882520e-002 
-6.501761e-002 
-7.780215e-002 
-9.942441e-002 
-1.483115e-001 
-2.112174e-001 
-2.468921e-001 
-2.387955e-001 
-1.955942e-001 
-1.920842e-001 
-2.360086e-001 
-2.606917e-001 
-2.787223e-001 
-3.167584e-001 
-3.096799e-001 
-2.555373e-001 
-2.108784e-001 
-2.035218e-001 
-2.358476e-001 
-2.547895e-001 
-2.374418e-001 
-2.067086e-001 
-1.545602e-001 
-7.491040e-002 
-1.067729e-002 
2.256732e-002 
3.562106e-002 
3.901553e-002 
4.504180e-002 
5.465060e-002 
6.501396e-002 
7.297427e-002 
8.206167e-002 
9.417885e-002 
1.044344e-001 
1.129306e-001 
1.240729e-001 
1.380994e-001 
1.512561e-001 
1.631412e-001 
1.760558e-001 
1.900307e-001 
1.986816e-001 
2.018397e-001 
2.051347e-001 
2.092770e-001 
2.085891e-001 
2.033568e-001 
1.993708e-001 
1.946221e-001 
1.845827e-001 
1.721058e-001 
1.597591e-001 
1.489911e-001 
1.370170e-001 
1.211884e-001 
1.082351e-001 
9.736609e-002 
8.327536e-002 
6.936682e-002 
5.888522e-002 
5.043738e-002 
4.391078e-002 
3.719107e-002 
3.343684e-002 
3.273888e-002 
2.927464e-002 
2.396527e-002 
2.056585e-002 
1.757264e-002 
1.248857e-002 
6.010965e-003 
6.346860e-006 
-5.806054e-003 
-1.325633e-002 
-1.653518e-002 
-1.465330e-002 
-1.515510e-002 
-2.050257e-002 
-2.750459e-002 
-3.332318e-002 
-3.901781e-002 
-4.587778e-002 
-4.778016e-002 
-4.295583e-002 
-4.513925e-002 
-5.538887e-002 
-6.258963e-002 
-6.531868e-002 
-6.672784e-002 
-6.832378e-002 
-6.850037e-002 
-6.541821e-002 
-6.461641e-002 
-6.640984e-002 
-5.957275e-002 
-2.087897e-002 
-3.784854e-003 
-3.133810e-002 
-7.519108e-002 
-1.438289e-001 
-2.031567e-001 
-2.202272e-001 
-2.112319e-001 
-1.734775e-001 
-1.415298e-001 
-1.886889e-001 
-2.341268e-001 
-2.596894e-001 
-2.760463e-001 
-2.299069e-001 
-1.622323e-001 
-1.239405e-001 
-1.104919e-001 
-1.329675e-001 
-1.551663e-001 
-1.235780e-001 
-7.059970e-002 
8.410152e-003 
9.383643e-002 
1.441442e-001 
1.661435e-001 
1.726523e-001 
1.763999e-001 
1.855941e-001 
1.962965e-001 
2.057535e-001 
2.138290e-001 
2.236183e-001 
2.374148e-001 
2.489135e-001 
2.580111e-001 
2.704102e-001 
2.845143e-001 
2.970115e-001 
3.077304e-001 
3.197828e-001 
3.318660e-001 
3.373511e-001 
3.368181e-001 
3.371868e-001 
3.360181e-001 
3.286619e-001 
3.184361e-001 
3.084138e-001 
2.969507e-001 
2.789001e-001 
2.584316e-001 
2.411444e-001 
2.253560e-001 
2.055511e-001 
1.844506e-001 
1.672273e-001 
1.520339e-001 
1.337643e-001 
1.147634e-001 
1.037282e-001 
9.731948e-002 
8.907039e-002 
8.046664e-002 
7.741353e-002 
7.794367e-002 
7.592473e-002 
7.057493e-002 
6.835871e-002 
6.890979e-002 
6.417761e-002 
5.562579e-002 
5.040891e-002 
4.740225e-002 
4.080405e-002 
3.110476e-002 
2.236710e-002 
1.569516e-002 
1.265419e-002 
1.270693e-002 
1.162943e-002 
9.428839e-003 
3.199251e-003 
-5.445174e-003 
-1.285705e-002 
-1.974508e-002 
-2.289833e-002 
-1.944159e-002 
-2.125650e-002 
-3.092738e-002 
-4.070721e-002 
-4.904392e-002 
-5.256738e-002 
-5.466773e-002 
-5.824367e-002 
-5.973220e-002 
-6.119135e-002 
-6.517028e-002 
-6.725799e-002 
-4.219352e-002 
-2.386026e-002 
-3.901089e-002 
-7.891708e-002 
-1.529661e-001 
-2.243807e-001 
-2.502297e-001 
-2.464903e-001 
-2.182067e-001 
-1.839758e-001 
-2.116914e-001 
-2.528357e-001 
-2.908715e-001 
-3.230218e-001 
-2.871857e-001 
-2.128956e-001 
-1.686367e-001 
-1.530864e-001 
-1.669627e-001 
-1.897647e-001 
-1.731853e-001 
-1.310978e-001 
-5.482983e-002 
3.782277e-002 
9.615365e-002 
1.180961e-001 
1.263710e-001 
1.307042e-001 
1.360347e-001 
1.455247e-001 
1.574009e-001 
1.677915e-001 
1.748938e-001 
1.854600e-001 
2.001504e-001 
2.130821e-001 
2.231478e-001 
2.347153e-001 
2.510593e-001 
2.674507e-001 
2.791144e-001 
2.900478e-001 
3.036645e-001 
3.132426e-001 
3.165620e-001 
3.155097e-001 
3.140357e-001 
3.119241e-001 
3.023897e-001 
2.879778e-001 
2.750608e-001 
2.610879e-001 
2.418628e-001 
2.201765e-001 
1.991277e-001 
1.806212e-001 
1.598311e-001 
1.364741e-001 
1.166148e-001 
9.924395e-002 
8.003083e-002 
6.123516e-002 
4.752879e-002 
3.862521e-002 
3.102320e-002 
2.316854e-002 
1.874277e-002 
1.554581e-002 
9.988683e-003 
4.477592e-003 
6.920120e-004 
-3.943368e-003 
-1.126230e-002 
-1.875492e-002 
-2.506174e-002 
-3.351250e-002 
-4.364538e-002 
-4.998177e-002 
-4.948408e-002 
-4.949192e-002 
-5.484705e-002 
-5.930250e-002 
-6.261356e-002 
-7.117232e-002 
-8.097376e-002 
-8.540730e-002 
-8.449597e-002 
-8.301484e-002 
-9.031358e-002 
-9.943438e-002 
-1.040625e-001 
-1.115618e-001 
-1.195996e-001 
-1.204636e-001 
-1.190405e-001 
-1.209302e-001 
-1.273279e-001 
-1.342057e-001 
-1.345611e-001 
-1.259863e-001 
-9.229460e-002 
-7.001487e-002 
-7.694599e-002 
-1.152445e-001 
-1.902141e-001 
-2.486169e-001 
-2.647540e-001 
-2.595578e-001 
-2.259433e-001 
-1.965577e-001 
-2.272284e-001 
-2.685759e-001 
-3.185145e-001 
-3.447292e-001 
-2.963839e-001 
-2.353573e-001 
-2.050092e-001 
-1.954878e-001 
-2.176141e-001 
-2.434256e-001 
-2.334316e-001 
-1.966409e-001 
-1.186229e-001 
-3.548807e-002 
7.944528e-003 
2.538600e-002 
3.355852e-002 
3.740998e-002 
4.074413e-002 
4.750201e-002 
5.737292e-002 
6.679509e-002 
7.391228e-002 
8.407050e-002 
9.703269e-002 
1.070159e-001 
1.156074e-001 
1.283060e-001 
1.435256e-001 
1.577431e-001 
1.694403e-001 
1.813667e-001 
1.922466e-001 
1.955397e-001 
1.939824e-001 
1.944582e-001 
1.946223e-001 
1.896618e-001 
1.812599e-001 
1.717437e-001 
1.607131e-001 
1.448830e-001 
1.272208e-001 
1.125165e-001 
9.968196e-002 
8.392230e-002 
6.574289e-002 
5.038505e-002 
3.739926e-002 
2.211171e-002 
8.256315e-003 
-3.377842e-004 
-5.888016e-003 
-1.175912e-002 
-1.735060e-002 
-1.844031e-002 
-1.804008e-002 
-2.214210e-002 
-2.872296e-002 
-3.076917e-002 
-2.803777e-002 
-2.659094e-002 
-3.069709e-002 
-3.242640e-002 
-3.576102e-002 
-4.686352e-002 
-5.893434e-002 
-6.678759e-002 
-6.843630e-002 
-6.954788e-002 
-7.901052e-002 
-9.016280e-002 
-9.636585e-002 
-1.071955e-001 
-1.171637e-001 
-1.211321e-001 
-1.229961e-001 
-1.256163e-001 
-1.328405e-001 
-1.404472e-001 
-1.394618e-001 
-1.357256e-001 
-1.127364e-001 
-7.196734e-002 
-6.080850e-002 
-8.802536e-002 
-1.516616e-001 
-2.232576e-001 
-2.585351e-001 
-2.655661e-001 
-2.496030e-001 
-2.072222e-001 
-2.023409e-001 
-2.513667e-001 
-3.064370e-001 
-3.462327e-001 
-3.253170e-001 
-2.625809e-001 
-2.167602e-001 
-1.937297e-001 
-1.970347e-001 
-2.264367e-001 
-2.387715e-001 
-2.106124e-001 
-1.415829e-001 
-4.863163e-002 
1.799177e-002 
5.067358e-002 
6.624575e-002 
7.647662e-002 
8.430591e-002 
9.073854e-002 
1.019659e-001 
1.149612e-001 
1.232666e-001 
1.303808e-001 
1.415283e-001 
1.555311e-001 
1.668119e-001 
1.759359e-001 
1.891056e-001 
2.041131e-001 
2.148435e-001 
2.221170e-001 
2.308123e-001 
2.380658e-001 
2.405658e-001 
2.371086e-001 
2.350863e-001 
2.335585e-001 
2.250790e-001 
2.125924e-001 
2.015241e-001 
1.897827e-001 
1.740776e-001 
1.570944e-001 
1.419033e-001 
1.303606e-001 
1.147370e-001 
9.662945e-002 
8.355918e-002 
7.337071e-002 
6.153044e-002 
5.215565e-002 
4.769108e-002 
4.531348e-002 
4.199963e-002 
3.792349e-002 
3.786295e-002 
3.892900e-002 
3.711869e-002 
3.471155e-002 
3.259755e-002 
2.687047e-002 
2.103168e-002 
2.090338e-002 
2.325642e-002 
2.013006e-002 
1.247460e-002 
5.746888e-003 
-2.282544e-003 
-1.426076e-002 
-2.599534e-002 
-2.870855e-002 
-2.901778e-002 
-3.971878e-002 
-5.494701e-002 
-6.440575e-002 
-7.198327e-002 
-8.260749e-002 
-9.089071e-002 
-9.333252e-002 
-9.371882e-002 
-9.982888e-002 
-1.050241e-001 
-9.833150e-002 
-6.598029e-002 
-6.728870e-002 
-1.109266e-001 
-1.619544e-001 
-2.362292e-001 
-2.906648e-001 
-2.972232e-001 
-2.798448e-001 
-2.424747e-001 
-2.258524e-001 
-2.854610e-001 
-3.257383e-001 
-3.456372e-001 
-3.542469e-001 
-2.933413e-001 
-2.240415e-001 
-1.959640e-001 
-1.969303e-001 
-2.232924e-001 
-2.337868e-001 
-1.884171e-001 
-1.299331e-001 
-4.785377e-002 
3.590151e-002 
7.458075e-002 
8.173024e-002 
8.220418e-002 
8.993700e-002 
1.003435e-001 
1.096064e-001 
1.170659e-001 
1.286518e-001 
1.423121e-001 
1.523319e-001 
1.627898e-001 
1.771083e-001 
1.917723e-001 
2.052565e-001 
2.188477e-001 
2.342961e-001 
2.505274e-001 
2.611866e-001 
2.674578e-001 
2.731059e-001 
2.762067e-001 
2.746746e-001 
2.693863e-001 
2.639336e-001 
2.562418e-001 
2.422260e-001 
2.235492e-001 
2.054929e-001 
1.888382e-001 
1.704374e-001 
1.494048e-001 
1.306855e-001 
1.139938e-001 
9.306724e-002 
7.108829e-002 
5.409624e-002 
4.174965e-002 
3.059078e-002 
1.925937e-002 
1.191429e-002 
8.761654e-003 
2.363631e-003 
-4.941354e-003 
-7.366123e-003 
-8.846001e-003 
-1.383309e-002 
-1.994238e-002 
-2.537314e-002 
-3.106473e-002 
-4.007539e-002 
-4.621646e-002 
-4.239994e-002 
-3.876829e-002 
-4.347660e-002 
-5.004186e-002 
-5.468092e-002 
-6.156762e-002 
-7.034277e-002 
-7.630338e-002 
-7.298750e-002 
-7.048919e-002 
-8.113076e-002 
-9.379314e-002 
-9.837724e-002 
-1.024784e-001 
-1.086281e-001 
-1.129163e-001 
-1.140770e-001 
-1.143743e-001 
-1.227113e-001 
-1.299081e-001 
-1.241234e-001 
-9.262890e-002 
-7.972485e-002 
-1.010162e-001 
-1.386770e-001 
-2.068758e-001 
-2.761379e-001 
-3.042558e-001 
-2.968096e-001 
-2.644074e-001 
-2.375232e-001 
-2.734707e-001 
-3.118879e-001 
-3.439365e-001 
-3.747492e-001 
-3.423948e-001 
-2.699692e-001 
-2.237125e-001 
-2.124752e-001 
-2.322451e-001 
-2.516827e-001 
-2.288603e-001 
-1.866804e-001 
-1.158030e-001 
-2.500007e-002 
3.609600e-002 
5.605916e-002 
5.902575e-002 
6.488354e-002 
7.495553e-002 
8.402145e-002 
9.156503e-002 
1.012678e-001 
1.141206e-001 
1.244943e-001 
1.333951e-001 
1.463213e-001 
1.611500e-001 
1.750630e-001 
1.879499e-001 
2.024482e-001 
2.164318e-001 
2.265138e-001 
2.316096e-001 
2.351870e-001 
2.382442e-001 
2.360242e-001 
2.297738e-001 
2.235490e-001 
2.157914e-001 
2.018108e-001 
1.858883e-001 
1.703749e-001 
1.560747e-001 
1.396125e-001 
1.201255e-001 
1.038904e-001 
8.905681e-002 
7.070180e-002 
5.301812e-002 
4.049188e-002 
3.077101e-002 
2.100708e-002 
1.168350e-002 
7.127222e-003 
4.308843e-003 
-9.290601e-004 
-6.209801e-003 
-9.173865e-003 
-1.194266e-002 
-1.763357e-002 
-2.563797e-002 
-3.298389e-002 
-4.086765e-002 
-5.035139e-002 
-5.441704e-002 
-5.307523e-002 
-5.369933e-002 
-5.821597e-002 
-6.581986e-002 
-7.463779e-002 
-8.185712e-002 
-8.835287e-002 
-9.013485e-002 
-8.535490e-002 
-8.772523e-002 
-9.920610e-002 
-1.093211e-001 
-1.185284e-001 
-1.253937e-001 
-1.276827e-001 
-1.299338e-001 
-1.317577e-001 
-1.380441e-001 
-1.515842e-001 
-1.592859e-001 
-1.596903e-001 
-1.476746e-001 
-1.173474e-001 
-1.050482e-001 
-1.315506e-001 
-1.997844e-001 
-2.684187e-001 
-2.941245e-001 
-2.906304e-001 
-2.728226e-001 
-2.385886e-001 
-2.258805e-001 
-2.633981e-001 
-3.226180e-001 
-3.637554e-001 
-3.315443e-001 
-2.649855e-001 
-2.235290e-001 
-2.083472e-001 
-2.131213e-001 
-2.365961e-001 
-2.482502e-001 
-2.245314e-001 
-1.606225e-001 
-7.549505e-002 
-2.003558e-002 
6.833503e-004 
5.109959e-003 
9.544558e-003 
1.824167e-002 
2.718887e-002 
3.519098e-002 
4.431906e-002 
5.498206e-002 
6.385518e-002 
7.270628e-002 
8.506833e-002 
9.870104e-002 
1.111320e-001 
1.247063e-001 
1.393179e-001 
1.512578e-001 
1.583849e-001 
1.631798e-001 
1.681093e-001 
1.694500e-001 
1.665729e-001 
1.632772e-001 
1.607658e-001 
1.535282e-001 
1.418339e-001 
1.294825e-001 
1.186415e-001 
1.069853e-001 
9.192065e-002 
7.818952e-002 
6.627389e-002 
5.240077e-002 
3.585717e-002 
2.126771e-002 
1.181613e-002 
5.771817e-003 
-8.593367e-004 
-7.299230e-003 
-9.459841e-003 
-1.271389e-002 
-1.825680e-002 
-1.940662e-002 
-1.431048e-002 
-9.810499e-003 
-1.351835e-002 
-2.142323e-002 
-2.783751e-002 
-3.414112e-002 
-4.382647e-002 
-5.056475e-002 
-5.051043e-002 
-5.270765e-002 
-6.527294e-002 
-8.071964e-002 
-8.867844e-002 
-9.454866e-002 
-1.009260e-001 
-1.057895e-001 
-1.079857e-001 
-1.101556e-001 
-1.182968e-001 
-1.274161e-001 
-1.268501e-001 
-1.166529e-001 
-8.194915e-002 
-4.515287e-002 
-4.039573e-002 
-7.097051e-002 
-1.377196e-001 
-2.012985e-001 
-2.250225e-001 
-2.229546e-001 
-1.935090e-001 
-1.523619e-001 
-1.650742e-001 
-2.143417e-001 
-2.694217e-001 
-3.001970e-001 
-2.619833e-001 
-1.981621e-001 
-1.579013e-001 
-7.684470e-002 
-7.540561e-002 
-1.306587e-001 
-1.350159e-001 
-1.091724e-001 
-3.638657e-002 
5.465442e-002 
1.044502e-001 
1.747650e-001 
2.314649e-001 
1.524931e-001 
1.437383e-001 
1.716006e-001 
1.832807e-001 
2.043536e-001 
2.191877e-001 
2.274065e-001 
2.460811e-001 
2.170231e-001 
1.876857e-001 
2.286472e-001 
2.512892e-001 
2.777075e-001 
2.962570e-001 
3.107821e-001 
3.252627e-001 
3.400764e-001 
3.507355e-001 
3.586102e-001 
3.680014e-001 
3.766126e-001 
3.795920e-001 
3.802065e-001 
3.826943e-001 
3.849599e-001 
3.831825e-001 
3.795154e-001 
3.780611e-001 
3.756432e-001 
3.689582e-001 
3.616462e-001 
3.566772e-001 
3.528812e-001 
3.471903e-001 
3.415867e-001 
3.393642e-001 
3.371306e-001 
3.316246e-001 
3.256783e-001 
3.222826e-001 
3.224261e-001 
3.228400e-001 
3.189554e-001 
3.152634e-001 
3.108902e-001 
3.009695e-001 
2.895742e-001 
2.811285e-001 
2.761745e-001 
2.727348e-001 
2.629940e-001 
2.501081e-001 
2.404276e-001 
2.281609e-001 
2.142579e-001 
2.055564e-001 
1.990647e-001 
1.909129e-001 
1.793598e-001 
1.663898e-001 
1.599477e-001 
1.551313e-001 
1.691010e-001 
1.753946e-001 
1.520191e-001 
1.065993e-001 
3.269877e-002 
-2.974492e-002 
-5.162542e-002 
-5.426794e-002 
-3.977286e-002 
-2.162697e-002 
-5.682866e-002 
-1.030656e-001 
-1.458242e-001 
-1.733127e-001 
-1.379333e-001 
-8.514044e-002 
-6.199145e-002 
-5.936558e-002 
-7.811753e-002 
-1.018646e-001 
-9.174361e-002 
-5.677466e-002 
9.040082e-003 
8.003997e-002 
1.168457e-001 
1.281124e-001 
1.304519e-001 
1.325270e-001 
1.350178e-001 
1.410168e-001 
1.505345e-001 
1.572971e-001 
1.620614e-001 
1.708716e-001 
1.815191e-001 
1.898906e-001 
1.986646e-001 
2.101413e-001 
2.231142e-001 
2.333925e-001 
2.409187e-001 
2.492082e-001 
2.561177e-001 
2.560097e-001 
2.516966e-001 
2.512118e-001 
2.495201e-001 
2.400421e-001 
2.261029e-001 
2.130234e-001 
1.988055e-001 
1.804837e-001 
1.592342e-001 
1.430621e-001 
1.309260e-001 
1.100545e-001 
8.539368e-002 
6.619425e-002 
5.127275e-002 
3.614557e-002 
2.179267e-002 
1.239782e-002 
8.391491e-003 
8.650448e-004 
-9.379979e-003 
-1.385996e-002 
-1.458657e-002 
-1.654925e-002 
-2.180935e-002 
-2.179018e-002 
-1.515893e-002 
-1.276254e-002 
-1.712486e-002 
-2.172013e-002 
-2.718510e-002 
-3.717915e-002 
-5.056602e-002 
-5.980386e-002 
-6.053836e-002 
-6.589063e-002 
-8.190701e-002 
-9.832401e-002 
-1.105624e-001 
-1.231229e-001 
-1.364378e-001 
-1.443211e-001 
-1.482848e-001 
-1.553643e-001 
-1.697825e-001 
-1.814839e-001 
-1.846419e-001 
-1.738622e-001 
-1.501766e-001 
-1.494322e-001 
-1.761888e-001 
-2.333781e-001 
-3.138740e-001 
-3.578072e-001 
-3.563384e-001 
-3.384671e-001 
-3.069623e-001 
-3.015704e-001 
-3.423216e-001 
-3.837381e-001 
-4.264938e-001 
-4.238540e-001 
-3.503398e-001 
-2.921909e-001 
-2.755964e-001 
-2.795719e-001 
-2.997830e-001 
-3.055201e-001 
-2.775081e-001 
-2.213000e-001 
-1.315498e-001 
-5.859149e-002 
-3.441285e-002 
-2.874881e-002 
-2.398362e-002 
-1.913931e-002 
-1.567584e-002 
-9.182894e-003 
-2.575732e-005 
7.606591e-003 
1.402252e-002 
2.267431e-002 
3.433051e-002 
4.315606e-002 
5.093909e-002 
6.345467e-002 
7.696891e-002 
8.775893e-002 
9.697400e-002 
1.054289e-001 
1.111791e-001 
1.123268e-001 
1.091187e-001 
1.075794e-001 
1.049227e-001 
9.599047e-002 
8.408089e-002 
7.309939e-002 
6.012003e-002 
4.292546e-002 
2.478804e-002 
9.177519e-003 
-5.328718e-003 
-2.368661e-002 
-4.337835e-002 
-5.966989e-002 
-7.260636e-002 
-8.781170e-002 
-1.026380e-001 
-1.115640e-001 
-1.172240e-001 
-1.246350e-001 
-1.317952e-001 
-1.364123e-001 
-1.398159e-001 
-1.427547e-001 
-1.421403e-001 
-1.352840e-001 
-1.305226e-001 
-1.328412e-001 
-1.391530e-001 
-1.460797e-001 
-1.537862e-001 
-1.617436e-001 
-1.662860e-001 
-1.666691e-001 
-1.724174e-001 
-1.880884e-001 
-2.034146e-001 
-2.136198e-001 
-2.204346e-001 
-2.265527e-001 
-2.331019e-001 
-2.394534e-001 
-2.482492e-001 
-2.622557e-001 
-2.749483e-001 
-2.779125e-001 
-2.692101e-001 
-2.348341e-001 
-2.096847e-001 
-2.153255e-001 
-2.573078e-001 
-3.294072e-001 
-3.848475e-001 
-4.026321e-001 
-3.950422e-001 
-3.615258e-001 
-3.297132e-001 
-3.538300e-001 
-4.022555e-001 
-4.578305e-001 
-4.736671e-001 
-4.232053e-001 
-3.610869e-001 
-3.257276e-001 
-3.158295e-001 
-3.354563e-001 
-3.596430e-001 
-3.526837e-001 
-3.120276e-001 
-2.288614e-001 
-1.450172e-001 
-9.785413e-002 
-8.002611e-002 
-7.121960e-002 
-6.184834e-002 
-5.303675e-002 
-4.649945e-002 
-3.774166e-002 
-2.759794e-002 
-1.998584e-002 
-1.307025e-002 
-3.158711e-003 
8.125711e-003 
1.778743e-002 
2.866108e-002 
4.310780e-002 
5.919620e-002 
7.093364e-002 
8.132401e-002 
9.208078e-002 
9.998965e-002 
1.030159e-001 
1.044537e-001 
1.079177e-001 
1.106482e-001 
1.085368e-001 
1.033366e-001 
1.001344e-001 
9.487510e-002 
8.584352e-002 
7.511415e-002 
6.732711e-002 
6.029082e-002 
4.925121e-002 
3.586022e-002 
2.579274e-002 
1.772332e-002 
8.043486e-003 
5.573703e-005 
-3.034217e-003 
-3.232812e-003 
-7.149216e-003 
-1.213432e-002 
-1.228532e-002 
-6.215911e-003 
-1.034108e-003 
-3.942244e-004 
-1.333006e-004 
-1.509093e-003 
-9.705338e-003 
-1.986489e-002 
-2.511649e-002 
-2.633804e-002 
-2.774051e-002 
-3.633049e-002 
-4.924769e-002 
-5.901941e-002 
-6.933468e-002 
-8.011639e-002 
-8.524638e-002 
-8.832409e-002 
-9.382481e-002 
-1.024270e-001 
-1.134843e-001 
-1.204287e-001 
-1.186189e-001 
-1.119745e-001 
-7.678566e-002 
-5.600113e-002 
-7.375305e-002 
-1.192274e-001 
-1.932989e-001 
-2.489373e-001 
-2.623614e-001 
-2.547473e-001 
-2.222634e-001 
-1.905048e-001 
-2.267810e-001 
-2.723741e-001 
-3.130965e-001 
-3.244206e-001 
-2.698470e-001 
-2.063510e-001 
-1.720052e-001 
-1.582572e-001 
-1.762077e-001 
-1.965971e-001 
-1.726186e-001 
-1.209825e-001 
-3.616128e-002 
4.640466e-002 
9.374650e-002 
1.157625e-001 
1.244602e-001 
1.312057e-001 
1.422018e-001 
1.529291e-001 
1.604788e-001 
1.667329e-001 
1.740344e-001 
1.837724e-001 
1.929237e-001 
2.013849e-001 
2.118406e-001 
2.237747e-001 
2.319822e-001 
2.380409e-001 
2.448136e-001 
2.507153e-001 
2.527956e-001 
2.514211e-001 
2.491514e-001 
2.448079e-001 
2.370762e-001 
2.256133e-001 
2.147139e-001 
2.042609e-001 
1.904731e-001 
1.754014e-001 
1.627036e-001 
1.492558e-001 
1.335790e-001 
1.180693e-001 
1.046226e-001 
9.259333e-002 
7.997215e-002 
6.829698e-002 
6.223739e-002 
5.855872e-002 
5.308608e-002 
4.942903e-002 
4.966458e-002 
4.913895e-002 
4.497285e-002 
4.101702e-002 
4.360525e-002 
5.152129e-002 
5.313610e-002 
5.019940e-002 
4.785194e-002 
4.270106e-002 
3.196975e-002 
2.091693e-002 
1.652726e-002 
1.765699e-002 
1.188761e-002 
-2.455617e-003 
-1.445431e-002 
-2.487690e-002 
-3.623840e-002 
-4.601522e-002 
-5.046474e-002 
-5.244204e-002 
-5.967679e-002 
-7.169003e-002 
-7.953427e-002 
-8.048473e-002 
-7.260899e-002 
-4.233742e-002 
-3.578518e-002 
-6.400915e-002 
-1.146418e-001 
-1.935254e-001 
-2.485947e-001 
-2.591876e-001 
-2.476671e-001 
-2.129262e-001 
-1.943357e-001 
-2.405494e-001 
-2.826806e-001 
-3.191114e-001 
-3.300214e-001 
-2.707835e-001 
-2.068152e-001 
-1.774932e-001 
-1.727470e-001 
-1.941731e-001 
-2.092237e-001 
-1.803017e-001 
-1.251264e-001 
-3.825302e-002 
4.270403e-002 
8.012513e-002 
9.331233e-002 
9.821156e-002 
1.008455e-001 
1.032040e-001 
1.123523e-001 
1.241090e-001 
1.303392e-001 
1.343379e-001 
1.435225e-001 
1.555723e-001 
1.625139e-001 
1.681704e-001 
1.786455e-001 
1.927655e-001 
2.028116e-001 
2.092338e-001 
2.178696e-001 
2.267617e-001 
2.280783e-001 
2.244991e-001 
2.223803e-001 
2.204455e-001 
2.147164e-001 
2.038163e-001 
1.934693e-001 
1.837810e-001 
1.691025e-001 
1.514639e-001 
1.373627e-001 
1.262354e-001 
1.133534e-001 
9.762165e-002 
8.446252e-002 
7.430056e-002 
6.157943e-002 
4.869099e-002 
4.125970e-002 
3.979924e-002 
3.813460e-002 
3.557934e-002 
3.530948e-002 
3.656206e-002 
3.495221e-002 
3.043591e-002 
2.841171e-002 
2.710656e-002 
2.513960e-002 
2.390099e-002 
2.786806e-002 
3.372094e-002 
3.529778e-002 
3.151261e-002 
2.505629e-002 
1.878667e-002 
1.234680e-002 
6.994396e-003 
2.961718e-003 
6.765854e-004 
-6.907645e-003 
-1.994343e-002 
-3.316142e-002 
-4.344190e-002 
-4.957960e-002 
-5.475903e-002 
-6.190349e-002 
-6.894649e-002 
-7.649224e-002 
-8.730269e-002 
-9.172284e-002 
-8.543729e-002 
-5.248931e-002 
-3.796471e-002 
-5.879863e-002 
-1.099743e-001 
-1.846225e-001 
-2.337822e-001 
-2.405795e-001 
-2.237233e-001 
-1.880521e-001 
-1.627037e-001 
-1.991281e-001 
-2.424610e-001 
-2.868832e-001 
-2.898892e-001 
-2.259981e-001 
-1.608260e-001 
-1.299291e-001 
-1.253238e-001 
-1.450625e-001 
-1.598607e-001 
-1.351485e-001 
-8.195862e-002 
9.807886e-003 
9.080723e-002 
1.300031e-001 
1.427247e-001 
1.482966e-001 
1.563446e-001 
1.638956e-001 
1.708443e-001 
1.798525e-001 
1.892160e-001 
1.955932e-001 
2.008366e-001 
2.096922e-001 
2.202686e-001 
2.273531e-001 
2.349960e-001 
2.456190e-001 
2.570210e-001 
2.668317e-001 
2.741805e-001 
2.826390e-001 
2.923364e-001 
2.938686e-001 
2.908123e-001 
2.901070e-001 
2.875186e-001 
2.806442e-001 
2.724778e-001 
2.635478e-001 
2.550397e-001 
2.424570e-001 
2.259255e-001 
2.133840e-001 
2.027238e-001 
1.873907e-001 
1.711008e-001 
1.584445e-001 
1.457566e-001 
1.323728e-001 
1.194866e-001 
1.117628e-001 
1.082704e-001 
1.023369e-001 
9.420080e-002 
9.130676e-002 
9.020374e-002 
8.360988e-002 
7.580061e-002 
7.000544e-002 
6.886280e-002 
6.927011e-002 
6.659039e-002 
6.421614e-002 
6.258204e-002 
5.406993e-002 
4.139958e-002 
3.484346e-002 
3.149278e-002 
3.061581e-002 
2.700608e-002 
1.835324e-002 
1.063005e-002 
2.295207e-003 
-7.783002e-003 
-1.070768e-002 
-9.585113e-003 
-1.555943e-002 
-2.236303e-002 
-2.940463e-002 
-3.502130e-002 
-3.637537e-002 
-3.438831e-002 
-1.955118e-003 
2.634154e-002 
1.389372e-002 
-2.444896e-002 
-9.084542e-002 
-1.572521e-001 
-1.855945e-001 
-1.890134e-001 
-1.613353e-001 
-1.227310e-001 
-1.502282e-001 
-1.974573e-001 
-2.395195e-001 
-2.714449e-001 
-2.406324e-001 
-1.771851e-001 
-1.362589e-001 
-1.174942e-001 
-1.354315e-001 
-1.678719e-001 
-1.597093e-001 
-1.210631e-001 
-4.940113e-002 
3.634852e-002 
9.396797e-002 
1.186842e-001 
1.252134e-001 
1.271500e-001 
1.339198e-001 
1.453550e-001 
1.541102e-001 
1.585977e-001 
1.665241e-001 
1.774651e-001 
1.855567e-001 
1.928501e-001 
2.017944e-001 
2.129457e-001 
2.222108e-001 
2.271751e-001 
2.365833e-001 
2.507347e-001 
2.607409e-001 
2.647196e-001 
2.662960e-001 
2.683179e-001 
2.672192e-001 
2.595453e-001 
2.519603e-001 
2.478798e-001 
2.410511e-001 
2.275420e-001 
2.114354e-001 
1.982876e-001 
1.873169e-001 
1.724678e-001 
1.570684e-001 
1.448355e-001 
1.332257e-001 
1.187982e-001 
1.031829e-001 
9.285530e-002 
8.622654e-002 
7.882942e-002 
7.119956e-002 
6.775539e-002 
6.565601e-002 
6.101112e-002 
5.696492e-002 
5.487132e-002 
5.112584e-002 
4.357624e-002 
3.387996e-002 
2.575844e-002 
1.858895e-002 
8.757948e-003 
5.024682e-003 
1.051647e-002 
7.707575e-003 
-1.663033e-003 
-1.108075e-002 
-2.039572e-002 
-2.666601e-002 
-3.477897e-002 
-3.975011e-002 
-3.453540e-002 
-3.821030e-002 
-5.597397e-002 
-6.697779e-002 
-7.307881e-002 
-7.621536e-002 
-7.883069e-002 
-8.328302e-002 
-8.348985e-002 
-8.731938e-002 
-9.865406e-002 
-1.015553e-001 
-7.276902e-002 
-4.522413e-002 
-5.159302e-002 
-8.767899e-002 
-1.608471e-001 
-2.371084e-001 
-2.679428e-001 
-2.631473e-001 
-2.315256e-001 
-1.942966e-001 
-2.119174e-001 
-2.564191e-001 
-3.035112e-001 
-3.441448e-001 
-3.117696e-001 
-2.325827e-001 
-1.844331e-001 
-1.706624e-001 
-1.867586e-001 
-2.112081e-001 
-2.042069e-001 
-1.688747e-001 
-9.590968e-002 
2.673812e-003 
6.729256e-002 
8.755540e-002 
9.324531e-002 
1.004455e-001 
1.106739e-001 
1.172553e-001 
1.246205e-001 
1.352376e-001 
1.466738e-001 
1.536837e-001 
1.593124e-001 
1.715046e-001 
1.829613e-001 
1.910587e-001 
2.012459e-001 
2.161825e-001 
2.293670e-001 
2.383785e-001 
2.428936e-001 
2.493241e-001 
2.576016e-001 
2.568655e-001 
2.534506e-001 
2.523119e-001 
2.479242e-001 
2.374333e-001 
2.253819e-001 
2.129440e-001 
2.028484e-001 
1.897261e-001 
1.717239e-001 
1.565654e-001 
1.438698e-001 
1.291542e-001 
1.132393e-001 
1.002152e-001 
9.057429e-002 
8.185319e-002 
7.232143e-002 
6.620541e-002 
6.512865e-002 
6.486595e-002 
6.209992e-002 
6.066663e-002 
6.065048e-002 
5.828319e-002 
5.291057e-002 
4.827315e-002 
4.486820e-002 
3.902291e-002 
3.059398e-002 
2.359223e-002 
1.726160e-002 
7.838735e-003 
-2.385995e-003 
-1.152818e-002 
-1.943543e-002 
-2.453306e-002 
-2.475264e-002 
-2.298379e-002 
-2.382558e-002 
-2.917488e-002 
-3.476387e-002 
-3.782686e-002 
-4.013009e-002 
-4.092186e-002 
-3.689361e-002 
-3.282535e-002 
-3.632547e-002 
-4.417446e-002 
-4.865753e-002 
-4.862482e-002 
-4.693591e-002 
-4.510522e-002 
-4.314523e-002 
-3.960880e-002 
-3.972098e-002 
-4.124477e-002 
-3.711735e-002 
-9.978846e-003 
2.025638e-002 
2.489824e-002 
7.500537e-003 
-3.591612e-002 
-9.133444e-002 
-1.242032e-001 
-1.298708e-001 
-1.088828e-001 
-7.256832e-002 
-7.674015e-002 
-1.071232e-001 
-1.377598e-001 
-1.696058e-001 
-1.622842e-001 
-1.129130e-001 
-6.895161e-002 
-4.478959e-002 
-4.969671e-002 
-7.353292e-002 
-7.421084e-002 
-5.087570e-002 
-3.345508e-003 
6.737686e-002 
1.262234e-001 
1.553869e-001 
1.641549e-001 
1.654132e-001 
1.694402e-001 
1.752718e-001 
1.787231e-001 
1.810429e-001 
1.858045e-001 
1.916443e-001 
1.949319e-001 
1.981963e-001 
2.054919e-001 
2.140029e-001 
2.198559e-001 
2.261179e-001 
2.342453e-001 
2.430142e-001 
2.479367e-001 
2.477797e-001 
2.485712e-001 
2.486157e-001 
2.420800e-001 
2.323811e-001 
2.249819e-001 
2.150271e-001 
2.016523e-001 
1.846887e-001 
1.684126e-001 
1.531386e-001 
1.343980e-001 
1.140724e-001 
9.724282e-002 
8.227421e-002 
6.350264e-002 
4.516807e-002 
2.956098e-002 
1.613048e-002 
2.023696e-003 
-8.804577e-003 
-1.488654e-002 
-1.862866e-002 
-2.462001e-002 
-3.350140e-002 
-3.880192e-002 
-4.451624e-002 
-5.337186e-002 
-6.122191e-002 
-6.660378e-002 
-7.374837e-002 
-8.343200e-002 
-9.491898e-002 
-1.028806e-001 
-1.089492e-001 
-1.193765e-001 
-1.286771e-001 
-1.347412e-001 
-1.395492e-001 
-1.459894e-001 
-1.531302e-001 
-1.569578e-001 
-1.582683e-001 
-1.585951e-001 
-1.561911e-001 
-1.530556e-001 
-1.515102e-001 
-1.524277e-001 
-1.565201e-001 
-1.586767e-001 
-1.589736e-001 
-1.593890e-001 
-1.568777e-001 
-1.584631e-001 
-1.647315e-001 
-1.708124e-001 
-1.770545e-001 
-1.798872e-001 
-1.796257e-001 
-1.822658e-001 
-1.858039e-001 
-1.888513e-001 
-1.935117e-001 
-1.929471e-001 
-1.806818e-001 
-1.451553e-001 
-1.320625e-001 
-1.579295e-001 
-2.090154e-001 
-2.855597e-001 
-3.410543e-001 
-3.552471e-001 
-3.442400e-001 
-3.070975e-001 
-2.874193e-001 
-3.332134e-001 
-3.778074e-001 
-4.157267e-001 
-4.294570e-001 
-3.742549e-001 
-3.111399e-001 
-2.792812e-001 
-2.731777e-001 
-2.992397e-001 
-3.179313e-001 
-2.912707e-001 
-2.395083e-001 
-1.556817e-001 
-7.191659e-002 
-2.901586e-002 
-1.213731e-002 
-6.818772e-003 
-4.047222e-003 
2.024685e-003 
1.037745e-002 
1.902053e-002 
2.614867e-002 
3.336496e-002 
4.299095e-002 
5.265470e-002 
5.994674e-002 
7.105578e-002 
8.603626e-002 
9.974992e-002 
1.117539e-001 
1.217920e-001 
1.326045e-001 
1.409545e-001 
1.424683e-001 
1.436540e-001 
1.458882e-001 
1.405744e-001 
1.295985e-001 
1.183053e-001 
1.061742e-001 
9.405450e-002 
7.667949e-002 
5.700532e-002 
4.114713e-002 
2.151476e-002 
-2.711218e-003 
-2.290893e-002 
-4.107569e-002 
-5.958751e-002 
-7.726185e-002 
-9.410506e-002 
-1.058403e-001 
-1.158076e-001 
-1.270933e-001 
-1.344035e-001 
-1.369023e-001 
-1.415574e-001 
-1.465928e-001 
-1.491537e-001 
-1.519191e-001 
-1.580764e-001 
-1.669143e-001 
-1.740223e-001 
-1.773130e-001 
-1.823604e-001 
-1.902631e-001 
-1.956156e-001 
-1.991234e-001 
-2.055354e-001 
-2.145161e-001 
-2.199466e-001 
-2.193068e-001 
-2.133819e-001 
-2.077877e-001 
-2.053657e-001 
-2.024680e-001 
-2.008937e-001 
-2.031827e-001 
-2.045007e-001 
-2.022314e-001 
-1.957166e-001 
-1.884189e-001 
-1.887368e-001 
-1.934666e-001 
-1.940621e-001 
-1.948269e-001 
-1.947413e-001 
-1.919276e-001 
-1.892411e-001 
-1.866847e-001 
-1.860635e-001 
-1.846679e-001 
-1.771897e-001 
-1.406889e-001 
-1.110940e-001 
-1.246823e-001 
-1.648898e-001 
-2.336003e-001 
-2.989315e-001 
-3.220355e-001 
-3.174789e-001 
-2.856427e-001 
-2.445038e-001 
-2.735369e-001 
-3.283704e-001 
-3.650791e-001 
-3.886222e-001 
-3.520919e-001 
-2.829733e-001 
-2.386860e-001 
-2.196544e-001 
-2.347081e-001 
-2.651144e-001 
-2.511366e-001 
-2.005514e-001 
-1.227143e-001 
-3.199550e-002 
2.901415e-002 
5.652285e-002 
6.781669e-002 
7.296948e-002 
7.924244e-002 
8.918727e-002 
1.008924e-001 
1.091072e-001 
1.167672e-001 
1.286732e-001 
1.414286e-001 
1.510627e-001 
1.602926e-001 
1.739408e-001 
1.887813e-001 
2.025718e-001 
2.141084e-001 
2.280925e-001 
2.418148e-001 
2.465724e-001 
2.462819e-001 
2.479984e-001 
2.496643e-001 
2.456340e-001 
2.381017e-001 
2.316667e-001 
2.248451e-001 
2.111789e-001 
1.946173e-001 
1.817152e-001 
1.707649e-001 
1.574941e-001 
1.409534e-001 
1.275904e-001 
1.168897e-001 
1.028537e-001 
8.952215e-002 
8.257968e-002 
7.923870e-002 
7.591732e-002 
7.267080e-002 
7.301458e-002 
7.498447e-002 
7.304526e-002 
6.897399e-002 
6.729316e-002 
6.612428e-002 
6.240523e-002 
5.632772e-002 
5.212947e-002 
5.147590e-002 
5.219259e-002 
5.170150e-002 
5.045377e-002 
4.860329e-002 
4.307759e-002 
3.534469e-002 
2.910941e-002 
2.567748e-002 
2.477483e-002 
2.236178e-002 
1.300269e-002 
3.281616e-003 
-5.205915e-003 
-1.401500e-002 
-1.853774e-002 
-2.057243e-002 
-2.481790e-002 
-3.055945e-002 
-3.880795e-002 
-4.332144e-002 
-3.984837e-002 
-1.396993e-002 
1.096227e-002 
-7.590600e-003 
-5.958058e-002 
-1.366643e-001 
-2.027339e-001 
-2.216926e-001 
-2.125561e-001 
-1.847544e-001 
-1.492894e-001 
-1.741630e-001 
-2.349985e-001 
-2.765213e-001 
-2.918122e-001 
-2.442809e-001 
-1.727342e-001 
-1.344570e-001 
-1.231700e-001 
-1.365220e-001 
-1.613588e-001 
-1.462939e-001 
-9.081199e-002 
-7.353739e-003 
8.301924e-002 
1.356349e-001 
1.562091e-001 
1.641126e-001 
1.714461e-001 
1.817093e-001 
1.920555e-001 
2.023096e-001 
2.129577e-001 
2.240984e-001 
2.356140e-001 
2.474562e-001 
2.583781e-001 
2.705363e-001 
2.839816e-001 
2.957542e-001 
3.069636e-001 
3.179081e-001 
3.265293e-001 
3.319787e-001 
3.326468e-001 
3.291834e-001 
3.240505e-001 
3.156738e-001 
3.032012e-001 
2.883187e-001 
2.718749e-001 
2.549669e-001 
2.357136e-001 
2.138813e-001 
1.931068e-001 
1.726821e-001 
1.517391e-001 
1.310490e-001 
1.126732e-001 
9.634304e-002 
8.053225e-002 
6.567213e-002 
5.291235e-002 
4.444190e-002 
3.816832e-002 
3.343573e-002 
3.019713e-002 
2.826610e-002 
2.390941e-002 
1.840502e-002 
1.319589e-002 
6.742878e-003 
1.105872e-003 
-5.879508e-003 
-1.354587e-002 
-2.079675e-002 
-2.884009e-002 
-4.026826e-002 
-4.600338e-002 
-4.313286e-002 
-4.099919e-002 
-4.219769e-002 
-4.607737e-002 
-5.133796e-002 
-5.814182e-002 
-6.727744e-002 
-7.313906e-002 
-6.722324e-002 
-6.331785e-002 
-7.145273e-002 
-8.049916e-002 
-8.749975e-002 
-9.447832e-002 
-9.943814e-002 
-9.996160e-002 
-9.636763e-002 
-9.545058e-002 
-9.751288e-002 
-9.430771e-002 
-5.955816e-002 
-4.999663e-002 
-9.258226e-002 
-1.482450e-001 
-2.215572e-001 
-2.782761e-001 
-2.851487e-001 
-2.634940e-001 
-2.210396e-001 
-1.906703e-001 
-2.471287e-001 
-3.019203e-001 
-3.203000e-001 
-3.199530e-001 
-2.563005e-001 
-1.785006e-001 
-1.431428e-001 
-1.395019e-001 
-1.623309e-001 
-1.797555e-001 
-1.358105e-001 
-6.464444e-002 
2.587928e-002 
1.164516e-001 
1.613388e-001 
1.718391e-001 
1.760608e-001 
1.871659e-001 
2.003780e-001 
2.133201e-001 
2.257007e-001 
2.406613e-001 
2.561515e-001 
2.677636e-001 
2.805353e-001 
2.982418e-001 
3.174193e-001 
3.334913e-001 
3.479247e-001 
3.651671e-001 
3.828945e-001 
3.938607e-001 
3.993982e-001 
4.053798e-001 
4.086459e-001 
4.044733e-001 
3.942967e-001 
3.827615e-001 
3.700371e-001 
3.524689e-001 
3.283595e-001 
3.040514e-001 
2.813663e-001 
2.546826e-001 
2.266087e-001 
2.012976e-001 
1.770331e-001 
1.526555e-001 
1.271387e-001 
1.030983e-001 
8.421400e-002 
6.737617e-002 
5.141894e-002 
4.113930e-002 
3.385919e-002 
2.629378e-002 
1.847763e-002 
1.234863e-002 
7.775965e-003 
1.183868e-003 
-7.109233e-003 
-1.447818e-002 
-2.208409e-002 
-3.039681e-002 
-3.223046e-002 
-3.053934e-002 
-3.199402e-002 
-3.926038e-002 
-4.949351e-002 
-5.756893e-002 
-6.514543e-002 
-7.323576e-002 
-7.452684e-002 
-7.120558e-002 
-7.672406e-002 
-8.875670e-002 
-9.939890e-002 
-1.054243e-001 
-1.078404e-001 
-1.115391e-001 
-1.138145e-001 
-1.141497e-001 
-1.151581e-001 
-1.195744e-001 
-1.017466e-001 
-7.542345e-002 
-8.601481e-002 
-1.335696e-001 
-2.109782e-001 
-2.797711e-001 
-3.026039e-001 
-2.968213e-001 
-2.732865e-001 
-2.339454e-001 
-2.471127e-001 
-3.055744e-001 
-3.560263e-001 
-3.779650e-001 
-3.330826e-001 
-2.608054e-001 
-2.196797e-001 
-2.048802e-001 
-2.148804e-001 
-2.428014e-001 
-2.375307e-001 
-1.892193e-001 
-1.057312e-001 
-1.436593e-002 
3.902490e-002 
6.029442e-002 
6.816531e-002 
7.188224e-002 
7.774358e-002 
8.632364e-002 
9.763726e-002 
1.072233e-001 
1.136962e-001 
1.238415e-001 
1.367821e-001 
1.465767e-001 
1.553854e-001 
1.684409e-001 
1.845637e-001 
1.998436e-001 
2.114248e-001 
2.248823e-001 
2.374665e-001 
2.436683e-001 
2.466401e-001 
2.492823e-001 
2.496904e-001 
2.449172e-001 
2.359661e-001 
2.264725e-001 
2.166403e-001 
2.009308e-001 
1.831667e-001 
1.660511e-001 
1.482570e-001 
1.288078e-001 
1.076386e-001 
8.828103e-002 
7.020611e-002 
5.036401e-002 
3.078560e-002 
1.407018e-002 
1.552148e-003 
-6.821897e-003 
-1.618709e-002 
-2.353129e-002 
-2.717932e-002 
-3.342088e-002 
-4.090744e-002 
-4.745941e-002 
-4.906192e-002 
-4.413591e-002 
-4.354236e-002 
-4.814440e-002 
-5.048682e-002 
-5.766780e-002 
-6.842056e-002 
-7.580943e-002 
-7.966011e-002 
-7.768286e-002 
-7.934631e-002 
-8.947926e-002 
-9.738059e-002 
-1.040532e-001 
-1.139074e-001 
-1.167217e-001 
-1.158966e-001 
-1.168307e-001 
-1.200270e-001 
-1.232038e-001 
-1.228924e-001 
-1.019281e-001 
-6.784695e-002 
-6.262094e-002 
-9.289546e-002 
-1.607639e-001 
-2.343342e-001 
-2.674438e-001 
-2.665809e-001 
-2.457690e-001 
-2.055788e-001 
-2.021921e-001 
-2.517208e-001 
-3.080595e-001 
-3.441744e-001 
-3.157345e-001 
-2.465205e-001 
-1.978098e-001 
-1.775691e-001 
-1.832109e-001 
-2.115826e-001 
-2.215606e-001 
-1.901042e-001 
-1.170034e-001 
-2.341382e-002 
4.117906e-002 
6.929636e-002 
7.996394e-002 
8.522138e-002 
9.090440e-002 
9.736010e-002 
1.066870e-001 
1.168049e-001 
1.236199e-001 
1.283646e-001 
1.364610e-001 
1.471495e-001 
1.554047e-001 
1.663665e-001 
1.807292e-001 
1.948239e-001 
2.058421e-001 
2.145358e-001 
2.242465e-001 
2.336653e-001 
2.372495e-001 
2.374117e-001 
2.388844e-001 
2.378679e-001 
2.325067e-001 
2.247085e-001 
2.175826e-001 
2.093327e-001 
1.978452e-001 
1.847784e-001 
1.733127e-001 
1.631099e-001 
1.501350e-001 
1.355066e-001 
1.223292e-001 
1.132208e-001 
1.033466e-001 
9.353149e-002 
8.623710e-002 
8.248511e-002 
7.884386e-002 
7.307986e-002 
6.846279e-002 
7.192926e-002 
7.839345e-002 
7.591550e-002 
7.066989e-002 
6.477749e-002 
5.720612e-002 
4.645216e-002 
3.416862e-002 
2.653773e-002 
2.513033e-002 
1.430712e-002 
-3.675337e-003 
-1.640409e-002 
-2.672856e-002 
-3.665985e-002 
-4.548254e-002 
-5.103867e-002 
-5.327065e-002 
-5.825388e-002 
-6.441338e-002 
-5.834149e-002 
-1.883123e-002 
1.013054e-003 
-2.578553e-002 
-8.287126e-002 
-1.518169e-001 
-1.957943e-001 
-2.045836e-001 
-1.899621e-001 
-1.495242e-001 
-1.167571e-001 
-1.620695e-001 
-2.239829e-001 
-2.634760e-001 
-2.547052e-001 
-1.972892e-001 
-1.416146e-001 
-1.137124e-001 
-1.087171e-001 
-1.328050e-001 
-1.584528e-001 
-1.363322e-001 
-7.622245e-002 
1.201572e-002 
8.621988e-002 
1.241061e-001 
1.380504e-001 
1.457895e-001 
1.550718e-001 
1.622918e-001 
1.696610e-001 
1.804526e-001 
1.920967e-001 
2.006357e-001 
2.068856e-001 
2.160565e-001 
2.272183e-001 
2.362584e-001 
2.432949e-001 
2.543376e-001 
2.666567e-001 
2.739258e-001 
2.763831e-001 
2.789909e-001 
2.811089e-001 
2.780527e-001 
2.710461e-001 
2.645595e-001 
2.583458e-001 
2.474194e-001 
2.326419e-001 
2.185965e-001 
2.056482e-001 
1.895919e-001 
1.719069e-001 
1.570679e-001 
1.428696e-001 
1.263879e-001 
1.090862e-001 
9.359223e-002 
8.086721e-002 
6.854198e-002 
5.637573e-002 
4.857534e-002 
4.439501e-002 
4.205014e-002 
4.352049e-002 
4.577900e-002 
4.563439e-002 
4.237689e-002 
3.480551e-002 
2.655068e-002 
1.945065e-002 
1.136636e-002 
6.304542e-003 
1.616760e-003 
-8.547334e-003 
-2.148704e-002 
-3.388345e-002 
-4.432191e-002 
-5.029212e-002 
-5.668884e-002 
-6.308400e-002 
-6.702125e-002 
-6.928026e-002 
-7.042473e-002 
-4.647619e-002 
-1.627234e-002 
-2.472485e-002 
-6.621928e-002 
-1.372412e-001 
-2.079854e-001 
-2.380384e-001 
-2.373464e-001 
-2.112662e-001 
-1.683615e-001 
-1.834218e-001 
-2.419542e-001 
-2.885305e-001 
-3.162263e-001 
-2.880130e-001 
-2.234822e-001 
-1.791068e-001 
-1.598567e-001 
-1.733129e-001 
-2.094238e-001 
-2.103430e-001 
-1.679495e-001 
-9.495220e-002 
-7.463970e-003 
5.248168e-002 
8.113249e-002 
9.178937e-002 
9.327895e-002 
9.596597e-002 
1.029391e-001 
1.121178e-001 
1.202090e-001 
1.267751e-001 
1.364425e-001 
1.496101e-001 
1.591323e-001 
1.664639e-001 
1.772852e-001 
1.910782e-001 
2.039166e-001 
2.152767e-001 
2.260012e-001 
2.372223e-001 
2.437801e-001 
2.430572e-001 
2.404482e-001 
2.377885e-001 
2.318151e-001 
2.211613e-001 
2.094474e-001 
1.973717e-001 
1.827447e-001 
1.631158e-001 
1.416318e-001 
1.228620e-001 
1.042806e-001 
8.410562e-002 
6.552968e-002 
5.058647e-002 
3.456067e-002 
1.722887e-002 
1.698235e-003 
-7.166715e-003 
-1.010215e-002 
-9.140919e-003 
-2.743694e-003 
4.020948e-003 
3.592663e-003 
-2.959564e-003 
-9.066762e-003 
-1.477195e-002 
-2.019495e-002 
-2.598455e-002 
-3.013044e-002 
-3.757510e-002 
-5.467759e-002 
-7.503164e-002 
-8.944451e-002 
-9.994282e-002 
-1.121761e-001 
-1.249137e-001 
-1.360120e-001 
-1.466610e-001 
-1.600715e-001 
-1.669686e-001 
-1.523523e-001 
-1.152798e-001 
-1.196778e-001 
-1.708245e-001 
-2.343545e-001 
-3.090707e-001 
-3.591014e-001 
-3.681461e-001 
-3.470176e-001 
-3.031237e-001 
-2.980468e-001 
-3.687555e-001 
-4.168655e-001 
-4.350801e-001 
-4.278279e-001 
-3.681853e-001 
-3.070653e-001 
-2.768537e-001 
-2.791535e-001 
-3.118806e-001 
-3.194476e-001 
-2.678722e-001 
-1.963983e-001 
-1.061431e-001 
-2.440097e-002 
1.896732e-002 
3.432705e-002 
3.882265e-002 
4.776090e-002 
5.999621e-002 
7.114292e-002 
8.311478e-002 
9.765991e-002 
1.119977e-001 
1.239202e-001 
1.357771e-001 
1.511933e-001 
1.674560e-001 
1.818581e-001 
1.955527e-001 
2.099299e-001 
2.216601e-001 
2.273872e-001 
2.298548e-001 
2.314775e-001 
2.303399e-001 
2.229625e-001 
2.109686e-001 
1.980682e-001 
1.844243e-001 
1.665961e-001 
1.466537e-001 
1.282880e-001 
1.105467e-001 
8.963704e-002 
6.583045e-002 
4.598908e-002 
3.017400e-002 
1.330523e-002 
-1.351924e-003 
-9.126711e-003 
-1.326542e-002 
-1.024767e-002 
-1.053886e-003 
1.106819e-002 
2.111679e-002 
2.164811e-002 
2.023913e-002 
2.321314e-002 
2.212800e-002 
1.784758e-002 
1.959456e-002 
1.630217e-002 
2.120608e-003 
-1.917019e-002 
-3.788432e-002 
-4.833789e-002 
-5.940962e-002 
-7.662868e-002 
-9.237312e-002 
-1.077578e-001 
-1.280013e-001 
-1.420006e-001 
-1.412489e-001 
-1.032017e-001 
-9.635302e-002 
-1.480611e-001 
-2.197596e-001 
-3.020349e-001 
-3.505894e-001 
-3.516808e-001 
-3.316279e-001 
-2.871043e-001 
-2.607338e-001 
-3.293487e-001 
-3.920182e-001 
-4.157578e-001 
-4.011284e-001 
-3.274483e-001 
-2.612665e-001 
-2.341754e-001 
-2.322845e-001 
-2.632699e-001 
-2.845562e-001 
-2.377660e-001 
-1.598954e-001 
-6.169208e-002 
2.003553e-002 
5.833515e-002 
7.292258e-002 
7.848924e-002 
8.542756e-002 
9.656811e-002 
1.101799e-001 
1.229544e-001 
1.345091e-001 
1.474946e-001 
1.621533e-001 
1.753298e-001 
1.868884e-001 
2.009121e-001 
2.192768e-001 
2.359839e-001 
2.501779e-001 
2.637155e-001 
2.750624e-001 
2.810525e-001 
2.824602e-001 
2.820352e-001 
2.814912e-001 
2.773506e-001 
2.673332e-001 
2.562226e-001 
2.441599e-001 
2.288367e-001 
2.104368e-001 
1.919842e-001 
1.747859e-001 
1.577122e-001 
1.381800e-001 
1.188368e-001 
1.026374e-001 
8.757921e-002 
7.150331e-002 
5.953263e-002 
5.701412e-002 
6.310012e-002 
7.257125e-002 
8.185049e-002 
8.735415e-002 
8.629384e-002 
8.075564e-002 
7.444363e-002 
7.386343e-002 
7.509013e-002 
7.281542e-002 
6.478721e-002 
5.030706e-002 
2.823608e-002 
7.603823e-003 
-6.743822e-003 
-1.725584e-002 
-2.851200e-002 
-4.529992e-002 
-6.431781e-002 
-8.218445e-002 
-9.542111e-002 
-9.951158e-002 
-6.667158e-002 
-5.520416e-002 
-9.081851e-002 
-1.520686e-001 
-2.343361e-001 
-2.813959e-001 
-2.808159e-001 
-2.656242e-001 
-2.285048e-001 
-2.008966e-001 
-2.560393e-001 
-3.120546e-001 
-3.472640e-001 
-3.447369e-001 
-2.729480e-001 
-2.103444e-001 
-1.899224e-001 
-1.898237e-001 
-2.182308e-001 
-2.418302e-001 
-2.075434e-001 
-1.440630e-001 
-5.430213e-002 
2.241158e-002 
5.468655e-002 
6.537501e-002 
6.808375e-002 
7.390054e-002 
8.521822e-002 
9.834844e-002 
1.077626e-001 
1.136644e-001 
1.233704e-001 
1.376398e-001 
1.488708e-001 
1.581866e-001 
1.737194e-001 
1.927364e-001 
2.064839e-001 
2.157397e-001 
2.263450e-001 
2.377982e-001 
2.442011e-001 
2.438021e-001 
2.435379e-001 
2.433958e-001 
2.366089e-001 
2.240154e-001 
2.132159e-001 
2.040095e-001 
1.914154e-001 
1.749125e-001 
1.585223e-001 
1.443748e-001 
1.281739e-001 
1.099713e-001 
9.388323e-002 
8.089421e-002 
6.844296e-002 
5.487979e-002 
4.336809e-002 
3.708162e-002 
3.354639e-002 
2.909856e-002 
2.559246e-002 
2.660505e-002 
3.298704e-002 
4.043976e-002 
4.532813e-002 
4.811735e-002 
4.447617e-002 
3.399094e-002 
2.129550e-002 
1.153027e-002 
6.020651e-003 
8.387270e-004 
-9.151901e-003 
-2.366275e-002 
-4.327750e-002 
-6.535109e-002 
-8.133755e-002 
-9.003899e-002 
-9.893633e-002 
-1.093159e-001 
-1.204073e-001 
-1.302499e-001 
-1.366101e-001 
-1.122250e-001 
-8.637467e-002 
-9.846908e-002 
-1.491630e-001 
-2.266157e-001 
-2.847012e-001 
-3.023570e-001 
-2.984828e-001 
-2.669317e-001 
-2.252324e-001 
-2.541206e-001 
-3.208527e-001 
-3.742138e-001 
-3.844087e-001 
-3.366003e-001 
-2.786919e-001 
-2.472447e-001 
-2.343992e-001 
-2.558666e-001 
-2.950718e-001 
-2.903037e-001 
-2.366918e-001 
-1.527998e-001 
-7.330348e-002 
-2.634873e-002 
-4.374796e-003 
5.682788e-003 
9.005896e-003 
1.432356e-002 
2.658601e-002 
3.843093e-002 
4.411868e-002 
5.075843e-002 
5.991751e-002 
7.158361e-002 
8.068873e-002 
8.912778e-002 
1.026874e-001 
1.187849e-001 
1.305150e-001 
1.400599e-001 
1.512193e-001 
1.631111e-001 
1.714120e-001 
1.742838e-001 
1.765983e-001 
1.789112e-001 
1.760643e-001 
1.676231e-001 
1.611142e-001 
1.564715e-001 
1.488049e-001 
1.369326e-001 
1.254069e-001 
1.151959e-001 
1.034253e-001 
8.825432e-002 
7.473704e-002 
6.620505e-002 
5.672749e-002 
4.351228e-002 
3.371717e-002 
2.889531e-002 
2.333348e-002 
1.733332e-002 
1.351828e-002 
1.587413e-002 
2.189061e-002 
2.757089e-002 
3.195423e-002 
3.492783e-002 
3.083488e-002 
1.973707e-002 
8.249853e-003 
2.461099e-004 
-5.017664e-003 
-1.167706e-002 
-1.953958e-002 
-3.165395e-002 
-5.016261e-002 
-6.845424e-002 
-8.034788e-002 
-8.872310e-002 
-9.607310e-002 
-1.042480e-001 
-1.137472e-001 
-1.201399e-001 
-1.277099e-001 
-1.084500e-001 
-7.900804e-002 
-9.607225e-002 
-1.507538e-001 
-2.277998e-001 
-2.976528e-001 
-3.216614e-001 
-3.149107e-001 
-2.847547e-001 
-2.364549e-001 
-2.550862e-001 
-3.227428e-001 
-3.663808e-001 
-3.812758e-001 
-3.366343e-001 
-2.599201e-001 
-2.124064e-001 
-1.925741e-001 
-2.032184e-001 
-2.349819e-001 
-2.241149e-001 
-1.639770e-001 
-7.518417e-002 
2.148273e-002 
8.335536e-002 
1.088570e-001 
1.176270e-001 
1.227167e-001 
1.309381e-001 
1.424532e-001 
1.566814e-001 
1.676312e-001 
1.762346e-001 
1.880144e-001 
1.998791e-001 
2.106123e-001 
2.223629e-001 
2.362990e-001 
2.508211e-001 
2.627099e-001 
2.705621e-001 
2.789873e-001 
2.859297e-001 
2.878624e-001 
2.862739e-001 
2.839246e-001 
2.793071e-001 
2.691779e-001 
2.544994e-001 
2.401347e-001 
2.249242e-001 
2.066231e-001 
1.875738e-001 
1.694653e-001 
1.528920e-001 
1.350625e-001 
1.160392e-001 
9.850360e-002 
8.414624e-002 
6.926776e-002 
5.584371e-002 
4.618764e-002 
4.047789e-002 
3.749156e-002 
3.391508e-002 
3.012875e-002 
2.945491e-002 
3.003980e-002 
2.624153e-002 
2.072628e-002 
1.747761e-002 
2.072568e-002 
2.491402e-002 
2.265559e-002 
1.978261e-002 
1.669128e-002 
6.868470e-003 
-5.793503e-003 
-1.490468e-002 
-1.720293e-002 
-1.677038e-002 
-2.481082e-002 
-3.624138e-002 
-4.416690e-002 
-5.474497e-002 
-6.559464e-002 
-7.015624e-002 
-7.190531e-002 
-7.412055e-002 
-8.188760e-002 
-8.957732e-002 
-8.748674e-002 
-7.280671e-002 
-4.444377e-002 
-5.344031e-002 
-1.055019e-001 
-1.829511e-001 
-2.570891e-001 
-2.809041e-001 
-2.628374e-001 
-2.367066e-001 
-2.037716e-001 
-2.051986e-001 
-2.726028e-001 
-3.258749e-001 
-3.445835e-001 
-2.998390e-001 
-2.148255e-001 
-1.679396e-001 
-1.637518e-001 
-1.723798e-001 
-1.978099e-001 
-2.000988e-001 
-1.457105e-001 
-6.242738e-002 
3.091339e-002 
8.578595e-002 
9.891582e-002 
1.018360e-001 
1.064123e-001 
1.110409e-001 
1.197674e-001 
1.304048e-001 
1.378603e-001 
1.457952e-001 
1.583327e-001 
1.720534e-001 
1.831407e-001 
1.932027e-001 
2.070628e-001 
2.231225e-001 
2.340194e-001 
2.405792e-001 
2.478111e-001 
2.530989e-001 
2.503924e-001 
2.432950e-001 
2.377950e-001 
2.321877e-001 
2.200595e-001 
2.039613e-001 
1.892202e-001 
1.740469e-001 
1.550956e-001 
1.336064e-001 
1.158901e-001 
1.013959e-001 
8.272687e-002 
6.194266e-002 
4.757758e-002 
3.534339e-002 
2.240338e-002 
1.117386e-002 
4.230904e-003 
2.021919e-003 
-2.186395e-003 
-9.879702e-003 
-1.232706e-002 
-1.361645e-002 
-2.078907e-002 
-2.901140e-002 
-3.558864e-002 
-4.180870e-002 
-5.124714e-002 
-6.274223e-002 
-7.034901e-002 
-7.632216e-002 
-8.756219e-002 
-9.905755e-002 
-1.063528e-001 
-1.113839e-001 
-1.195104e-001 
-1.296304e-001 
-1.353928e-001 
-1.371275e-001 
-1.358387e-001 
-1.322202e-001 
-1.291127e-001 
-1.262138e-001 
-1.266703e-001 
-1.330623e-001 
-1.367699e-001 
-1.357641e-001 
-1.323015e-001 
-1.282558e-001 
-1.302436e-001 
-1.377722e-001 
-1.421387e-001 
-1.481354e-001 
-1.533126e-001 
-1.520177e-001 
-1.516226e-001 
-1.538772e-001 
-1.528088e-001 
-1.474476e-001 
-1.169638e-001 
-1.129204e-001 
-1.559146e-001 
-2.201320e-001 
-3.008383e-001 
-3.495371e-001 
-3.494275e-001 
-3.284313e-001 
-2.909417e-001 
-2.722529e-001 
-3.298622e-001 
-3.831680e-001 
-4.161042e-001 
-4.065968e-001 
-3.324015e-001 
-2.694032e-001 
-2.477125e-001 
-2.497793e-001 
-2.755138e-001 
-2.894763e-001 
-2.519908e-001 
-1.874224e-001 
-9.266875e-002 
-1.670127e-002 
1.143630e-002 
1.800845e-002 
2.076120e-002 
2.868901e-002 
3.408472e-002 
3.867749e-002 
4.792400e-002 
5.854204e-002 
6.525352e-002 
7.276855e-002 
8.462934e-002 
9.890505e-002 
1.094793e-001 
1.174925e-001 
1.320537e-001 
1.478602e-001 
1.600671e-001 
1.696272e-001 
1.794414e-001 
1.880464e-001 
1.894743e-001 
1.837781e-001 
1.807474e-001 
1.789431e-001 
1.710780e-001 
