74
2.4479
397.1809
2.1085
3.423449e-003 
8.457877e-003 
1.333590e-002 
1.941909e-002 
2.639737e-002 
3.305819e-002 
3.998040e-002 
4.824769e-002 
6.017854e-002 
7.721554e-002 
9.234409e-002 
1.075855e-001 
1.263008e-001 
1.456976e-001 
1.652342e-001 
1.878695e-001 
2.112591e-001 
2.332684e-001 
2.517483e-001 
2.644731e-001 
2.764277e-001 
2.876973e-001 
2.958862e-001 
3.027373e-001 
3.070682e-001 
3.044437e-001 
2.962352e-001 
2.837584e-001 
2.676295e-001 
2.497916e-001 
2.304285e-001 
2.100802e-001 
1.884850e-001 
1.631936e-001 
1.370167e-001 
1.136872e-001 
9.259973e-002 
7.343110e-002 
5.648728e-002 
4.383198e-002 
3.291187e-002 
2.155180e-002 
1.083068e-002 
3.145202e-003 
-1.830724e-003 
-5.114538e-003 
-6.873703e-003 
-3.491504e-003 
4.879270e-003 
1.231702e-002 
1.941563e-002 
2.579865e-002 
3.118507e-002 
3.672999e-002 
4.050096e-002 
4.228898e-002 
4.710506e-002 
4.843004e-002 
4.494100e-002 
4.079750e-002 
3.547231e-002 
3.012817e-002 
2.533144e-002 
1.711391e-002 
8.213279e-003 
1.859707e-005 
-1.060763e-002 
-1.678960e-002 
-2.340192e-002 
-5.954077e-002 
-1.461354e-001 
-2.470719e-001 
-3.114826e-001 
-3.308177e-001 
-3.267273e-001 
-3.133881e-001 
-2.974594e-001 
-3.026718e-001 
-3.546720e-001 
-4.111221e-001 
-3.926947e-001 
-3.129923e-001 
-2.427666e-001 
-2.050003e-001 
-1.858467e-001 
-1.754952e-001 
-1.661099e-001 
-1.381891e-001 
-6.019551e-002 
5.358766e-002 
1.446257e-001 
1.917429e-001 
2.151437e-001 
2.308448e-001 
2.457581e-001 
2.630199e-001 
2.789271e-001 
2.923481e-001 
3.026119e-001 
3.115472e-001 
3.185406e-001 
3.234628e-001 
3.264564e-001 
3.292530e-001 
3.293366e-001 
3.227532e-001 
3.103168e-001 
2.952180e-001 
2.786952e-001 
2.587481e-001 
2.379928e-001 
2.183234e-001 
1.983440e-001 
1.741331e-001 
1.483744e-001 
1.250733e-001 
1.064933e-001 
9.010212e-002 
7.493211e-002 
6.360902e-002 
5.451950e-002 
4.313379e-002 
3.089857e-002 
2.171265e-002 
1.545726e-002 
1.069967e-002 
5.914504e-003 
5.127026e-003 
9.891116e-003 
1.521952e-002 
1.908137e-002 
2.365958e-002 
2.760034e-002 
3.069276e-002 
3.347645e-002 
3.504264e-002 
3.662333e-002 
3.870067e-002 
3.538996e-002 
2.801590e-002 
1.990465e-002 
1.109390e-002 
4.453894e-003 
-2.712715e-003 
-1.487491e-002 
-2.729201e-002 
-3.737460e-002 
-4.870374e-002 
-5.441533e-002 
-7.815722e-002 
-1.427854e-001 
-2.551924e-001 
-3.679284e-001 
-4.257836e-001 
-4.349901e-001 
-4.230399e-001 
-4.045743e-001 
-3.985250e-001 
-4.340727e-001 
-4.993026e-001 
-5.439923e-001 
-4.957119e-001 
-3.970192e-001 
-3.270067e-001 
-2.952907e-001 
-2.837785e-001 
-2.806304e-001 
-2.647190e-001 
-2.070622e-001 
-9.751153e-002 
3.405344e-002 
1.234965e-001 
1.657182e-001 
1.858722e-001 
2.025236e-001 
2.217892e-001 
2.446909e-001 
2.688493e-001 
2.874988e-001 
3.030947e-001 
3.193866e-001 
3.353096e-001 
3.471783e-001 
3.554756e-001 
3.598937e-001 
3.611088e-001 
3.537366e-001 
3.384061e-001 
3.204545e-001 
3.010044e-001 
2.777992e-001 
2.518124e-001 
2.251941e-001 
1.964007e-001 
1.652421e-001 
1.328208e-001 
1.041036e-001 
7.855253e-002 
5.566950e-002 
3.460521e-002 
1.677453e-002 
-1.501392e-004 
-1.659717e-002 
-3.018471e-002 
-3.922211e-002 
-4.568047e-002 
-5.039810e-002 
-5.255558e-002 
-5.001321e-002 
-4.461581e-002 
-3.917707e-002 
-3.417450e-002 
-3.130617e-002 
-2.996091e-002 
-2.848772e-002 
-2.932742e-002 
-2.986946e-002 
-2.894715e-002 
-3.261408e-002 
-3.962109e-002 
-4.907555e-002 
-5.997930e-002 
-6.716309e-002 
-7.469710e-002 
-8.735943e-002 
-9.827006e-002 
-1.094196e-001 
-1.207285e-001 
-1.326500e-001 
-1.728142e-001 
-2.659469e-001 
-3.847566e-001 
-4.705698e-001 
-4.981051e-001 
-4.934720e-001 
-4.809026e-001 
-4.669821e-001 
-4.733914e-001 
-5.285752e-001 
-5.985469e-001 
-5.977439e-001 
-5.108765e-001 
-4.193748e-001 
-3.749494e-001 
-3.569835e-001 
-3.455932e-001 
-3.353945e-001 
-3.066468e-001 
-2.250554e-001 
-9.656987e-002 
1.881233e-002 
7.893024e-002 
1.031048e-001 
1.211089e-001 
1.395890e-001 
1.596433e-001 
1.819195e-001 
2.043601e-001 
2.233218e-001 
2.406779e-001 
2.549588e-001 
2.665195e-001 
2.752330e-001 
2.807320e-001 
2.844454e-001 
2.828845e-001 
2.722574e-001 
2.566695e-001 
2.402023e-001 
2.193434e-001 
1.960287e-001 
1.712458e-001 
1.470314e-001 
1.202982e-001 
8.978457e-002 
5.930921e-002 
3.455212e-002 
1.343512e-002 
-7.197545e-003 
-2.527348e-002 
-3.988417e-002 
-5.147597e-002 
-6.337011e-002 
-7.325017e-002 
-7.965060e-002 
-8.359938e-002 
-8.749999e-002 
-9.011007e-002 
-9.130849e-002 
-8.951479e-002 
-8.478513e-002 
-7.961277e-002 
-7.455476e-002 
-7.049540e-002 
-6.883739e-002 
-6.630118e-002 
-6.190563e-002 
-6.046703e-002 
-5.837686e-002 
-5.550692e-002 
-5.849951e-002 
-6.563525e-002 
-7.473779e-002 
-8.250276e-002 
-8.599897e-002 
-9.240159e-002 
-1.029302e-001 
-1.084492e-001 
-1.140969e-001 
-1.201576e-001 
-1.378476e-001 
-1.893310e-001 
-2.917415e-001 
-4.001665e-001 
-4.563287e-001 
-4.658206e-001 
-4.545894e-001 
-4.385924e-001 
-4.301219e-001 
-4.531928e-001 
-5.122873e-001 
-5.654301e-001 
-5.240388e-001 
-4.242142e-001 
-3.540594e-001 
-3.228979e-001 
-3.109430e-001 
-3.064008e-001 
-2.928870e-001 
-2.485918e-001 
-1.534837e-001 
-2.642883e-002 
6.139858e-002 
1.002359e-001 
1.160823e-001 
1.286874e-001 
1.454115e-001 
1.640816e-001 
1.821136e-001 
1.985795e-001 
2.138146e-001 
2.275064e-001 
2.382579e-001 
2.450568e-001 
2.514011e-001 
2.575187e-001 
2.603348e-001 
2.583421e-001 
2.504560e-001 
2.374644e-001 
2.210235e-001 
2.018037e-001 
1.818306e-001 
1.624628e-001 
1.413423e-001 
1.167653e-001 
9.071241e-002 
6.501695e-002 
4.230434e-002 
2.322618e-002 
8.781873e-003 
-4.004181e-003 
-1.704850e-002 
-3.062301e-002 
-4.221702e-002 
-5.120035e-002 
-5.761767e-002 
-6.134195e-002 
-6.288232e-002 
-6.394507e-002 
-6.657836e-002 
-6.719799e-002 
-6.395447e-002 
-5.869424e-002 
-5.370631e-002 
-4.752765e-002 
-4.057001e-002 
-3.620457e-002 
-3.373936e-002 
-3.038004e-002 
-2.683482e-002 
-2.440369e-002 
-2.583898e-002 
-2.834350e-002 
-2.979320e-002 
-3.392573e-002 
-4.159461e-002 
-4.623691e-002 
-5.237011e-002 
-6.120382e-002 
-6.911556e-002 
-7.339342e-002 
-7.925578e-002 
-1.195848e-001 
-2.194104e-001 
-3.278402e-001 
-3.869127e-001 
-4.053919e-001 
-4.033517e-001 
-3.905989e-001 
-3.755502e-001 
-3.866257e-001 
-4.514548e-001 
-5.141680e-001 
-4.840087e-001 
-3.950257e-001 
-3.272378e-001 
-2.940759e-001 
-2.773935e-001 
-2.687217e-001 
-2.625471e-001 
-2.318240e-001 
-1.421375e-001 
-1.832833e-002 
7.429309e-002 
1.213322e-001 
1.442020e-001 
1.615729e-001 
1.794005e-001 
2.000986e-001 
2.203254e-001 
2.369710e-001 
2.514146e-001 
2.655296e-001 
2.758955e-001 
2.817476e-001 
2.865231e-001 
2.916124e-001 
2.928814e-001 
2.863816e-001 
2.758072e-001 
2.629887e-001 
2.478696e-001 
2.274817e-001 
2.063818e-001 
1.867771e-001 
1.667487e-001 
1.433476e-001 
1.201832e-001 
9.996597e-002 
8.332609e-002 
6.814537e-002 
5.458130e-002 
4.557284e-002 
3.763565e-002 
2.922732e-002 
2.088338e-002 
1.534016e-002 
1.114964e-002 
7.316235e-003 
3.277460e-003 
2.257781e-003 
2.382252e-003 
2.867199e-003 
4.884983e-003 
8.867341e-003 
1.447876e-002 
1.853904e-002 
1.962071e-002 
2.216420e-002 
2.671233e-002 
2.903433e-002 
2.919510e-002 
2.925301e-002 
2.869577e-002 
2.456237e-002 
1.560105e-002 
7.403546e-003 
4.548972e-003 
-1.131628e-003 
-1.127799e-002 
-2.125282e-002 
-2.647244e-002 
-3.281200e-002 
-4.335428e-002 
-7.864902e-002 
-1.581364e-001 
-2.743121e-001 
-3.641567e-001 
-3.922078e-001 
-3.851731e-001 
-3.683652e-001 
-3.553883e-001 
-3.586711e-001 
-4.021289e-001 
-4.650594e-001 
-4.767103e-001 
-3.931306e-001 
-2.966096e-001 
-2.462285e-001 
-2.286282e-001 
-2.199009e-001 
-2.086036e-001 
-1.788550e-001 
-1.047302e-001 
1.688112e-002 
1.364190e-001 
2.001158e-001 
2.258480e-001 
2.414320e-001 
2.610803e-001 
2.829337e-001 
3.052939e-001 
3.252740e-001 
3.440640e-001 
3.598198e-001 
3.737756e-001 
3.879016e-001 
4.000981e-001 
4.076763e-001 
4.107559e-001 
4.088510e-001 
3.994530e-001 
3.838513e-001 
3.623902e-001 
3.414364e-001 
3.197738e-001 
2.924494e-001 
2.612762e-001 
2.314271e-001 
2.010064e-001 
1.687991e-001 
1.383655e-001 
1.129311e-001 
9.411218e-002 
7.582097e-002 
5.692645e-002 
4.147633e-002 
3.062376e-002 
2.019463e-002 
1.105496e-002 
6.289758e-003 
6.409731e-003 
9.036635e-003 
9.115841e-003 
8.476745e-003 
9.653215e-003 
1.243827e-002 
1.540949e-002 
1.960576e-002 
2.677526e-002 
3.588976e-002 
4.160767e-002 
4.462477e-002 
4.931496e-002 
5.547427e-002 
6.065366e-002 
6.447548e-002 
6.639779e-002 
6.602610e-002 
6.230245e-002 
5.589229e-002 
5.187806e-002 
4.899713e-002 
4.284361e-002 
3.382999e-002 
2.855631e-002 
2.416315e-002 
1.667076e-002 
-1.899434e-002 
-1.058177e-001 
-2.101287e-001 
-2.718970e-001 
-2.869486e-001 
-2.793563e-001 
-2.625414e-001 
-2.483988e-001 
-2.534042e-001 
-3.054706e-001 
-3.654890e-001 
-3.469769e-001 
-2.557236e-001 
-1.807736e-001 
-1.465317e-001 
-1.317690e-001 
-1.229942e-001 
-1.138148e-001 
-8.574367e-002 
-6.349369e-003 
1.121378e-001 
2.071958e-001 
2.506174e-001 
2.699400e-001 
2.871221e-001 
3.062154e-001 
3.251363e-001 
3.432819e-001 
3.610258e-001 
3.773288e-001 
3.916939e-001 
4.032897e-001 
4.140133e-001 
4.226077e-001 
4.249263e-001 
4.209920e-001 
4.116775e-001 
3.985254e-001 
3.809973e-001 
3.596821e-001 
3.366108e-001 
3.130550e-001 
2.859263e-001 
2.561062e-001 
2.246206e-001 
1.937704e-001 
1.662439e-001 
1.414417e-001 
1.197815e-001 
1.010840e-001 
8.346191e-002 
6.657158e-002 
5.208820e-002 
3.898736e-002 
2.906803e-002 
2.298962e-002 
1.961532e-002 
1.624164e-002 
1.089390e-002 
5.605411e-003 
1.168606e-003 
-1.718035e-003 
-6.423161e-003 
-1.069698e-002 
-1.085866e-002 
-8.405262e-003 
-7.751565e-003 
-7.349715e-003 
-5.445635e-003 
-2.176711e-003 
1.627889e-003 
3.324388e-003 
3.735197e-003 
5.629439e-003 
5.483885e-003 
-1.264133e-003 
-8.780007e-003 
-1.560424e-002 
-2.193300e-002 
-2.879800e-002 
-3.933071e-002 
-5.284528e-002 
-6.217677e-002 
-7.236025e-002 
-7.808413e-002 
-9.390049e-002 
-1.511339e-001 
-2.623621e-001 
-3.747017e-001 
-4.313139e-001 
-4.398540e-001 
-4.287844e-001 
-4.106879e-001 
-3.978173e-001 
-4.248497e-001 
-4.928731e-001 
-5.433200e-001 
-4.950823e-001 
-3.922028e-001 
-3.210725e-001 
-2.906195e-001 
-2.763299e-001 
-2.705962e-001 
-2.590074e-001 
-2.102826e-001 
-1.035039e-001 
2.940640e-002 
1.207671e-001 
1.622865e-001 
1.815341e-001 
1.978907e-001 
2.161188e-001 
2.370011e-001 
2.586701e-001 
2.759068e-001 
2.875272e-001 
3.010988e-001 
3.129884e-001 
3.201065e-001 
3.249248e-001 
3.286052e-001 
3.284783e-001 
3.202950e-001 
3.035396e-001 
2.850543e-001 
2.691203e-001 
2.468884e-001 
2.218494e-001 
1.974938e-001 
1.731091e-001 
1.460314e-001 
1.191670e-001 
9.522757e-002 
7.648091e-002 
5.987955e-002 
4.274594e-002 
2.944553e-002 
1.791197e-002 
7.570737e-003 
-1.259237e-003 
-6.056232e-003 
-1.040550e-002 
-1.358150e-002 
-1.508537e-002 
-1.436775e-002 
-1.384982e-002 
-1.355813e-002 
-1.221064e-002 
-7.429486e-003 
-2.339570e-003 
1.844796e-003 
8.497517e-003 
1.691388e-002 
2.537694e-002 
3.231929e-002 
3.831899e-002 
4.401956e-002 
5.054909e-002 
5.230582e-002 
5.234215e-002 
5.105370e-002 
4.949030e-002 
4.750111e-002 
4.323876e-002 
3.588771e-002 
2.989301e-002 
2.453945e-002 
1.666853e-002 
1.337980e-002 
-1.281417e-003 
-5.312658e-002 
-1.443531e-001 
-2.261838e-001 
-2.632705e-001 
-2.679961e-001 
-2.621884e-001 
-2.502326e-001 
-2.416343e-001 
-2.685184e-001 
-3.264544e-001 
-3.546305e-001 
-3.057851e-001 
-2.314077e-001 
-1.862058e-001 
-1.671048e-001 
-1.566075e-001 
-1.527361e-001 
-1.440680e-001 
-1.010274e-001 
-1.319167e-002 
8.415190e-002 
1.442206e-001 
1.707918e-001 
1.859329e-001 
1.995524e-001 
2.112642e-001 
2.243947e-001 
2.374399e-001 
2.452426e-001 
2.491692e-001 
2.529240e-001 
2.572911e-001 
2.595972e-001 
2.576930e-001 
2.525487e-001 
2.463484e-001 
2.335639e-001 
2.141943e-001 
1.941297e-001 
1.753422e-001 
1.551687e-001 
1.318173e-001 
1.076957e-001 
8.412516e-002 
6.059162e-002 
3.664577e-002 
1.675361e-002 
1.868346e-003 
-9.777704e-003 
-2.133161e-002 
-3.192101e-002 
-4.037916e-002 
-4.874225e-002 
-5.536847e-002 
-5.858270e-002 
-5.995562e-002 
-6.120128e-002 
-6.172799e-002 
-6.139032e-002 
-5.932706e-002 
-5.839900e-002 
-5.692596e-002 
-5.091186e-002 
-4.291455e-002 
-3.707385e-002 
-3.324169e-002 
-2.881952e-002 
-2.261029e-002 
-1.656178e-002 
-1.375079e-002 
-1.016752e-002 
-6.486060e-003 
-7.186298e-003 
-1.253690e-002 
-1.831990e-002 
-2.276157e-002 
-2.554572e-002 
-3.203365e-002 
-4.258211e-002 
-5.174655e-002 
-5.951376e-002 
-6.599823e-002 
-7.737418e-002 
-1.192566e-001 
-2.165632e-001 
-3.352747e-001 
-4.115624e-001 
-4.324432e-001 
-4.258129e-001 
-4.108619e-001 
-4.005110e-001 
-4.152272e-001 
-4.762738e-001 
-5.447308e-001 
-5.312110e-001 
-4.366245e-001 
-3.532592e-001 
-3.157359e-001 
-3.031750e-001 
-2.983221e-001 
-2.896423e-001 
-2.565454e-001 
-1.679402e-001 
-3.612124e-002 
7.273797e-002 
1.260838e-001 
1.520495e-001 
1.722108e-001 
1.950733e-001 
2.201349e-001 
2.469906e-001 
2.730901e-001 
2.950441e-001 
3.142700e-001 
3.342211e-001 
3.518001e-001 
3.633809e-001 
3.714566e-001 
3.744176e-001 
3.715301e-001 
3.603907e-001 
3.430297e-001 
3.247850e-001 
3.043211e-001 
2.787377e-001 
2.504684e-001 
2.199194e-001 
1.881948e-001 
1.559779e-001 
1.253783e-001 
1.000373e-001 
7.827988e-002 
5.662803e-002 
3.793432e-002 
2.188889e-002 
8.740940e-003 
-2.801119e-003 
-1.224846e-002 
-1.707779e-002 
-2.016786e-002 
-2.300847e-002 
-2.525971e-002 
-2.605092e-002 
-2.629134e-002 
-2.638841e-002 
-2.691373e-002 
-2.412978e-002 
-1.903008e-002 
-1.410530e-002 
-1.079029e-002 
-9.049354e-003 
-4.599219e-003 
1.035248e-003 
4.285533e-003 
6.560365e-003 
8.052950e-003 
5.330890e-003 
-1.095665e-003 
-8.364401e-003 
-1.246113e-002 
-1.574586e-002 
-2.356050e-002 
-3.403432e-002 
-4.360868e-002 
-5.273288e-002 
-5.614593e-002 
-6.796834e-002 
-1.189685e-001 
-2.283125e-001 
-3.456918e-001 
-4.048468e-001 
-4.131954e-001 
-4.031536e-001 
-3.856179e-001 
-3.711846e-001 
-3.944834e-001 
-4.635262e-001 
-5.212783e-001 
-4.777777e-001 
-3.709225e-001 
-2.961921e-001 
-2.668152e-001 
-2.543090e-001 
-2.476585e-001 
-2.370646e-001 
-1.935975e-001 
-9.075018e-002 
4.504452e-002 
1.391569e-001 
1.789423e-001 
1.967410e-001 
2.151158e-001 
2.342074e-001 
2.523250e-001 
2.715302e-001 
2.924174e-001 
3.088038e-001 
3.200076e-001 
3.318983e-001 
3.442248e-001 
3.519844e-001 
3.533367e-001 
3.516587e-001 
3.460255e-001 
3.334547e-001 
3.126433e-001 
2.910919e-001 
2.717815e-001 
2.486992e-001 
2.208547e-001 
1.929527e-001 
1.647350e-001 
1.348996e-001 
1.065116e-001 
8.327089e-002 
6.530331e-002 
4.818727e-002 
2.995830e-002 
1.609799e-002 
5.573011e-003 
-5.469118e-003 
-1.364078e-002 
-1.662973e-002 
-1.661561e-002 
-1.767707e-002 
-1.957212e-002 
-1.835756e-002 
-1.159385e-002 
-5.512337e-003 
7.981344e-005 
7.775674e-003 
1.519236e-002 
2.128098e-002 
2.649019e-002 
3.067195e-002 
3.466313e-002 
3.901790e-002 
3.902380e-002 
3.729432e-002 
3.456271e-002 
3.023947e-002 
2.626214e-002 
2.148734e-002 
1.296245e-002 
3.391700e-003 
-5.232540e-003 
-1.369625e-002 
-1.657241e-002 
-3.280915e-002 
-8.826625e-002 
-1.901255e-001 
-2.884622e-001 
-3.378294e-001 
-3.484002e-001 
-3.417890e-001 
-3.264501e-001 
-3.174368e-001 
-3.441669e-001 
-4.068363e-001 
-4.490685e-001 
-4.030976e-001 
-3.167017e-001 
-2.581611e-001 
-2.303513e-001 
-2.154969e-001 
-2.070195e-001 
-1.928946e-001 
-1.471584e-001 
-4.997789e-002 
6.795020e-002 
1.489706e-001 
1.888608e-001 
2.097164e-001 
2.294146e-001 
2.507644e-001 
2.716493e-001 
2.917260e-001 
3.101036e-001 
3.265652e-001 
3.426112e-001 
3.535066e-001 
3.619115e-001 
3.708807e-001 
3.760621e-001 
3.764865e-001 
3.716693e-001 
3.619807e-001 
3.497260e-001 
3.344707e-001 
3.155670e-001 
2.979640e-001 
2.793421e-001 
2.569584e-001 
2.335884e-001 
2.105338e-001 
1.894051e-001 
1.707009e-001 
1.546047e-001 
1.414675e-001 
1.307820e-001 
1.194173e-001 
1.082257e-001 
9.989982e-002 
9.332052e-002 
8.671806e-002 
8.072526e-002 
7.755456e-002 
7.466653e-002 
7.029420e-002 
6.513185e-002 
6.220181e-002 
6.286137e-002 
6.429988e-002 
6.455085e-002 
6.498042e-002 
6.508075e-002 
6.327295e-002 
6.190292e-002 
6.005755e-002 
5.867237e-002 
5.821223e-002 
5.397842e-002 
4.504898e-002 
3.467630e-002 
2.413873e-002 
1.585415e-002 
7.489989e-003 
-4.839530e-003 
-1.655498e-002 
-2.641685e-002 
-3.705155e-002 
-4.521063e-002 
-7.943425e-002 
-1.603913e-001 
-2.820644e-001 
-3.834430e-001 
-4.198460e-001 
-4.170803e-001 
-4.033098e-001 
-3.865030e-001 
-3.890782e-001 
-4.381176e-001 
-5.057894e-001 
-5.291258e-001 
-4.500950e-001 
-3.451379e-001 
-2.904524e-001 
-2.704911e-001 
-2.602959e-001 
-2.533078e-001 
-2.263872e-001 
-1.524943e-001 
-2.913778e-002 
1.017860e-001 
1.758748e-001 
2.055549e-001 
2.245065e-001 
2.442411e-001 
2.667923e-001 
2.907399e-001 
3.119922e-001 
3.312181e-001 
3.507683e-001 
3.678950e-001 
3.824127e-001 
3.934075e-001 
4.001004e-001 
4.028876e-001 
3.986048e-001 
3.865448e-001 
3.710501e-001 
3.527256e-001 
3.305294e-001 
3.064166e-001 
2.791783e-001 
2.506252e-001 
2.197824e-001 
1.873585e-001 
1.560253e-001 
1.282052e-001 
1.040191e-001 
8.196972e-002 
6.088202e-002 
4.176035e-002 
2.617320e-002 
1.249709e-002 
1.906079e-003 
-5.593825e-003 
-9.326853e-003 
-1.135817e-002 
-1.447824e-002 
-1.731597e-002 
-1.959403e-002 
-1.879262e-002 
-1.513327e-002 
-1.112923e-002 
-6.688044e-003 
-2.590065e-003 
-7.137734e-004 
1.968000e-003 
5.800554e-003 
8.057337e-003 
1.247600e-002 
1.470769e-002 
1.055624e-002 
3.416680e-003 
-4.360703e-003 
-1.039267e-002 
-1.393711e-002 
-2.203870e-002 
-3.357080e-002 
-4.239766e-002 
-5.255963e-002 
-6.239220e-002 
-7.307345e-002 
-1.106820e-001 
-1.996131e-001 
-3.173955e-001 
-4.000618e-001 
-4.219983e-001 
-4.141593e-001 
-4.000007e-001 
-3.858213e-001 
-3.940899e-001 
-4.473429e-001 
-5.117843e-001 
-5.080832e-001 
-4.185547e-001 
-3.286266e-001 
-2.874058e-001 
-2.708660e-001 
-2.612252e-001 
-2.523126e-001 
-2.214148e-001 
-1.391578e-001 
-1.287037e-002 
9.786670e-002 
1.516400e-001 
1.730415e-001 
1.902023e-001 
2.073072e-001 
2.243700e-001 
2.432837e-001 
2.637300e-001 
2.811509e-001 
2.942142e-001 
3.069842e-001 
3.205954e-001 
3.299713e-001 
3.342150e-001 
3.355593e-001 
3.330444e-001 
3.246868e-001 
3.093142e-001 
2.910382e-001 
2.721623e-001 
2.501047e-001 
2.251778e-001 
2.001538e-001 
1.729643e-001 
1.434102e-001 
1.146246e-001 
8.915962e-002 
6.718744e-002 
4.528881e-002 
2.490875e-002 
8.698417e-003 
-5.980587e-003 
-2.099028e-002 
-3.418000e-002 
-4.303792e-002 
-4.856867e-002 
-5.445091e-002 
-6.050594e-002 
-6.351553e-002 
-6.607616e-002 
-6.948313e-002 
-7.221522e-002 
-7.185704e-002 
-6.841446e-002 
-6.599767e-002 
-6.421342e-002 
-6.103530e-002 
-5.654109e-002 
-5.251953e-002 
-4.837604e-002 
-4.496598e-002 
-4.080888e-002 
-4.104743e-002 
-4.609217e-002 
-4.961692e-002 
-5.248225e-002 
-5.632857e-002 
-6.115076e-002 
-6.809818e-002 
-7.646392e-002 
-8.464011e-002 
-9.555486e-002 
-9.995729e-002 
-1.074959e-001 
-1.522606e-001 
-2.490960e-001 
-3.507263e-001 
-4.063362e-001 
-4.201109e-001 
-4.153537e-001 
-4.028209e-001 
-3.908713e-001 
-4.089846e-001 
-4.720017e-001 
-5.253850e-001 
-4.931160e-001 
-4.100162e-001 
-3.485581e-001 
-3.186882e-001 
-3.056647e-001 
-3.009079e-001 
-2.932552e-001 
-2.583740e-001 
-1.708121e-001 
-5.658589e-002 
2.504547e-002 
6.652742e-002 
8.737873e-002 
1.016681e-001 
1.172369e-001 
1.355158e-001 
1.527352e-001 
1.670686e-001 
1.788126e-001 
1.903787e-001 
2.022792e-001 
2.107404e-001 
2.154848e-001 
2.185943e-001 
2.187541e-001 
2.130609e-001 
2.026814e-001 
1.879113e-001 
1.713976e-001 
1.539164e-001 
1.338312e-001 
1.122097e-001 
9.101531e-002 
6.809001e-002 
4.393958e-002 
2.144667e-002 
2.336242e-003 
-1.415085e-002 
-2.907740e-002 
-4.137102e-002 
-5.213284e-002 
-6.245043e-002 
-7.266566e-002 
-8.042852e-002 
-8.514757e-002 
-8.839884e-002 
-9.236543e-002 
-9.257562e-002 
-8.941199e-002 
-8.500543e-002 
-7.857981e-002 
-7.147918e-002 
-6.509884e-002 
-6.010631e-002 
-5.696668e-002 
-5.395706e-002 
-5.062981e-002 
-4.779173e-002 
-4.607466e-002 
-4.780130e-002 
-5.172858e-002 
-5.765587e-002 
-6.483013e-002 
-7.200853e-002 
-7.975960e-002 
-8.919951e-002 
-9.753197e-002 
-1.066726e-001 
-1.132993e-001 
-1.262668e-001 
-1.771689e-001 
-2.815126e-001 
-3.894000e-001 
-4.469047e-001 
-4.591119e-001 
-4.506269e-001 
-4.353103e-001 
-4.228731e-001 
-4.404519e-001 
-5.037596e-001 
-5.571468e-001 
-5.190488e-001 
-4.252681e-001 
-3.556028e-001 
-3.221623e-001 
-3.075883e-001 
-3.008482e-001 
-2.885882e-001 
-2.476843e-001 
-1.521978e-001 
-2.819699e-002 
6.081971e-002 
1.038008e-001 
1.246079e-001 
1.400985e-001 
1.582076e-001 
1.799089e-001 
1.999263e-001 
2.169234e-001 
2.319046e-001 
2.463640e-001 
2.581968e-001 
2.674481e-001 
2.753219e-001 
2.808999e-001 
2.826276e-001 
2.786785e-001 
2.711348e-001 
2.603153e-001 
2.452455e-001 
2.276007e-001 
2.112940e-001 
1.939634e-001 
1.727930e-001 
1.494713e-001 
1.274073e-001 
1.078983e-001 
8.903108e-002 
7.190453e-002 
6.022880e-002 
5.216815e-002 
4.287908e-002 
3.287476e-002 
2.450909e-002 
1.965956e-002 
1.513044e-002 
1.008930e-002 
7.559754e-003 
8.815921e-003 
8.582415e-003 
7.711373e-003 
9.252766e-003 
1.431932e-002 
2.089461e-002 
2.582744e-002 
3.116633e-002 
3.730935e-002 
4.097797e-002 
4.104460e-002 
4.082691e-002 
4.228073e-002 
4.203162e-002 
3.630166e-002 
3.001891e-002 
2.472856e-002 
1.689410e-002 
6.858404e-003 
-2.073943e-003 
-9.689708e-003 
-1.614480e-002 
-2.474916e-002 
-3.015739e-002 
-5.489069e-002 
-1.221504e-001 
-2.259193e-001 
-3.136176e-001 
-3.471128e-001 
-3.451376e-001 
-3.313949e-001 
-3.123890e-001 
-3.046066e-001 
-3.387104e-001 
-3.915719e-001 
-4.090505e-001 
-3.462204e-001 
-2.549715e-001 
-1.986222e-001 
-1.744671e-001 
-1.598228e-001 
-1.503154e-001 
-1.285311e-001 
-6.488792e-002 
3.930066e-002 
1.502896e-001 
2.192898e-001 
2.499916e-001 
2.674342e-001 
2.846533e-001 
3.018004e-001 
3.210062e-001 
3.403791e-001 
3.559410e-001 
3.697099e-001 
3.835782e-001 
3.972204e-001 
4.080378e-001 
4.142189e-001 
4.158616e-001 
4.128643e-001 
4.031098e-001 
3.870876e-001 
3.674168e-001 
3.473127e-001 
3.254361e-001 
2.997634e-001 
2.707474e-001 
2.409570e-001 
2.093502e-001 
1.774440e-001 
1.476816e-001 
1.217220e-001 
9.886914e-002 
7.747814e-002 
5.731309e-002 
3.992408e-002 
2.467269e-002 
9.977557e-003 
7.590910e-004 
-5.252285e-003 
-1.004707e-002 
-1.229609e-002 
-1.254034e-002 
-1.304851e-002 
-1.209419e-002 
-1.047612e-002 
-6.329073e-003 
-5.218670e-004 
7.957548e-004 
2.543696e-003 
7.770678e-003 
1.127457e-002 
1.009211e-002 
9.999555e-003 
1.001310e-002 
6.368420e-003 
-1.956290e-003 
-1.097125e-002 
-1.616786e-002 
-2.074558e-002 
-3.157412e-002 
-4.566612e-002 
-5.424049e-002 
-6.244629e-002 
-6.974892e-002 
-9.647050e-002 
-1.617290e-001 
-2.701756e-001 
-3.730725e-001 
-4.217991e-001 
-4.254124e-001 
-4.112155e-001 
-3.938545e-001 
-3.904957e-001 
-4.260013e-001 
-4.855629e-001 
-5.212190e-001 
-4.661560e-001 
-3.670985e-001 
-3.026275e-001 
-2.770765e-001 
-2.673658e-001 
-2.615911e-001 
-2.398038e-001 
-1.811644e-001 
-7.572596e-002 
4.979841e-002 
1.316774e-001 
1.651314e-001 
1.793521e-001 
1.939097e-001 
2.145811e-001 
2.352426e-001 
2.532690e-001 
2.718389e-001 
2.907241e-001 
3.067243e-001 
3.176105e-001 
3.279886e-001 
3.386998e-001 
3.450144e-001 
3.431834e-001 
3.367993e-001 
3.261985e-001 
3.093566e-001 
2.875359e-001 
2.652032e-001 
2.444105e-001 
2.196850e-001 
1.894578e-001 
1.585447e-001 
1.295568e-001 
1.002650e-001 
7.268356e-002 
5.107505e-002 
3.315155e-002 
1.557093e-002 
-2.813961e-003 
-1.888338e-002 
-3.090129e-002 
-4.142977e-002 
-5.000118e-002 
-5.292464e-002 
-5.422660e-002 
-5.763397e-002 
-6.049752e-002 
-6.207603e-002 
-6.052186e-002 
-5.810124e-002 
-5.442849e-002 
-4.691256e-002 
-3.895880e-002 
-3.519492e-002 
-3.113187e-002 
-2.531456e-002 
-2.160265e-002 
-1.817324e-002 
-1.707679e-002 
-1.751181e-002 
-1.890455e-002 
-2.369711e-002 
-3.053014e-002 
-3.520283e-002 
-4.342192e-002 
-5.448681e-002 
-6.305019e-002 
-7.256486e-002 
-7.754747e-002 
-9.003136e-002 
-1.430401e-001 
-2.493668e-001 
-3.580118e-001 
-4.175078e-001 
-4.305306e-001 
-4.222852e-001 
-4.062776e-001 
-3.936313e-001 
-4.147554e-001 
-4.811107e-001 
-5.317880e-001 
-4.905848e-001 
-3.974379e-001 
-3.289243e-001 
-2.947051e-001 
-2.790698e-001 
-2.736181e-001 
-2.638989e-001 
-2.213134e-001 
-1.228760e-001 
2.055107e-004 
8.759162e-002 
1.306294e-001 
1.529153e-001 
1.677741e-001 
1.840684e-001 
2.045498e-001 
2.253067e-001 
2.419747e-001 
2.560863e-001 
2.704247e-001 
2.835110e-001 
2.926236e-001 
2.977714e-001 
3.035835e-001 
3.076024e-001 
3.056478e-001 
2.971635e-001 
2.845860e-001 
2.698963e-001 
2.529362e-001 
2.332484e-001 
2.122864e-001 
1.915192e-001 
1.693828e-001 
1.457806e-001 
1.224309e-001 
1.028028e-001 
8.707222e-002 
7.437072e-002 
6.365493e-002 
5.347072e-002 
4.382910e-002 
3.530402e-002 
2.809458e-002 
2.269107e-002 
1.958888e-002 
1.813752e-002 
1.908524e-002 
2.134044e-002 
2.476950e-002 
3.006211e-002 
3.749843e-002 
4.446016e-002 
4.915018e-002 
5.283122e-002 
5.692317e-002 
5.682329e-002 
5.585957e-002 
5.455903e-002 
5.055985e-002 
4.502117e-002 
3.675377e-002 
2.743613e-002 
1.938254e-002 
8.286427e-003 
-7.121888e-003 
-1.717486e-002 
-2.851592e-002 
-3.958431e-002 
-6.939018e-002 
-1.425732e-001 
-2.589822e-001 
-3.638099e-001 
-4.140894e-001 
-4.223773e-001 
-4.123050e-001 
-3.998239e-001 
-3.972697e-001 
-4.319557e-001 
-4.955609e-001 
-5.283436e-001 
-4.680401e-001 
-3.709648e-001 
-3.080230e-001 
-2.794884e-001 
-2.658366e-001 
-2.532887e-001 
-2.284571e-001 
-1.672252e-001 
-5.545941e-002 
7.234358e-002 
1.549103e-001 
1.921384e-001 
2.116723e-001 
2.310732e-001 
2.538961e-001 
2.739799e-001 
2.923516e-001 
3.103812e-001 
3.264365e-001 
3.384485e-001 
3.476130e-001 
3.564860e-001 
3.639366e-001 
3.647157e-001 
3.585552e-001 
3.493655e-001 
3.357683e-001 
3.166941e-001 
2.940671e-001 
2.729281e-001 
2.525443e-001 
2.276404e-001 
1.980571e-001 
1.703923e-001 
1.457545e-001 
1.220149e-001 
9.939195e-002 
8.189978e-002 
6.974195e-002 
5.680751e-002 
4.199838e-002 
2.958959e-002 
2.047436e-002 
1.245877e-002 
5.592085e-003 
9.884641e-004 
-1.200319e-003 
-3.918207e-003 
-5.731434e-003 
-4.597640e-003 
-9.356492e-004 
2.184141e-003 
4.073570e-003 
4.846219e-003 
5.659195e-003 
6.596585e-003 
7.011981e-003 
7.269191e-003 
7.993643e-003 
5.711280e-003 
-1.969446e-003 
-1.122065e-002 
-1.909083e-002 
-2.420625e-002 
-3.121948e-002 
-4.195445e-002 
-5.262777e-002 
-5.952184e-002 
-6.706842e-002 
-7.768979e-002 
-1.191646e-001 
-2.151464e-001 
-3.414871e-001 
-4.300578e-001 
-4.526772e-001 
-4.418540e-001 
-4.235388e-001 
-4.067595e-001 
-4.137640e-001 
-4.720096e-001 
-5.399494e-001 
-5.362831e-001 
-4.368698e-001 
-3.339463e-001 
-2.874099e-001 
-2.709608e-001 
-2.593584e-001 
-2.489032e-001 
-2.144250e-001 
-1.243226e-001 
1.169252e-002 
1.357556e-001 
1.965787e-001 
2.181882e-001 
2.346630e-001 
2.538828e-001 
2.747379e-001 
2.965833e-001 
3.161224e-001 
3.360310e-001 
3.544656e-001 
3.702430e-001 
3.830926e-001 
3.917809e-001 
3.977620e-001 
3.993510e-001 
3.934582e-001 
3.816697e-001 
3.663176e-001 
3.453320e-001 
3.199021e-001 
2.912832e-001 
2.619485e-001 
2.320721e-001 
2.002907e-001 
1.666630e-001 
1.342210e-001 
1.046078e-001 
7.586739e-002 
4.945594e-002 
2.763529e-002 
9.587988e-003 
-6.015563e-003 
-2.000554e-002 
-3.350242e-002 
-4.273002e-002 
-4.805661e-002 
-5.220606e-002 
-5.419909e-002 
-5.361717e-002 
-4.949163e-002 
-4.424766e-002 
-4.004578e-002 
-3.725223e-002 
-3.169590e-002 
-2.620934e-002 
-2.169236e-002 
-2.102589e-002 
-1.981772e-002 
-1.658885e-002 
-1.946970e-002 
-2.696746e-002 
-3.472549e-002 
-4.063256e-002 
-4.841893e-002 
-5.905683e-002 
-7.318868e-002 
-8.376209e-002 
-9.537231e-002 
-1.092940e-001 
-1.167134e-001 
-1.424555e-001 
-2.183215e-001 
-3.358695e-001 
-4.315117e-001 
-4.678666e-001 
-4.676853e-001 
-4.570489e-001 
-4.394636e-001 
-4.324397e-001 
-4.732906e-001 
-5.414832e-001 
-5.615336e-001 
-4.883963e-001 
-3.928071e-001 
-3.386429e-001 
-3.151659e-001 
-3.014529e-001 
-2.925580e-001 
-2.708402e-001 
-2.036912e-001 
-8.705012e-002 
3.324658e-002 
1.047548e-001 
1.363971e-001 
1.544937e-001 
1.726507e-001 
1.922320e-001 
2.101679e-001 
2.241958e-001 
2.363913e-001 
2.481231e-001 
2.600701e-001 
2.682160e-001 
2.730576e-001 
2.751463e-001 
2.724941e-001 
2.639815e-001 
2.501887e-001 
2.352918e-001 
2.191901e-001 
2.002496e-001 
1.780790e-001 
1.567387e-001 
1.345110e-001 
1.121337e-001 
8.892323e-002 
6.748849e-002 
5.311364e-002 
4.055211e-002 
2.768112e-002 
1.782561e-002 
1.062087e-002 
3.433901e-003 
-3.322620e-003 
-1.013334e-002 
-1.284776e-002 
-1.217494e-002 
-1.241691e-002 
-1.017248e-002 
-3.372592e-003 
4.681079e-003 
1.194755e-002 
1.919135e-002 
2.607844e-002 
3.110176e-002 
3.560750e-002 
3.959495e-002 
4.247727e-002 
4.515616e-002 
4.256439e-002 
3.724893e-002 
3.151236e-002 
2.296148e-002 
1.310223e-002 
5.669341e-003 
-4.021948e-003 
-1.544014e-002 
-2.674549e-002 
-4.055759e-002 
-4.793855e-002 
-7.338544e-002 
-1.426055e-001 
-2.612920e-001 
-3.750724e-001 
-4.289196e-001 
-4.344587e-001 
-4.240039e-001 
-4.070510e-001 
-3.978552e-001 
-4.293729e-001 
-4.939697e-001 
-5.373377e-001 
-4.814755e-001 
-3.724041e-001 
-2.988907e-001 
-2.675942e-001 
-2.512450e-001 
-2.402700e-001 
-2.178605e-001 
-1.565808e-001 
-4.254208e-002 
9.572221e-002 
1.903278e-001 
2.322004e-001 
2.520417e-001 
2.693594e-001 
2.896362e-001 
3.119046e-001 
3.323277e-001 
3.491962e-001 
3.644685e-001 
3.786065e-001 
3.890588e-001 
3.959906e-001 
4.016544e-001 
4.041811e-001 
3.998244e-001 
3.884388e-001 
3.724337e-001 
3.543071e-001 
3.339291e-001 
3.108717e-001 
2.868537e-001 
2.627578e-001 
2.349423e-001 
2.058627e-001 
1.790174e-001 
1.561011e-001 
1.358657e-001 
1.171914e-001 
1.005494e-001 
8.691542e-002 
7.470727e-002 
6.218361e-002 
5.268925e-002 
4.633992e-002 
4.264618e-002 
3.858886e-002 
3.587152e-002 
3.582384e-002 
3.831295e-002 
4.075450e-002 
4.288709e-002 
4.530108e-002 
4.690191e-002 
4.716515e-002 
4.789092e-002 
5.034842e-002 
4.968501e-002 
4.778671e-002 
4.481870e-002 
3.888867e-002 
3.130171e-002 
2.277223e-002 
1.496371e-002 
8.924203e-003 
-6.850069e-004 
-1.425066e-002 
-2.496903e-002 
-3.382883e-002 
-4.222796e-002 
-5.313303e-002 
-9.780861e-002 
-1.964769e-001 
-3.164037e-001 
-3.947160e-001 
-4.132100e-001 
-4.007807e-001 
-3.823881e-001 
-3.682247e-001 
-3.789044e-001 
-4.364525e-001 
-4.962646e-001 
-4.799367e-001 
-3.823923e-001 
-2.888378e-001 
-2.435557e-001 
-2.269421e-001 
-2.170526e-001 
-2.029926e-001 
-1.621041e-001 
-6.809720e-002 
6.471471e-002 
1.797031e-001 
2.378853e-001 
2.607865e-001 
2.783755e-001 
2.989897e-001 
3.215690e-001 
3.425483e-001 
3.597375e-001 
3.771700e-001 
3.928015e-001 
4.048920e-001 
4.162568e-001 
4.243004e-001 
4.258257e-001 
4.210838e-001 
4.101050e-001 
3.952719e-001 
3.766052e-001 
3.526679e-001 
3.296038e-001 
3.058983e-001 
2.769928e-001 
2.446280e-001 
2.123946e-001 
1.827487e-001 
1.550157e-001 
1.284025e-001 
1.066007e-001 
8.956536e-002 
7.155125e-002 
5.434890e-002 
3.988803e-002 
2.903114e-002 
2.036159e-002 
1.342288e-002 
9.498006e-003 
8.850716e-003 
8.999080e-003 
1.033443e-002 
1.424835e-002 
1.833471e-002 
2.016374e-002 
2.099808e-002 
2.477528e-002 
3.042847e-002 
3.406375e-002 
3.512286e-002 
3.691762e-002 
3.539249e-002 
2.889472e-002 
1.978935e-002 
1.478816e-002 
1.293966e-002 
6.445234e-003 
-6.742803e-003 
-1.834251e-002 
-2.665408e-002 
-3.661498e-002 
-4.080078e-002 
-6.177493e-002 
-1.274329e-001 
-2.424609e-001 
-3.465358e-001 
-3.913798e-001 
-3.941257e-001 
-3.832568e-001 
-3.655342e-001 
-3.572699e-001 
-3.953252e-001 
-4.659197e-001 
-5.007580e-001 
-4.359814e-001 
-3.376469e-001 
-2.790139e-001 
-2.541793e-001 
-2.410747e-001 
-2.355030e-001 
-2.212073e-001 
-1.644020e-001 
-5.226598e-002 
7.382338e-002 
1.504938e-001 
1.824327e-001 
2.001632e-001 
2.176542e-001 
2.341432e-001 
2.485893e-001 
2.658487e-001 
2.817499e-001 
2.919563e-001 
3.005388e-001 
3.088521e-001 
3.169310e-001 
3.218564e-001 
3.215494e-001 
3.176643e-001 
3.126091e-001 
2.982094e-001 
2.790479e-001 
2.627858e-001 
2.466451e-001 
2.271183e-001 
2.057201e-001 
1.835079e-001 
1.610098e-001 
1.395185e-001 
1.170128e-001 
1.009510e-001 
9.022037e-002 
7.954164e-002 
6.825585e-002 
5.863227e-002 
4.927318e-002 
4.024487e-002 
3.275865e-002 
2.812543e-002 
2.695917e-002 
2.623814e-002 
2.824261e-002 
3.197362e-002 
3.576717e-002 
3.791601e-002 
3.929561e-002 
4.211978e-002 
4.661741e-002 
4.996966e-002 
5.089966e-002 
5.212676e-002 
5.174263e-002 
4.521090e-002 
3.603961e-002 
2.956475e-002 
2.486391e-002 
1.959774e-002 
9.417361e-003 
-3.089376e-003 
-1.283004e-002 
-2.458115e-002 
-3.853495e-002 
-4.226846e-002 
-6.214141e-002 
-1.268395e-001 
-2.414047e-001 
-3.552962e-001 
-4.086459e-001 
-4.133558e-001 
-4.027429e-001 
-3.840623e-001 
-3.736434e-001 
-4.071569e-001 
-4.726201e-001 
-5.164950e-001 
-4.660381e-001 
-3.612746e-001 
-2.889541e-001 
-2.605977e-001 
-2.480972e-001 
-2.401153e-001 
-2.232289e-001 
-1.670294e-001 
-5.733668e-002 
7.636148e-002 
1.683263e-001 
2.073939e-001 
2.230580e-001 
2.399249e-001 
2.590758e-001 
2.767369e-001 
2.953226e-001 
3.121867e-001 
3.242806e-001 
3.339325e-001 
3.405060e-001 
3.467150e-001 
3.528941e-001 
3.539738e-001 
3.499646e-001 
3.416439e-001 
3.265109e-001 
3.059523e-001 
2.838882e-001 
2.620301e-001 
2.404529e-001 
2.163633e-001 
1.905647e-001 
1.637553e-001 
1.365866e-001 
1.114719e-001 
9.168420e-002 
7.608284e-002 
6.209505e-002 
4.875474e-002 
3.624374e-002 
2.351888e-002 
1.153665e-002 
2.884948e-003 
-4.172572e-004 
1.573757e-003 
4.685090e-003 
9.450093e-003 
1.570429e-002 
1.850916e-002 
1.930449e-002 
2.125266e-002 
1.927577e-002 
1.701501e-002 
1.377302e-002 
6.340467e-003 
-1.298119e-003 
-1.163258e-002 
-2.439287e-002 
-3.396128e-002 
-4.589142e-002 
-6.191992e-002 
-7.531386e-002 
-8.768163e-002 
-9.815624e-002 
-1.131783e-001 
-1.633562e-001 
-2.665761e-001 
-3.925812e-001 
-4.791655e-001 
-5.021648e-001 
-4.917945e-001 
-4.743845e-001 
-4.610252e-001 
-4.736905e-001 
-5.318383e-001 
-5.965644e-001 
-5.877257e-001 
-4.900750e-001 
-3.903644e-001 
-3.426231e-001 
-3.274508e-001 
-3.193728e-001 
-3.048486e-001 
-2.651780e-001 
-1.742995e-001 
-4.028407e-002 
7.953221e-002 
1.403354e-001 
1.602454e-001 
1.716253e-001 
1.900920e-001 
2.132495e-001 
2.335512e-001 
2.504593e-001 
2.666465e-001 
2.822774e-001 
2.932602e-001 
2.995070e-001 
3.057060e-001 
3.111321e-001 
3.091877e-001 
2.995791e-001 
2.847538e-001 
2.663828e-001 
2.438059e-001 
2.190141e-001 
1.952397e-001 
1.710182e-001 
1.415953e-001 
1.094269e-001 
7.955766e-002 
5.176516e-002 
2.534165e-002 
1.424614e-003 
-1.637882e-002 
-3.088196e-002 
-4.654132e-002 
-6.331889e-002 
-7.374005e-002 
-7.977105e-002 
-8.539723e-002 
-8.788386e-002 
-8.427995e-002 
-7.581506e-002 
-6.797434e-002 
-6.386938e-002 
-5.947741e-002 
-5.278362e-002 
-5.053656e-002 
-5.203789e-002 
-5.088084e-002 
-4.962923e-002 
-5.400054e-002 
-6.169682e-002 
-7.058823e-002 
-7.792317e-002 
-8.563241e-002 
-9.778550e-002 
-1.098166e-001 
-1.175586e-001 
-1.292635e-001 
-1.399207e-001 
-1.578932e-001 
-2.166235e-001 
-3.322595e-001 
-4.460334e-001 
-5.038971e-001 
-5.136389e-001 
-5.037450e-001 
-4.904550e-001 
-4.792769e-001 
-5.016914e-001 
-5.725597e-001 
-6.248831e-001 
-5.730172e-001 
-4.714655e-001 
-3.999015e-001 
-3.685017e-001 
-3.534834e-001 
-3.438377e-001 
-3.302801e-001 
-2.832165e-001 
-1.747258e-001 
-4.019288e-002 
4.888849e-002 
8.844504e-002 
1.068585e-001 
1.238777e-001 
1.406969e-001 
1.593766e-001 
1.791187e-001 
1.977867e-001 
2.131090e-001 
2.243551e-001 
2.350304e-001 
2.435591e-001 
2.485412e-001 
2.512624e-001 
2.525278e-001 
2.497479e-001 
2.418931e-001 
2.275178e-001 
2.092653e-001 
1.912346e-001 
1.713318e-001 
1.499865e-001 
1.271294e-001 
1.043887e-001 
8.103695e-002 
5.667246e-002 
3.315399e-002 
1.618363e-002 
4.893832e-003 
-6.334627e-003 
-1.806645e-002 
-2.765462e-002 
-3.468263e-002 
-4.190383e-002 
-4.843376e-002 
-4.765673e-002 
-3.823700e-002 
-2.727295e-002 
-1.892441e-002 
-1.114690e-002 
-3.086474e-003 
2.343821e-003 
4.397339e-003 
4.816449e-003 
9.053814e-003 
9.848245e-003 
3.052869e-003 
-7.195712e-003 
-1.724193e-002 
-2.773108e-002 
-3.820090e-002 
-5.043454e-002 
-6.351044e-002 
-7.454172e-002 
-8.697829e-002 
-9.997532e-002 
-1.415437e-001 
-2.343646e-001 
-3.558711e-001 
-4.384618e-001 
-4.598546e-001 
-4.523206e-001 
-4.363296e-001 
-4.187234e-001 
-4.221200e-001 
-4.734150e-001 
-5.375795e-001 
-5.356585e-001 
-4.397371e-001 
-3.424939e-001 
-2.989728e-001 
-2.810545e-001 
-2.695875e-001 
-2.581925e-001 
-2.250762e-001 
-1.423039e-001 
-1.459619e-002 
1.023890e-001 
1.586844e-001 
1.795376e-001 
1.964127e-001 
2.162225e-001 
2.393665e-001 
2.609987e-001 
2.794231e-001 
2.954447e-001 
3.120893e-001 
3.260665e-001 
3.372223e-001 
3.446795e-001 
3.479253e-001 
3.455766e-001 
3.365020e-001 
3.220005e-001 
3.046304e-001 
2.862397e-001 
2.638471e-001 
2.392666e-001 
2.107965e-001 
1.817239e-001 
1.515613e-001 
1.222366e-001 
9.510629e-002 
7.144263e-002 
5.098028e-002 
3.208738e-002 
1.427826e-002 
-1.454877e-003 
-1.426566e-002 
-2.605378e-002 
-3.304431e-002 
-3.675161e-002 
-3.723588e-002 
-3.346925e-002 
-2.752375e-002 
-2.076628e-002 
-1.517347e-002 
-1.419965e-002 
-1.014292e-002 
-3.607313e-003 
-2.470972e-003 
-3.086946e-003 
-1.195103e-003 
-2.818653e-003 
-9.508799e-003 
-2.025617e-002 
-2.922262e-002 
-3.071641e-002 
-3.812981e-002 
-5.225646e-002 
-6.288635e-002 
-7.104484e-002 
-8.421949e-002 
-1.029757e-001 
-1.490090e-001 
-2.399358e-001 
-3.516127e-001 
-4.265735e-001 
-4.433905e-001 
-4.326384e-001 
-4.181749e-001 
-4.083028e-001 
-4.174888e-001 
-4.657436e-001 
-5.197447e-001 
-5.049319e-001 
-4.096663e-001 
-3.195018e-001 
-2.777779e-001 
-2.604003e-001 
-2.464370e-001 
-2.275394e-001 
-1.859184e-001 
-9.719808e-002 
3.071654e-002 
1.404732e-001 
1.931241e-001 
2.139904e-001 
2.305552e-001 
2.506994e-001 
2.715292e-001 
2.909663e-001 
3.096221e-001 
3.263391e-001 
3.380615e-001 
3.490791e-001 
3.591975e-001 
3.673182e-001 
3.709882e-001 
3.677122e-001 
3.595044e-001 
3.475191e-001 
3.298898e-001 
3.094270e-001 
2.910617e-001 
2.706892e-001 
2.474970e-001 
2.200940e-001 
1.924252e-001 
1.677117e-001 
1.449129e-001 
1.224762e-001 
1.043474e-001 
9.015543e-002 
7.591144e-002 
6.169367e-002 
4.912895e-002 
4.090914e-002 
3.486409e-002 
2.953695e-002 
2.735366e-002 
3.126637e-002 
3.691313e-002 
4.193554e-002 
4.550841e-002 
4.819069e-002 
5.000720e-002 
5.187696e-002 
5.373987e-002 
5.463476e-002 
5.547131e-002 
5.289879e-002 
4.695420e-002 
3.862237e-002 
3.011774e-002 
2.291269e-002 
1.718236e-002 
7.080790e-003 
-5.242494e-003 
-1.542376e-002 
-2.733108e-002 
-3.856201e-002 
-7.602735e-002 
-1.635201e-001 
-2.783566e-001 
-3.572519e-001 
-3.824133e-001 
-3.790215e-001 
-3.678669e-001 
-3.543563e-001 
-3.556984e-001 
-4.056537e-001 
-4.691665e-001 
-4.664745e-001 
-3.773755e-001 
-2.894284e-001 
-2.462667e-001 
-2.263276e-001 
-2.112789e-001 
-1.989687e-001 
-1.685837e-001 
-8.834685e-002 
3.480347e-002 
1.465514e-001 
2.028151e-001 
2.271942e-001 
2.434766e-001 
2.587345e-001 
2.748302e-001 
2.911497e-001 
3.026478e-001 
3.129412e-001 
3.237976e-001 
3.334805e-001 
3.415210e-001 
3.460881e-001 
3.476561e-001 
3.445659e-001 
3.352905e-001 
3.203992e-001 
3.056570e-001 
2.890253e-001 
2.701962e-001 
2.492108e-001 
2.265414e-001 
2.019959e-001 
1.761936e-001 
1.513326e-001 
1.297760e-001 
1.128089e-001 
9.669837e-002 
8.257273e-002 
6.851268e-002 
5.368104e-002 
3.885817e-002 
2.826319e-002 
2.097783e-002 
1.714107e-002 
1.673427e-002 
1.866845e-002 
2.423496e-002 
2.958511e-002 
3.094681e-002 
3.252225e-002 
3.876562e-002 
4.330955e-002 
4.394507e-002 
4.232435e-002 
4.081417e-002 
3.751444e-002 
2.919151e-002 
1.745463e-002 
1.026970e-002 
6.356903e-003 
-4.250343e-003 
-1.976944e-002 
-3.265683e-002 
-4.274801e-002 
-5.349716e-002 
-6.934469e-002 
-1.199759e-001 
-2.286995e-001 
-3.509886e-001 
-4.225860e-001 
-4.391479e-001 
-4.298595e-001 
-4.148443e-001 
-4.028337e-001 
-4.161749e-001 
-4.814856e-001 
-5.462129e-001 
-5.133458e-001 
-4.062613e-001 
-3.220899e-001 
-2.846744e-001 
-2.690782e-001 
-2.563499e-001 
-2.391476e-001 
-1.966689e-001 
-9.664207e-002 
4.389351e-002 
1.507329e-001 
1.983088e-001 
2.165491e-001 
2.327941e-001 
2.533036e-001 
2.719690e-001 
2.861389e-001 
2.982550e-001 
3.108993e-001 
3.199025e-001 
3.269753e-001 
3.321877e-001 
3.377654e-001 
3.386502e-001 
3.324219e-001 
3.217971e-001 
3.086292e-001 
2.916668e-001 
2.722817e-001 
2.531205e-001 
2.341772e-001 
2.143038e-001 
1.900253e-001 
1.658575e-001 
1.436244e-001 
1.228113e-001 
1.048850e-001 
9.084776e-002 
7.939432e-002 
6.791585e-002 
5.496849e-002 
4.315939e-002 
3.401082e-002 
2.641972e-002 
2.140513e-002 
1.984723e-002 
2.156375e-002 
2.440955e-002 
2.818087e-002 
3.321104e-002 
3.634952e-002 
3.684737e-002 
3.968010e-002 
4.347521e-002 
4.397185e-002 
4.189733e-002 
3.756674e-002 
3.319756e-002 
2.730549e-002 
1.745265e-002 
7.653371e-003 
1.641737e-003 
-9.229314e-003 
-2.493110e-002 
-3.905672e-002 
-5.093724e-002 
-5.662231e-002 
-6.458438e-002 
-1.112405e-001 
-2.151534e-001 
-3.299403e-001 
-4.007826e-001 
-4.222408e-001 
-4.184495e-001 
-4.049287e-001 
-3.888654e-001 
-4.029174e-001 
-4.727275e-001 
-5.382385e-001 
-5.129171e-001 
-4.223637e-001 
-3.488692e-001 
-3.119255e-001 
-2.945803e-001 
-2.861184e-001 
-2.807889e-001 
-2.492213e-001 
-1.589629e-001 
-3.257438e-002 
6.574710e-002 
1.156358e-001 
1.389364e-001 
1.539450e-001 
1.695073e-001 
1.866264e-001 
2.034991e-001 
2.158972e-001 
2.275728e-001 
2.392899e-001 
2.487147e-001 
2.534100e-001 
2.576450e-001 
2.618713e-001 
2.620139e-001 
2.546402e-001 
2.419475e-001 
2.284251e-001 
2.124694e-001 
1.934877e-001 
1.740707e-001 
1.574922e-001 
1.393786e-001 
1.168250e-001 
9.318008e-002 
7.380705e-002 
5.846485e-002 
4.531148e-002 
3.460981e-002 
2.606140e-002 
1.790416e-002 
8.096431e-003 
-9.963207e-004 
-4.739968e-003 
-2.856417e-003 
3.296518e-003 
1.280363e-002 
2.400614e-002 
3.204821e-002 
3.860567e-002 
4.415608e-002 
4.672154e-002 
4.763566e-002 
4.627150e-002 
4.317989e-002 
3.860688e-002 
2.984826e-002 
1.901773e-002 
1.202578e-002 
2.120862e-003 
-1.164276e-002 
-2.560110e-002 
-3.789435e-002 
-4.784512e-002 
-5.891951e-002 
-1.003834e-001 
-1.954487e-001 
-3.144051e-001 
-3.988895e-001 
-4.292055e-001 
-4.273977e-001 
-4.142310e-001 
-4.002987e-001 
-4.047251e-001 
-4.600338e-001 
-5.286003e-001 
-5.239907e-001 
-4.391685e-001 
-3.537624e-001 
-3.076787e-001 
-2.894490e-001 
-2.792963e-001 
-2.680118e-001 
-2.383538e-001 
-1.571007e-001 
-3.152558e-002 
7.923654e-002 
1.379075e-001 
1.624775e-001 
1.767166e-001 
1.942154e-001 
2.139476e-001 
2.315910e-001 
2.442637e-001 
2.554561e-001 
2.649489e-001 
2.713452e-001 
2.744204e-001 
2.777701e-001 
2.814421e-001 
2.805654e-001 
2.729765e-001 
2.590529e-001 
2.442841e-001 
2.269598e-001 
2.069111e-001 
1.877359e-001 
1.692764e-001 
1.478211e-001 
1.250394e-001 
1.013764e-001 
7.994089e-002 
6.356154e-002 
4.966128e-002 
3.879373e-002 
3.039357e-002 
2.178944e-002 
1.378203e-002 
7.375169e-003 
2.279441e-003 
3.589163e-004 
3.205501e-003 
9.943987e-003 
1.701646e-002 
2.316340e-002 
2.718723e-002 
3.203075e-002 
3.750910e-002 
3.888544e-002 
3.732762e-002 
3.848862e-002 
3.557288e-002 
2.469377e-002 
1.148691e-002 
9.454861e-004 
-4.904428e-003 
-1.553716e-002 
-3.139524e-002 
-4.415577e-002 
-5.303264e-002 
-6.636289e-002 
-7.989262e-002 
-1.119808e-001 
-1.869168e-001 
-3.055543e-001 
-4.072494e-001 
-4.445563e-001 
-4.402499e-001 
-4.244872e-001 
-4.095282e-001 
-4.088230e-001 
-4.483407e-001 
-5.114375e-001 
-5.332025e-001 
-4.573792e-001 
-3.533342e-001 
-2.927806e-001 
-2.689205e-001 
-2.564414e-001 
-2.446448e-001 
-2.161423e-001 
-1.438289e-001 
-2.280078e-002 
1.050946e-001 
1.807690e-001 
2.120286e-001 
2.294429e-001 
2.496170e-001 
2.720652e-001 
2.943228e-001 
3.160677e-001 
3.367784e-001 
3.554911e-001 
3.712892e-001 
3.846400e-001 
3.970815e-001 
4.065124e-001 
4.085040e-001 
4.056078e-001 
3.985105e-001 
3.847664e-001 
3.648375e-001 
3.428899e-001 
3.210320e-001 
2.982680e-001 
2.691384e-001 
2.366986e-001 
2.059894e-001 
1.750268e-001 
1.453678e-001 
1.204550e-001 
9.963790e-002 
8.102290e-002 
6.281170e-002 
4.485714e-002 
3.167415e-002 
2.131139e-002 
1.340115e-002 
1.111668e-002 
1.465841e-002 
1.909225e-002 
2.480217e-002 
2.987298e-002 
3.333648e-002 
3.645099e-002 
3.949657e-002 
4.200003e-002 
4.367502e-002 
4.450891e-002 
4.106153e-002 
3.421752e-002 
2.413222e-002 
1.412478e-002 
7.261333e-003 
1.390812e-003 
-8.721778e-003 
-2.084914e-002 
-3.044125e-002 
-4.028047e-002 
-5.466490e-002 
-9.923537e-002 
-2.001820e-001 
-3.181047e-001 
-3.846896e-001 
-3.988852e-001 
-3.919596e-001 
-3.760631e-001 
-3.631996e-001 
-3.728067e-001 
-4.317548e-001 
-4.988149e-001 
-4.738959e-001 
-3.686776e-001 
-2.879645e-001 
-2.544672e-001 
-2.383475e-001 
-2.290402e-001 
-2.154049e-001 
-1.789766e-001 
-8.805284e-002 
4.677415e-002 
1.515853e-001 
1.971752e-001 
2.183774e-001 
2.347581e-001 
2.532336e-001 
2.779396e-001 
3.002558e-001 
3.187110e-001 
3.369810e-001 
3.532812e-001 
3.688468e-001 
3.823187e-001 
3.908945e-001 
3.994007e-001 
4.046119e-001 
3.981356e-001 
3.853564e-001 
3.720338e-001 
3.572859e-001 
3.406371e-001 
3.211502e-001 
3.000380e-001 
2.770985e-001 
2.501291e-001 
2.224995e-001 
2.001649e-001 
1.823641e-001 
1.654725e-001 
1.496296e-001 
1.359955e-001 
1.226495e-001 
1.087294e-001 
9.807477e-002 
9.146599e-002 
8.732208e-002 
8.326183e-002 
7.911973e-002 
7.864294e-002 
8.206459e-002 
8.555022e-002 
8.792866e-002 
9.068074e-002 
9.394095e-002 
9.653458e-002 
9.784244e-002 
9.946275e-002 
1.019991e-001 
1.039055e-001 
1.004765e-001 
9.336520e-002 
8.739064e-002 
8.218870e-002 
7.626754e-002 
6.923951e-002 
5.986878e-002 
4.843487e-002 
3.714901e-002 
2.711598e-002 
2.058838e-002 
-1.037102e-002 
-9.257403e-002 
-2.028839e-001 
-2.834065e-001 
-3.115836e-001 
-3.107397e-001 
-3.001524e-001 
-2.854136e-001 
-2.889703e-001 
-3.417698e-001 
-4.080852e-001 
-4.110125e-001 
-3.341365e-001 
-2.499822e-001 
-2.078828e-001 
-1.906251e-001 
-1.810038e-001 
-1.757922e-001 
-1.517274e-001 
-7.743926e-002 
3.797507e-002 
1.431231e-001 
2.012688e-001 
2.250964e-001 
2.407242e-001 
2.552003e-001 
2.724332e-001 
2.912978e-001 
3.057563e-001 
3.156414e-001 
3.268418e-001 
3.385188e-001 
3.446748e-001 
3.468953e-001 
3.473783e-001 
3.475923e-001 
3.414536e-001 
3.277807e-001 
3.112370e-001 
2.951066e-001 
2.753208e-001 
2.522652e-001 
2.293336e-001 
2.083655e-001 
1.861224e-001 
1.601041e-001 
1.358588e-001 
1.160891e-001 
9.948078e-002 
8.347355e-002 
6.891684e-002 
5.681056e-002 
4.616989e-002 
3.330284e-002 
2.202201e-002 
1.503299e-002 
1.005967e-002 
6.561496e-003 
7.133775e-003 
1.087836e-002 
1.494297e-002 
1.646785e-002 
1.627469e-002 
1.793287e-002 
2.014605e-002 
1.907734e-002 
1.665646e-002 
1.810675e-002 
1.556065e-002 
6.991777e-003 
-2.584130e-003 
-1.005201e-002 
-1.598878e-002 
-2.358165e-002 
-3.573666e-002 
-4.587868e-002 
-5.288889e-002 
-6.407202e-002 
-7.312283e-002 
-1.006646e-001 
-1.768125e-001 
-2.943978e-001 
-3.898059e-001 
-4.230647e-001 
-4.189050e-001 
-4.078413e-001 
-3.948766e-001 
-3.929265e-001 
-4.354535e-001 
-5.055397e-001 
-5.272124e-001 
-4.505961e-001 
-3.506272e-001 
-3.008052e-001 
-2.834791e-001 
-2.712549e-001 
-2.615141e-001 
-2.381788e-001 
-1.685942e-001 
-4.726479e-002 
7.637402e-002 
1.446672e-001 
1.700376e-001 
1.877010e-001 
2.062281e-001 
2.249843e-001 
2.440011e-001 
2.623522e-001 
2.760685e-001 
2.862271e-001 
2.963234e-001 
3.063465e-001 
3.134421e-001 
3.149558e-001 
3.112656e-001 
3.034981e-001 
2.912817e-001 
2.724949e-001 
2.526782e-001 
2.342990e-001 
2.138867e-001 
1.901544e-001 
1.651611e-001 
1.397888e-001 
1.151866e-001 
9.244703e-002 
7.247048e-002 
5.656030e-002 
4.172168e-002 
2.673362e-002 
1.498450e-002 
5.090421e-003 
-5.720169e-003 
-1.494404e-002 
-2.057525e-002 
-2.400694e-002 
-2.785339e-002 
-3.033856e-002 
-2.828672e-002 
-2.286080e-002 
-2.083278e-002 
-2.235445e-002 
-2.256776e-002 
-1.940515e-002 
-1.699520e-002 
-1.904778e-002 
-1.970127e-002 
-1.932626e-002 
-2.412888e-002 
-3.442459e-002 
-4.277337e-002 
-4.732080e-002 
-5.175352e-002 
-6.185356e-002 
-7.472324e-002 
-8.409416e-002 
-9.420516e-002 
-1.043595e-001 
-1.206912e-001 
-1.689677e-001 
-2.713968e-001 
-3.797539e-001 
-4.358311e-001 
-4.431816e-001 
-4.323408e-001 
-4.184560e-001 
-4.079599e-001 
-4.243268e-001 
-4.845584e-001 
-5.368928e-001 
-4.955440e-001 
-3.956855e-001 
-3.240147e-001 
-2.952114e-001 
-2.806874e-001 
-2.688115e-001 
-2.537840e-001 
-2.109080e-001 
-1.116662e-001 
1.649554e-002 
1.051151e-001 
1.427364e-001 
1.610947e-001 
1.788690e-001 
1.960267e-001 
2.136834e-001 
2.352810e-001 
2.549622e-001 
2.681503e-001 
2.783195e-001 
2.899850e-001 
2.996538e-001 
3.043519e-001 
3.048030e-001 
3.024216e-001 
2.959632e-001 
2.801933e-001 
2.591499e-001 
2.384939e-001 
2.191290e-001 
1.964323e-001 
1.718571e-001 
1.456015e-001 
1.194955e-001 
9.292666e-002 
6.743789e-002 
4.672983e-002 
3.087932e-002 
1.814118e-002 
5.080703e-003 
-6.583703e-003 
-1.663418e-002 
-2.401524e-002 
-2.915213e-002 
-3.095060e-002 
-3.117441e-002 
-2.959000e-002 
-2.781542e-002 
-2.795425e-002 
-2.570575e-002 
-2.044465e-002 
-1.467859e-002 
-8.944547e-003 
-2.646857e-003 
3.125679e-003 
8.762120e-003 
1.321856e-002 
1.845840e-002 
2.431015e-002 
2.802221e-002 
2.859971e-002 
2.807157e-002 
2.693351e-002 
2.415006e-002 
2.156697e-002 
2.099300e-002 
1.857482e-002 
1.213002e-002 
7.139399e-003 
3.342306e-003 
2.154322e-003 
-1.498094e-002 
-6.784090e-002 
-1.448500e-001 
-2.033662e-001 
-2.255838e-001 
-2.246712e-001 
-2.137167e-001 
-2.005021e-001 
-1.966047e-001 
-2.261592e-001 
-2.726587e-001 
-2.810064e-001 
-2.261416e-001 
-1.624103e-001 
-1.277143e-001 
-1.125937e-001 
-1.042372e-001 
-9.784074e-002 
-8.227293e-002 
-3.500221e-002 
4.721948e-002 
1.292718e-001 
1.741077e-001 
1.928426e-001 
2.050153e-001 
2.180822e-001 
2.323177e-001 
2.435243e-001 
2.527880e-001 
2.609947e-001 
2.672248e-001 
2.712556e-001 
2.751336e-001 
2.772484e-001 
2.755843e-001 
2.675275e-001 
2.547684e-001 
2.405336e-001 
2.237730e-001 
2.045515e-001 
1.850143e-001 
1.660823e-001 
1.438734e-001 
1.192028e-001 
9.473800e-002 
7.392107e-002 
5.541291e-002 
3.776008e-002 
2.191004e-002 
1.057834e-002 
-6.178144e-005 
-1.177419e-002 
-2.075951e-002 
-2.682748e-002 
-3.041704e-002 
-3.411772e-002 
-3.720768e-002 
-3.523690e-002 
-2.870790e-002 
-2.351169e-002 
-1.941757e-002 
-1.507410e-002 
-1.151165e-002 
-9.262072e-003 
-8.592121e-003 
-8.810008e-003 
-7.426506e-003 
-7.878651e-003 
-1.491547e-002 
-2.360308e-002 
-3.175529e-002 
-4.124899e-002 
-4.996773e-002 
-5.942113e-002 
-7.131076e-002 
-8.233007e-002 
-9.495193e-002 
-1.072532e-001 
-1.173945e-001 
-1.490570e-001 
-2.236411e-001 
-3.254855e-001 
-4.056735e-001 
-4.379789e-001 
-4.384328e-001 
-4.273395e-001 
-4.137444e-001 
-4.151904e-001 
-4.541815e-001 
-5.095194e-001 
-5.167759e-001 
-4.501913e-001 
-3.695422e-001 
-3.201111e-001 
-2.966154e-001 
-2.838446e-001 
-2.733311e-001 
-2.474345e-001 
-1.792501e-001 
-7.018703e-002 
3.444639e-002 
9.665740e-002 
1.275289e-001 
1.459781e-001 
1.632191e-001 
1.818807e-001 
2.025278e-001 
2.220232e-001 
2.367457e-001 
2.480595e-001 
2.609182e-001 
2.722293e-001 
2.795518e-001 
2.860141e-001 
2.879075e-001 
2.845898e-001 
2.756140e-001 
2.620179e-001 
2.475432e-001 
2.320678e-001 
2.127973e-001 
1.935791e-001 
1.726587e-001 
1.465371e-001 
1.212786e-001 
9.883294e-002 
7.906028e-002 
6.084024e-002 
4.306571e-002 
2.890225e-002 
1.739495e-002 
3.425081e-003 
-1.051005e-002 
-1.918608e-002 
-2.550002e-002 
-3.274020e-002 
-4.038219e-002 
-4.475733e-002 
-4.548836e-002 
-4.621025e-002 
-4.717052e-002 
-4.515551e-002 
-4.084924e-002 
-3.961676e-002 
-4.120601e-002 
-4.046970e-002 
-3.642726e-002 
-3.603345e-002 
-3.821498e-002 
-4.042640e-002 
-4.390067e-002 
-5.028067e-002 
-5.895306e-002 
-6.594657e-002 
-6.894492e-002 
-7.633745e-002 
-8.966469e-002 
-9.941776e-002 
-1.069826e-001 
-1.133568e-001 
-1.235852e-001 
-1.625364e-001 
-2.524468e-001 
-3.648681e-001 
-4.400329e-001 
-4.583569e-001 
-4.475648e-001 
-4.319188e-001 
-4.195334e-001 
-4.295964e-001 
-4.832639e-001 
-5.452545e-001 
-5.345639e-001 
-4.445557e-001 
-3.590366e-001 
-3.206329e-001 
-3.083139e-001 
-3.005865e-001 
-2.892388e-001 
-2.556377e-001 
-1.728197e-001 
-4.844330e-002 
5.909548e-002 
1.103698e-001 
1.296954e-001 
1.474727e-001 
1.694248e-001 
1.922551e-001 
2.138417e-001 
2.349614e-001 
2.560416e-001 
2.725392e-001 
2.850364e-001 
3.002131e-001 
3.133395e-001 
3.187027e-001 
3.170169e-001 
3.107745e-001 
3.000036e-001 
2.818737e-001 
2.594547e-001 
2.382182e-001 
2.164408e-001 
1.874736e-001 
1.543199e-001 
1.223472e-001 
9.193444e-002 
6.073362e-002 
3.177658e-002 
8.401141e-003 
-1.204356e-002 
-3.307521e-002 
-5.360609e-002 
-6.893687e-002 
-7.946191e-002 
-8.871936e-002 
-9.537432e-002 
-9.771939e-002 
-9.884466e-002 
-1.013670e-001 
-1.042857e-001 
-1.044810e-001 
-1.002133e-001 
-9.598598e-002 
-9.198925e-002 
-8.638316e-002 
-8.132631e-002 
-7.856816e-002 
-7.571676e-002 
-6.907763e-002 
-6.256257e-002 
-5.896846e-002 
-5.909446e-002 
-6.132996e-002 
-6.644925e-002 
-7.278064e-002 
-7.933375e-002 
-8.082915e-002 
-8.418241e-002 
-9.614404e-002 
-1.074067e-001 
-1.145515e-001 
-1.192357e-001 
-1.317456e-001 
-1.757857e-001 
-2.697843e-001 
-3.793113e-001 
-4.501104e-001 
-4.691366e-001 
-4.587903e-001 
-4.394449e-001 
-4.277360e-001 
-4.445033e-001 
-5.006271e-001 
-5.570807e-001 
-5.364527e-001 
-4.440416e-001 
-3.628949e-001 
-3.237949e-001 
-3.085260e-001 
-3.034496e-001 
-2.917974e-001 
-2.512974e-001 
-1.610169e-001 
-3.533638e-002 
6.663741e-002 
1.160148e-001 
1.367135e-001 
1.517671e-001 
1.704352e-001 
1.928993e-001 
2.140120e-001 
2.323631e-001 
2.498936e-001 
2.663682e-001 
2.792713e-001 
2.885235e-001 
2.972357e-001 
3.043633e-001 
3.048149e-001 
2.972489e-001 
2.854081e-001 
2.700356e-001 
2.491549e-001 
2.259071e-001 
2.034382e-001 
1.814932e-001 
1.551265e-001 
1.238302e-001 
9.256653e-002 
6.526479e-002 
3.954914e-002 
1.613564e-002 
-1.925292e-003 
-1.826459e-002 
-3.467123e-002 
-5.079014e-002 
-6.425140e-002 
-7.376416e-002 
-8.036681e-002 
-8.600019e-002 
-8.850435e-002 
-9.031928e-002 
-9.393632e-002 
-9.680778e-002 
-9.671935e-002 
-9.415576e-002 
-9.193685e-002 
-8.907846e-002 
-8.471068e-002 
-7.909630e-002 
-7.553194e-002 
-7.121852e-002 
-6.584188e-002 
-6.151895e-002 
-6.062343e-002 
-6.289308e-002 
-6.544894e-002 
-6.880209e-002 
-7.383544e-002 
-7.916242e-002 
-8.284771e-002 
-9.150409e-002 
-1.033208e-001 
-1.141948e-001 
-1.225160e-001 
-1.254302e-001 
-1.352252e-001 
-1.822756e-001 
-2.806768e-001 
-3.841218e-001 
-4.440057e-001 
-4.596100e-001 
-4.520282e-001 
-4.356204e-001 
-4.219167e-001 
-4.391413e-001 
-5.012206e-001 
-5.516082e-001 
-5.153666e-001 
-4.287739e-001 
-3.615045e-001 
-3.255765e-001 
-3.088244e-001 
-3.005772e-001 
-2.888296e-001 
-2.477588e-001 
-1.530404e-001 
-3.178197e-002 
5.680038e-002 
1.035659e-001 
1.292154e-001 
1.470112e-001 
1.659473e-001 
1.873529e-001 
2.076475e-001 
2.238954e-001 
2.373720e-001 
2.503755e-001 
2.630393e-001 
2.724671e-001 
2.778636e-001 
2.836528e-001 
2.861921e-001 
2.823029e-001 
2.725392e-001 
2.595129e-001 
2.442496e-001 
2.273988e-001 
2.088359e-001 
1.912681e-001 
1.735002e-001 
1.515898e-001 
1.284417e-001 
1.074964e-001 
8.807199e-002 
7.126325e-002 
5.921017e-002 
5.017358e-002 
4.129328e-002 
2.975006e-002 
1.935981e-002 
1.290191e-002 
7.451968e-003 
1.693311e-003 
2.309908e-005 
2.427572e-003 
5.483963e-003 
7.918788e-003 
1.256149e-002 
1.903125e-002 
2.353809e-002 
2.533391e-002 
2.933014e-002 
3.580693e-002 
3.899418e-002 
4.052090e-002 
4.197077e-002 
3.940829e-002 
3.375719e-002 
2.712546e-002 
2.270594e-002 
2.061655e-002 
1.236863e-002 
8.417502e-004 
-5.469790e-003 
-1.265661e-002 
-2.045766e-002 
-3.811537e-002 
-9.017806e-002 
-1.883104e-001 
-2.951828e-001 
-3.550245e-001 
-3.639735e-001 
-3.513289e-001 
-3.362256e-001 
-3.291157e-001 
-3.519850e-001 
-4.074831e-001 
-4.527104e-001 
-4.151122e-001 
-3.188877e-001 
-2.461320e-001 
-2.131981e-001 
-1.994449e-001 
-1.906703e-001 
-1.722437e-001 
-1.228256e-001 
-2.509072e-002 
1.008827e-001 
1.918480e-001 
2.329363e-001 
2.529680e-001 
2.720624e-001 
2.924775e-001 
3.119390e-001 
3.305570e-001 
3.476606e-001 
3.634619e-001 
3.750454e-001 
3.845806e-001 
3.964632e-001 
4.059105e-001 
4.071558e-001 
4.034206e-001 
3.960375e-001 
3.842379e-001 
3.675588e-001 
3.453536e-001 
3.248960e-001 
3.053578e-001 
2.806698e-001 
2.529637e-001 
2.267354e-001 
2.013520e-001 
1.764764e-001 
1.530316e-001 
1.347938e-001 
1.213168e-001 
1.057698e-001 
9.036434e-002 
7.969456e-002 
7.052342e-002 
6.100970e-002 
5.368939e-002 
5.047252e-002 
4.977786e-002 
4.674503e-002 
4.360288e-002 
4.785409e-002 
5.380923e-002 
5.541410e-002 
5.671778e-002 
5.760776e-002 
5.914456e-002 
6.121612e-002 
6.178096e-002 
6.277280e-002 
6.471530e-002 
5.923282e-002 
5.002713e-002 
4.113789e-002 
3.220472e-002 
2.618045e-002 
2.024985e-002 
9.640670e-003 
-2.831374e-003 
-1.453293e-002 
-2.724380e-002 
-3.591168e-002 
-7.173880e-002 
-1.513612e-001 
-2.673088e-001 
-3.685019e-001 
-4.115751e-001 
-4.125220e-001 
-3.999428e-001 
-3.826188e-001 
-3.835129e-001 
-4.304265e-001 
-4.902543e-001 
-5.125689e-001 
-4.446530e-001 
-3.436704e-001 
-2.839021e-001 
-2.603226e-001 
-2.470007e-001 
-2.387694e-001 
-2.117291e-001 
-1.384470e-001 
-2.020287e-002 
1.075819e-001 
1.829741e-001 
2.136380e-001 
2.315890e-001 
2.490880e-001 
2.673379e-001 
2.880494e-001 
3.101865e-001 
3.304715e-001 
3.471810e-001 
3.605279e-001 
3.739926e-001 
3.857964e-001 
3.931846e-001 
3.965266e-001 
3.956757e-001 
3.886356e-001 
3.741702e-001 
3.544268e-001 
3.317491e-001 
3.091081e-001 
2.850563e-001 
2.580122e-001 
2.281320e-001 
1.967152e-001 
1.643678e-001 
1.332504e-001 
1.065776e-001 
8.457918e-002 
6.495229e-002 
4.597616e-002 
2.870478e-002 
1.364934e-002 
-3.200555e-004 
-1.146788e-002 
-1.730241e-002 
-2.004742e-002 
-2.298000e-002 
-2.627847e-002 
-2.625062e-002 
-2.191787e-002 
-1.786763e-002 
-1.486857e-002 
-9.717715e-003 
-6.501147e-003 
-4.780162e-003 
-2.368730e-003 
-6.166373e-004 
1.426346e-003 
1.180212e-003 
-3.935914e-003 
-1.011284e-002 
-1.821270e-002 
-2.720473e-002 
-3.188537e-002 
-3.825053e-002 
-5.036351e-002 
-6.106142e-002 
-7.058185e-002 
-8.058276e-002 
-1.187459e-001 
-2.083047e-001 
-3.255243e-001 
-4.143009e-001 
-4.491175e-001 
-4.497578e-001 
-4.370441e-001 
-4.214236e-001 
-4.241023e-001 
-4.756613e-001 
-5.400564e-001 
-5.445424e-001 
-4.638048e-001 
-3.671529e-001 
-3.129732e-001 
-2.917051e-001 
-2.790580e-001 
-2.678005e-001 
-2.373207e-001 
-1.563378e-001 
-3.110675e-002 
8.925427e-002 
1.573090e-001 
1.836642e-001 
1.984369e-001 
2.162112e-001 
2.373492e-001 
2.577225e-001 
2.744291e-001 
2.912030e-001 
3.065314e-001 
3.198820e-001 
3.306172e-001 
3.392047e-001 
3.472542e-001 
3.516282e-001 
3.468102e-001 
3.369851e-001 
3.259887e-001 
3.105240e-001 
2.927895e-001 
2.715969e-001 
2.493419e-001 
2.265680e-001 
2.001378e-001 
1.715451e-001 
1.471112e-001 
1.244017e-001 
1.029598e-001 
8.397609e-002 
6.643053e-002 
5.170416e-002 
3.698529e-002 
2.386740e-002 
1.404721e-002 
6.591039e-003 
2.038696e-004 
-3.426875e-003 
-5.081063e-003 
-4.325583e-003 
-2.372483e-003 
9.384314e-004 
8.248652e-003 
1.472112e-002 
1.691505e-002 
1.934848e-002 
2.329144e-002 
2.781967e-002 
2.957314e-002 
2.811206e-002 
2.691424e-002 
2.419453e-002 
1.553850e-002 
4.155068e-003 
-2.755682e-003 
-8.462103e-003 
-1.742608e-002 
-3.176658e-002 
-4.309034e-002 
-5.140815e-002 
-6.469386e-002 
-1.113519e-001 
-2.113063e-001 
-3.266444e-001 
-3.994580e-001 
-4.210300e-001 
-4.154545e-001 
-3.989002e-001 
-3.855696e-001 
-3.949773e-001 
-4.533202e-001 
-5.149872e-001 
-4.943963e-001 
-3.988160e-001 
-3.125620e-001 
-2.698735e-001 
-2.534998e-001 
-2.436435e-001 
-2.295810e-001 
-1.928264e-001 
-1.017706e-001 
2.861033e-002 
1.357652e-001 
1.871922e-001 
2.058397e-001 
2.193875e-001 
2.384232e-001 
2.582562e-001 
2.758634e-001 
2.923833e-001 
3.083189e-001 
3.217465e-001 
3.307227e-001 
3.389272e-001 
3.486845e-001 
3.553526e-001 
3.545704e-001 
3.486912e-001 
3.396921e-001 
3.276753e-001 
3.097896e-001 
2.890050e-001 
2.701352e-001 
2.512441e-001 
2.276807e-001 
2.005229e-001 
1.741249e-001 
1.511235e-001 
1.302898e-001 
1.088259e-001 
9.207903e-002 
7.933893e-002 
6.712717e-002 
5.265777e-002 
3.820007e-002 
2.802573e-002 
2.278944e-002 
1.784577e-002 
1.417749e-002 
1.848615e-002 
2.622753e-002 
3.313480e-002 
3.739676e-002 
4.204638e-002 
4.832503e-002 
5.437248e-002 
5.471748e-002 
5.571252e-002 
5.894368e-002 
5.706642e-002 
5.126747e-002 
4.374300e-002 
3.639501e-002 
2.958590e-002 
2.047787e-002 
7.568901e-003 
-2.902460e-003 
-1.250141e-002 
-2.280489e-002 
-4.207221e-002 
-9.700809e-002 
-2.043813e-001 
-3.172227e-001 
-3.764458e-001 
-3.871214e-001 
-3.780727e-001 
-3.624169e-001 
-3.512581e-001 
-3.683770e-001 
-4.289898e-001 
-4.802889e-001 
-4.383004e-001 
-3.348467e-001 
-2.602107e-001 
-2.264584e-001 
-2.085246e-001 
-1.957437e-001 
-1.783648e-001 
-1.311714e-001 
-2.820082e-002 
1.026941e-001 
1.953312e-001 
2.366962e-001 
2.569044e-001 
2.730214e-001 
2.900659e-001 
3.087883e-001 
3.266037e-001 
3.398737e-001 
3.499973e-001 
3.605541e-001 
3.712593e-001 
3.785997e-001 
3.823830e-001 
3.829055e-001 
3.776667e-001 
3.654299e-001 
3.488117e-001 
3.315097e-001 
3.142090e-001 
2.940950e-001 
2.722441e-001 
2.496837e-001 
2.245406e-001 
1.982754e-001 
1.740136e-001 
1.534784e-001 
1.369245e-001 
1.219030e-001 
1.069912e-001 
9.515575e-002 
8.281912e-002 
6.958837e-002 
5.964661e-002 
5.400414e-002 
5.024823e-002 
4.820418e-002 
5.010899e-002 
5.552957e-002 
6.240723e-002 
6.533011e-002 
6.569313e-002 
6.879180e-002 
7.342590e-002 
7.377278e-002 
7.245299e-002 
7.321063e-002 
7.136797e-002 
6.434749e-002 
5.204829e-002 
4.218925e-002 
3.806000e-002 
3.039668e-002 
1.551702e-002 
2.011701e-003 
-6.593669e-003 
-1.772659e-002 
-3.110937e-002 
-6.982625e-002 
-1.552085e-001 
-2.738265e-001 
-3.658013e-001 
-3.970212e-001 
-3.917364e-001 
-3.774810e-001 
-3.643161e-001 
-3.663705e-001 
-4.138129e-001 
-4.782020e-001 
-4.845719e-001 
-3.995111e-001 
-3.011845e-001 
-2.515822e-001 
-2.323108e-001 
-2.175698e-001 
-2.026557e-001 
-1.719485e-001 
-9.321096e-002 
3.128771e-002 
1.517946e-001 
2.159916e-001 
2.395741e-001 
2.566363e-001 
2.755142e-001 
2.932811e-001 
3.092177e-001 
3.254053e-001 
3.397147e-001 
3.518096e-001 
3.620113e-001 
3.731156e-001 
3.818196e-001 
3.857539e-001 
3.838611e-001 
3.763979e-001 
3.656798e-001 
3.496986e-001 
3.306562e-001 
3.148822e-001 
2.984891e-001 
2.754275e-001 
2.496597e-001 
2.226260e-001 
1.966953e-001 
1.736962e-001 
1.518004e-001 
1.342291e-001 
1.207408e-001 
1.037871e-001 
8.479341e-002 
6.947318e-002 
5.748332e-002 
4.798114e-002 
4.166692e-002 
3.844462e-002 
4.030138e-002 
4.290875e-002 
4.542209e-002 
5.038839e-002 
5.516628e-002 
5.779768e-002 
6.045193e-002 
6.093132e-002 
6.062287e-002 
5.931826e-002 
5.184740e-002 
4.430727e-002 
3.735835e-002 
2.669295e-002 
1.637565e-002 
6.586539e-003 
-7.048887e-003 
-1.991549e-002 
-3.525691e-002 
-5.025140e-002 
-5.366079e-002 
-7.481593e-002 
-1.473371e-001 
-2.612803e-001 
-3.587821e-001 
-4.026077e-001 
-4.097354e-001 
-4.026173e-001 
-3.834134e-001 
-3.710041e-001 
-4.078310e-001 
-4.803610e-001 
-5.104777e-001 
-4.475294e-001 
-3.573518e-001 
-3.019990e-001 
-2.747688e-001 
-2.592604e-001 
-2.526986e-001 
-2.398380e-001 
-1.847437e-001 
-7.469077e-002 
4.524727e-002 
1.185882e-001 
1.526999e-001 
1.714478e-001 
1.861897e-001 
2.014786e-001 
2.175029e-001 
2.321187e-001 
2.435847e-001 
2.544661e-001 
2.644471e-001 
2.723074e-001 
2.779048e-001 
2.818366e-001 
2.832383e-001 
2.782829e-001 
2.659372e-001 
2.520367e-001 
2.381494e-001 
2.206874e-001 
2.031323e-001 
1.866599e-001 
1.682226e-001 
1.456742e-001 
1.211185e-001 
9.988714e-002 
8.392436e-002 
6.915162e-002 
5.549255e-002 
4.533758e-002 
3.456486e-002 
2.159632e-002 
1.010839e-002 
3.086977e-003 
8.505941e-004 
3.382301e-003 
8.456662e-003 
1.671423e-002 
2.481569e-002 
2.887386e-002 
3.324859e-002 
3.893053e-002 
4.102725e-002 
4.178999e-002 
4.099860e-002 
3.840588e-002 
3.471679e-002 
2.571597e-002 
1.646919e-002 
1.133966e-002 
4.190494e-003 
-7.931905e-003 
-2.087768e-002 
-3.298626e-002 
-4.180946e-002 
-6.470954e-002 
-1.235606e-001 
-2.241992e-001 
-3.260770e-001 
-3.845219e-001 
-4.016725e-001 
-3.958357e-001 
-3.803403e-001 
-3.710798e-001 
-3.920219e-001 
-4.460578e-001 
-4.874411e-001 
-4.499428e-001 
-3.626483e-001 
-2.938603e-001 
-2.579418e-001 
-2.413077e-001 
-2.302563e-001 
-2.111247e-001 
-1.627078e-001 
-6.870732e-002 
4.971851e-002 
1.384428e-001 
1.824628e-001 
2.012858e-001 
2.136854e-001 
2.293769e-001 
2.468895e-001 
2.604931e-001 
2.700386e-001 
2.810622e-001 
2.916721e-001 
2.979840e-001 
3.011898e-001 
3.050849e-001 
3.087724e-001 
3.058905e-001 
2.958940e-001 
2.843612e-001 
2.721808e-001 
2.560484e-001 
2.364073e-001 
2.185761e-001 
2.020758e-001 
1.814613e-001 
1.573412e-001 
1.365840e-001 
1.197677e-001 
1.032344e-001 
8.790628e-002 
7.593009e-002 
6.671802e-002 
5.542274e-002 
4.224717e-002 
3.251085e-002 
2.741772e-002 
2.326078e-002 
2.231635e-002 
2.698571e-002 
3.273767e-002 
3.545677e-002 
3.620188e-002 
3.859344e-002 
3.973913e-002 
3.536677e-002 
3.095482e-002 
2.793551e-002 
2.134416e-002 
8.970506e-003 
-4.438037e-003 
-1.407261e-002 
-2.346698e-002 
-3.989738e-002 
-5.764043e-002 
-6.915413e-002 
-8.230132e-002 
-9.681550e-002 
-1.281672e-001 
-1.924968e-001 
-2.993005e-001 
-4.074948e-001 
-4.660447e-001 
-4.750499e-001 
-4.632658e-001 
-4.510091e-001 
-4.488971e-001 
-4.785080e-001 
-5.342705e-001 
-5.741454e-001 
-5.312447e-001 
-4.373796e-001 
-3.658841e-001 
-3.346992e-001 
-3.228832e-001 
-3.131235e-001 
-2.913779e-001 
-2.351582e-001 
-1.345489e-001 
-1.157062e-002 
7.746629e-002 
1.186328e-001 
1.345109e-001 
1.472769e-001 
1.645694e-001 
1.850549e-001 
2.036764e-001 
2.178732e-001 
2.331200e-001 
2.470411e-001 
2.563651e-001 
2.619695e-001 
2.675881e-001 
2.728680e-001 
2.724907e-001 
2.646536e-001 
2.536774e-001 
2.398718e-001 
2.216509e-001 
2.011197e-001 
1.806090e-001 
1.595005e-001 
1.350694e-001 
1.092312e-001 
8.522783e-002 
6.348967e-002 
4.254179e-002 
2.462066e-002 
1.065616e-002 
-1.951838e-003 
-1.533420e-002 
-2.662880e-002 
-3.501945e-002 
-4.121682e-002 
-4.408325e-002 
-4.188468e-002 
-3.518997e-002 
-2.858270e-002 
-2.586592e-002 
-2.318088e-002 
-1.929849e-002 
-1.820130e-002 
-2.013553e-002 
-2.049840e-002 
-2.168259e-002 
-2.859841e-002 
-4.036934e-002 
-5.153148e-002 
-5.942085e-002 
-6.859986e-002 
-8.185417e-002 
-9.428390e-002 
-1.021975e-001 
-1.125122e-001 
-1.276988e-001 
-1.650712e-001 
-2.445470e-001 
-3.505555e-001 
-4.298711e-001 
-4.594139e-001 
-4.568452e-001 
-4.445991e-001 
-4.341345e-001 
-4.400269e-001 
-4.834725e-001 
-5.394703e-001 
-5.415392e-001 
-4.684753e-001 
-3.862129e-001 
-3.400392e-001 
-3.213897e-001 
-3.100200e-001 
-2.988687e-001 
-2.698402e-001 
-1.980298e-001 
-8.634793e-002 
1.836760e-002 
7.542150e-002 
9.881187e-002 
1.138506e-001 
1.297146e-001 
1.436517e-001 
1.575728e-001 
1.716241e-001 
1.847878e-001 
1.924956e-001 
1.973525e-001 
2.043103e-001 
2.112331e-001 
2.130374e-001 
2.090185e-001 
2.032104e-001 
1.953936e-001 
1.814042e-001 
1.619824e-001 
1.439488e-001 
1.273842e-001 
1.084803e-001 
8.653677e-002 
6.569062e-002 
4.734721e-002 
2.933102e-002 
1.026177e-002 
-5.563005e-003 
-1.730846e-002 
-2.756785e-002 
-3.779340e-002 
-4.617760e-002 
-5.291759e-002 
-6.019844e-002 
-6.523061e-002 
-6.413777e-002 
-5.772192e-002 
-5.130025e-002 
-4.489961e-002 
-3.793276e-002 
-3.136644e-002 
-2.892422e-002 
-3.116713e-002 
-3.081090e-002 
-2.797345e-002 
-3.245912e-002 
-4.130361e-002 
-4.859724e-002 
-5.533500e-002 
-6.350062e-002 
-7.545045e-002 
-8.771619e-002 
-9.565806e-002 
-1.053827e-001 
-1.159524e-001 
-1.241045e-001 
-1.627053e-001 
-2.584985e-001 
-3.611226e-001 
-4.154343e-001 
-4.292766e-001 
-4.261073e-001 
-4.163393e-001 
-4.029174e-001 
-4.100091e-001 
-4.709373e-001 
-5.295111e-001 
-4.938673e-001 
-4.056761e-001 
-3.451883e-001 
-3.157278e-001 
-2.991355e-001 
-2.885958e-001 
-2.811199e-001 
-2.538966e-001 
-1.688905e-001 
-5.102108e-002 
2.994435e-002 
6.759503e-002 
8.902922e-002 
1.066411e-001 
1.223324e-001 
1.373131e-001 
1.526225e-001 
1.656892e-001 
1.743052e-001 
1.800400e-001 
1.877666e-001 
1.943971e-001 
1.972044e-001 
1.976077e-001 
1.969785e-001 
1.924271e-001 
1.824022e-001 
1.693500e-001 
1.576419e-001 
1.456083e-001 
1.295711e-001 
1.121769e-001 
9.605814e-002 
8.063112e-002 
6.392721e-002 
4.814184e-002 
3.701016e-002 
3.089643e-002 
2.421367e-002 
1.690876e-002 
1.161514e-002 
9.180703e-003 
6.285922e-003 
4.004816e-003 
6.951475e-003 
1.546405e-002 
2.561895e-002 
3.235230e-002 
3.847074e-002 
4.563340e-002 
5.150428e-002 
5.080147e-002 
5.110637e-002 
5.136396e-002 
4.737527e-002 
3.867844e-002 
2.747607e-002 
1.885779e-002 
9.736170e-003 
-3.963184e-003 
-1.851923e-002 
-2.768449e-002 
-4.014048e-002 
-5.210846e-002 
-8.044003e-002 
-1.481939e-001 
-2.524325e-001 
-3.414050e-001 
-3.755551e-001 
-3.733536e-001 
-3.634766e-001 
-3.522300e-001 
-3.473760e-001 
-3.794939e-001 
-4.380684e-001 
-4.600750e-001 
-3.947278e-001 
-3.034098e-001 
-2.544260e-001 
-2.368251e-001 
-2.235934e-001 
-2.118118e-001 
-1.899788e-001 
-1.311249e-001 
-2.566765e-002 
8.661829e-002 
1.508469e-001 
1.757200e-001 
1.928013e-001 
2.108843e-001 
2.281178e-001 
2.436237e-001 
2.570495e-001 
2.674431e-001 
2.749723e-001 
2.821642e-001 
2.892462e-001 
2.941083e-001 
2.940581e-001 
2.888281e-001 
2.794461e-001 
2.663426e-001 
2.493381e-001 
2.320940e-001 
2.150719e-001 
1.966942e-001 
1.751688e-001 
1.524524e-001 
1.317919e-001 
1.135583e-001 
9.664706e-002 
8.284044e-002 
7.251012e-002 
6.362289e-002 
5.485609e-002 
4.660096e-002 
4.139150e-002 
3.829447e-002 
3.630349e-002 
3.808537e-002 
4.464337e-002 
5.181417e-002 
5.785066e-002 
6.288011e-002 
6.817309e-002 
7.228290e-002 
7.154582e-002 
6.810620e-002 
6.710063e-002 
6.307914e-002 
5.323746e-002 
4.219232e-002 
3.272370e-002 
2.534732e-002 
1.378457e-002 
-2.389189e-003 
-1.538323e-002 
-2.411250e-002 
-3.582964e-002 
-4.937079e-002 
-8.664204e-002 
-1.689201e-001 
-2.786982e-001 
-3.576908e-001 
-3.799924e-001 
-3.718771e-001 
-3.568412e-001 
-3.452800e-001 
-3.514368e-001 
-3.986277e-001 
-4.577068e-001 
-4.575522e-001 
-3.749832e-001 
-2.893707e-001 
-2.475514e-001 
-2.323428e-001 
-2.237278e-001 
-2.124731e-001 
-1.827017e-001 
-1.077428e-001 
9.394090e-003 
1.172669e-001 
1.726264e-001 
1.961027e-001 
2.137501e-001 
2.353743e-001 
2.572718e-001 
2.773949e-001 
2.977081e-001 
3.172558e-001 
3.329550e-001 
3.452198e-001 
3.563576e-001 
3.654613e-001 
3.685843e-001 
3.646884e-001 
3.575111e-001 
3.462252e-001 
3.294020e-001 
3.093177e-001 
2.898547e-001 
2.699791e-001 
2.450373e-001 
2.162830e-001 
1.886730e-001 
1.637431e-001 
1.396803e-001 
1.176187e-001 
1.007872e-001 
8.784348e-002 
7.305414e-002 
5.820647e-002 
4.859604e-002 
4.259894e-002 
3.862914e-002 
3.578053e-002 
3.679345e-002 
4.345108e-002 
4.960021e-002 
5.412318e-002 
6.012438e-002 
6.471583e-002 
6.735235e-002 
7.054507e-002 
7.358765e-002 
7.644126e-002 
7.755891e-002 
7.369829e-002 
6.716970e-002 
5.855495e-002 
4.878637e-002 
4.195989e-002 
3.537493e-002 
2.371526e-002 
9.684266e-003 
-3.575428e-003 
-1.546219e-002 
-2.907495e-002 
-6.945068e-002 
-1.550563e-001 
-2.608381e-001 
-3.321349e-001 
-3.522650e-001 
-3.475462e-001 
-3.357140e-001 
-3.232895e-001 
-3.313254e-001 
-3.808129e-001 
-4.376759e-001 
-4.287963e-001 
-3.438706e-001 
-2.632512e-001 
-2.280274e-001 
-2.134154e-001 
-2.029096e-001 
-1.916571e-001 
-1.592924e-001 
-8.084488e-002 
3.484802e-002 
1.345589e-001 
1.825942e-001 
2.023083e-001 
2.189497e-001 
2.377903e-001 
2.586460e-001 
2.790028e-001 
2.958789e-001 
3.106040e-001 
3.259734e-001 
3.398486e-001 
3.503534e-001 
3.569784e-001 
3.591756e-001 
3.555057e-001 
3.452958e-001 
3.288844e-001 
3.118802e-001 
2.944740e-001 
2.727184e-001 
2.483348e-001 
2.228867e-001 
1.948195e-001 
1.655388e-001 
1.360131e-001 
1.096435e-001 
8.902583e-002 
6.897791e-002 
4.985457e-002 
3.383742e-002 
1.986573e-002 
6.995633e-003 
-2.936004e-003 
-9.726611e-003 
-1.262870e-002 
-1.568930e-002 
-1.919768e-002 
-2.029162e-002 
-1.861744e-002 
-1.608865e-002 
-1.280751e-002 
-7.960076e-003 
-4.388306e-003 
-3.500828e-003 
-2.017588e-003 
2.895791e-003 
6.647298e-003 
7.609572e-003 
5.505440e-003 
1.297264e-003 
-5.130569e-003 
-1.450566e-002 
-2.309339e-002 
-2.705034e-002 
-3.316785e-002 
-4.599304e-002 
-5.841514e-002 
-6.857214e-002 
-7.290609e-002 
-9.608101e-002 
-1.636368e-001 
-2.715849e-001 
-3.613464e-001 
-3.969794e-001 
-3.988001e-001 
-3.884018e-001 
-3.724634e-001 
-3.662591e-001 
-4.043718e-001 
-4.705469e-001 
-4.983237e-001 
-4.309296e-001 
-3.376109e-001 
-2.863043e-001 
-2.674051e-001 
-2.578476e-001 
-2.522418e-001 
-2.353095e-001 
-1.783349e-001 
-7.244906e-002 
4.210580e-002 
1.072877e-001 
1.335015e-001 
1.482634e-001 
1.642677e-001 
1.837171e-001 
2.034823e-001 
2.214437e-001 
2.372076e-001 
2.516749e-001 
2.663504e-001 
2.788194e-001 
2.878965e-001 
2.939027e-001 
2.961010e-001 
2.916979e-001 
2.824201e-001 
2.690990e-001 
2.537363e-001 
2.356001e-001 
2.146650e-001 
1.924073e-001 
1.685382e-001 
1.410256e-001 
1.126446e-001 
8.769398e-002 
6.519426e-002 
4.413572e-002 
2.499853e-002 
9.519228e-003 
-4.280388e-003 
-1.803973e-002 
-3.192699e-002 
-4.144037e-002 
-4.674878e-002 
-5.137215e-002 
-5.500496e-002 
-5.580156e-002 
-5.660070e-002 
-5.854603e-002 
-5.955704e-002 
-5.774878e-002 
-5.333665e-002 
-4.941999e-002 
-4.531493e-002 
-3.943414e-002 
-3.474949e-002 
-3.189954e-002 
-2.539246e-002 
-1.802420e-002 
-1.291911e-002 
-1.288888e-002 
-1.640688e-002 
-1.887747e-002 
-2.269669e-002 
-2.951767e-002 
-3.437128e-002 
-3.862945e-002 
-4.882054e-002 
-6.196268e-002 
-7.494802e-002 
-8.228640e-002 
-8.721173e-002 
-1.187900e-001 
-1.993327e-001 
-3.080739e-001 
-3.879905e-001 
-4.176108e-001 
-4.176441e-001 
-4.059388e-001 
-3.896886e-001 
-3.914652e-001 
-4.386913e-001 
-5.015057e-001 
-5.042391e-001 
-4.261665e-001 
-3.424440e-001 
-2.975674e-001 
-2.772232e-001 
-2.646783e-001 
-2.562136e-001 
-2.316715e-001 
-1.588101e-001 
-4.159280e-002 
6.675671e-002 
1.265328e-001 
1.544404e-001 
1.729957e-001 
1.903348e-001 
2.079713e-001 
2.269101e-001 
2.439741e-001 
2.571111e-001 
2.672508e-001 
2.774796e-001 
2.858555e-001 
2.912709e-001 
2.957774e-001 
2.988651e-001 
2.953586e-001 
2.845264e-001 
2.709042e-001 
2.554432e-001 
2.387488e-001 
2.202921e-001 
2.018795e-001 
1.827977e-001 
1.607936e-001 
1.359195e-001 
1.142336e-001 
9.714447e-002 
8.048348e-002 
6.526560e-002 
5.215603e-002 
4.013765e-002 
2.651501e-002 
1.243950e-002 
5.549543e-004 
-7.678943e-003 
-1.505691e-002 
-2.224257e-002 
-2.658403e-002 
-2.883245e-002 
-3.120540e-002 
-3.304319e-002 
-3.097024e-002 
-2.764222e-002 
-2.454291e-002 
-2.212823e-002 
-1.933689e-002 
-1.463462e-002 
-9.856407e-003 
-8.423684e-003 
-5.847999e-003 
-2.891178e-003 
-6.523306e-003 
-1.369847e-002 
-1.970419e-002 
-2.354552e-002 
-2.769223e-002 
-3.687218e-002 
-4.926986e-002 
-5.613952e-002 
-6.363069e-002 
-6.952182e-002 
-8.762957e-002 
-1.434333e-001 
-2.473336e-001 
-3.488321e-001 
-3.987925e-001 
-4.060773e-001 
-3.958503e-001 
-3.795489e-001 
-3.706750e-001 
-4.009519e-001 
-4.655030e-001 
-5.071477e-001 
-4.564151e-001 
-3.645532e-001 
-3.050431e-001 
-2.788017e-001 
-2.645095e-001 
-2.587528e-001 
-2.471533e-001 
-1.996646e-001 
-9.796271e-002 
2.420611e-002 
1.017890e-001 
1.369030e-001 
1.572693e-001 
1.759963e-001 
1.925625e-001 
2.079718e-001 
2.246931e-001 
2.416662e-001 
2.530088e-001 
2.606609e-001 
2.695922e-001 
2.787280e-001 
2.842986e-001 
2.845193e-001 
2.820629e-001 
2.765141e-001 
2.647369e-001 
2.479151e-001 
2.323251e-001 
2.187213e-001 
2.024278e-001 
1.823031e-001 
1.620653e-001 
1.424181e-001 
1.216659e-001 
1.016314e-001 
8.779636e-002 
7.903658e-002 
6.864289e-002 
5.676681e-002 
4.728308e-002 
3.914881e-002 
2.996633e-002 
2.192642e-002 
1.770148e-002 
1.732150e-002 
1.653385e-002 
1.788779e-002 
2.371226e-002 
3.059210e-002 
3.504922e-002 
3.945711e-002 
4.465285e-002 
4.976664e-002 
5.217237e-002 
5.380348e-002 
5.732608e-002 
5.629052e-002 
5.094443e-002 
4.490757e-002 
4.044941e-002 
3.596597e-002 
2.892250e-002 
1.849040e-002 
1.044763e-002 
2.343020e-003 
-7.046151e-003 
-1.499765e-002 
-4.725693e-002 
-1.310671e-001 
-2.385983e-001 
-3.152755e-001 
-3.446951e-001 
-3.448305e-001 
-3.357215e-001 
-3.231846e-001 
-3.265483e-001 
-3.773263e-001 
-4.403168e-001 
-4.350156e-001 
-3.599754e-001 
-2.834651e-001 
-2.408755e-001 
-2.224274e-001 
-2.132429e-001 
-2.059424e-001 
-1.815937e-001 
-1.094497e-001 
3.043123e-003 
1.022137e-001 
1.570953e-001 
1.808735e-001 
1.960037e-001 
2.123999e-001 
2.307721e-001 
2.468562e-001 
2.592605e-001 
2.721342e-001 
2.836550e-001 
2.913525e-001 
2.975648e-001 
3.047058e-001 
3.103228e-001 
3.124207e-001 
3.094010e-001 
3.039211e-001 
2.964952e-001 
2.839744e-001 
2.690966e-001 
2.549075e-001 
2.396839e-001 
2.212455e-001 
2.010409e-001 
1.814328e-001 
1.642363e-001 
1.471454e-001 
1.325853e-001 
1.231326e-001 
1.156174e-001 
1.070204e-001 
9.842677e-002 
9.158710e-002 
8.601815e-002 
8.009529e-002 
7.566159e-002 
7.632578e-002 
7.969487e-002 
8.416203e-002 
9.105344e-002 
9.911498e-002 
1.058763e-001 
1.093494e-001 
1.122326e-001 
1.149694e-001 
1.149627e-001 
1.129651e-001 
1.105765e-001 
1.059788e-001 
9.757019e-002 
8.777102e-002 
7.893915e-002 
7.152311e-002 
6.029187e-002 
4.872408e-002 
4.000136e-002 
3.467557e-002 
8.561440e-003 
-5.905912e-002 
-1.696876e-001 
-2.669999e-001 
-3.078246e-001 
-3.122254e-001 
-3.033386e-001 
-2.886969e-001 
-2.846328e-001 
-3.193100e-001 
-3.803539e-001 
-4.120789e-001 
-3.501800e-001 
-2.537724e-001 
-1.969920e-001 
-1.754957e-001 
-1.646247e-001 
-1.580626e-001 
-1.375562e-001 
-7.788564e-002 
2.713282e-002 
1.468483e-001 
2.220733e-001 
2.529376e-001 
2.680868e-001 
2.843204e-001 
3.054937e-001 
3.298928e-001 
3.490991e-001 
3.640578e-001 
3.820642e-001 
3.979009e-001 
4.074341e-001 
4.148881e-001 
4.215924e-001 
4.263045e-001 
4.231914e-001 
4.118276e-001 
3.992540e-001 
3.831047e-001 
3.602971e-001 
3.368807e-001 
3.146439e-001 
2.896740e-001 
2.614179e-001 
2.313905e-001 
2.050030e-001 
1.818181e-001 
1.584837e-001 
1.384049e-001 
1.239040e-001 
1.096833e-001 
9.409527e-002 
8.055467e-002 
7.219399e-002 
6.738245e-002 
6.198867e-002 
5.725738e-002 
5.733140e-002 
6.140115e-002 
6.420726e-002 
6.632343e-002 
6.986284e-002 
7.318245e-002 
7.408098e-002 
7.422199e-002 
7.367851e-002 
7.338055e-002 
7.164287e-002 
6.538002e-002 
5.790798e-002 
4.974443e-002 
4.034907e-002 
3.297396e-002 
2.493727e-002 
1.209128e-002 
-1.289272e-003 
-1.249360e-002 
-2.032609e-002 
-3.704292e-002 
-8.756064e-002 
-1.861843e-001 
-2.880639e-001 
-3.390720e-001 
-3.481034e-001 
-3.411195e-001 
-3.256672e-001 
-3.160790e-001 
-3.364485e-001 
-3.939607e-001 
-4.430010e-001 
-4.031996e-001 
-3.072091e-001 
-2.432248e-001 
-2.179261e-001 
-2.044903e-001 
-1.979309e-001 
-1.845750e-001 
-1.419162e-001 
-5.074410e-002 
6.694523e-002 
1.482939e-001 
1.810334e-001 
1.966582e-001 
2.115127e-001 
2.281818e-001 
2.489510e-001 
2.682778e-001 
2.826074e-001 
2.946054e-001 
3.082625e-001 
3.209127e-001 
3.299551e-001 
3.351326e-001 
3.386066e-001 
3.379749e-001 
3.292959e-001 
3.141470e-001 
2.973226e-001 
2.802915e-001 
2.592539e-001 
2.345917e-001 
2.104603e-001 
1.859539e-001 
1.583482e-001 
1.298145e-001 
1.042074e-001 
8.314502e-002 
6.388909e-002 
4.541653e-002 
3.035374e-002 
1.798202e-002 
4.882033e-003 
-7.215294e-003 
-1.517224e-002 
-1.956321e-002 
-2.317492e-002 
-2.675640e-002 
-2.733324e-002 
-2.508406e-002 
-2.300223e-002 
-2.128502e-002 
-1.748333e-002 
-1.392310e-002 
-1.357009e-002 
-1.403531e-002 
-1.161970e-002 
-8.964191e-003 
-8.710892e-003 
-1.098055e-002 
-1.581423e-002 
-2.150045e-002 
-3.031145e-002 
-3.977904e-002 
-4.522434e-002 
-5.130435e-002 
-6.332563e-002 
-7.426766e-002 
-8.345901e-002 
-9.259035e-002 
-1.244749e-001 
-2.007483e-001 
-3.033253e-001 
-3.792021e-001 
-4.094177e-001 
-4.131657e-001 
-4.037799e-001 
-3.913668e-001 
-3.941362e-001 
-4.376186e-001 
-4.953653e-001 
-5.016754e-001 
-4.313832e-001 
-3.525900e-001 
-3.088973e-001 
-2.884838e-001 
-2.767881e-001 
-2.674383e-001 
-2.420649e-001 
-1.738704e-001 
-6.682744e-002 
3.543468e-002 
9.429561e-002 
1.218012e-001 
1.373470e-001 
1.534866e-001 
1.718175e-001 
1.899750e-001 
2.043676e-001 
2.153829e-001 
2.280886e-001 
2.407353e-001 
2.473791e-001 
2.510858e-001 
2.548576e-001 
2.538380e-001 
2.450909e-001 
2.298195e-001 
2.136129e-001 
1.961829e-001 
1.743857e-001 
1.511200e-001 
1.290068e-001 
1.053567e-001 
7.824327e-002 
5.001205e-002 
2.588359e-002 
6.569728e-003 
-1.246292e-002 
-2.904081e-002 
-4.116632e-002 
-5.404658e-002 
-6.828717e-002 
-8.159042e-002 
-9.089000e-002 
-9.523764e-002 
-9.907198e-002 
-1.036985e-001 
-1.037514e-001 
-1.012323e-001 
-1.010070e-001 
-1.000219e-001 
-9.677041e-002 
-9.219798e-002 
-8.902726e-002 
-8.814442e-002 
-8.507028e-002 
-8.094817e-002 
-8.107720e-002 
-8.368258e-002 
-8.651853e-002 
-9.042480e-002 
-9.595701e-002 
-1.026361e-001 
-1.075610e-001 
-1.126038e-001 
-1.240244e-001 
-1.354006e-001 
-1.419012e-001 
-1.455306e-001 
-1.527486e-001 
-1.928947e-001 
-2.874532e-001 
-3.888943e-001 
-4.467717e-001 
-4.639720e-001 
-4.565096e-001 
-4.404621e-001 
-4.272048e-001 
-4.383699e-001 
-4.980861e-001 
-5.527194e-001 
-5.192433e-001 
-4.317821e-001 
-3.646475e-001 
-3.296787e-001 
-3.141609e-001 
-3.061625e-001 
-2.952957e-001 
-2.604177e-001 
-1.728367e-001 
-5.528214e-002 
3.237591e-002 
7.662750e-002 
9.719389e-002 
1.124410e-001 
1.310264e-001 
1.494722e-001 
1.632871e-001 
1.726628e-001 
1.826879e-001 
1.927398e-001 
1.994700e-001 
2.038787e-001 
2.101100e-001 
2.143008e-001 
2.118439e-001 
2.020439e-001 
1.903362e-001 
1.787620e-001 
1.636752e-001 
1.472484e-001 
1.321561e-001 
1.181311e-001 
9.984944e-002 
7.734292e-002 
5.630293e-002 
4.118551e-002 
2.769390e-002 
1.616490e-002 
8.170462e-003 
1.649211e-003 
-6.709060e-003 
-1.811901e-002 
-2.648986e-002 
-3.036040e-002 
-3.304391e-002 
-3.482094e-002 
-3.303646e-002 
-2.846619e-002 
-2.329603e-002 
-1.963630e-002 
-1.389573e-002 
-7.292184e-003 
-3.389888e-003 
-4.459560e-004 
3.838668e-003 
9.884512e-003 
1.340417e-002 
1.238423e-002 
9.523604e-003 
6.044464e-003 
-5.989250e-004 
-8.697177e-003 
-1.500422e-002 
-1.933428e-002 
-2.815741e-002 
-4.219797e-002 
-5.384603e-002 
-6.198628e-002 
-7.218019e-002 
-1.108077e-001 
-2.012183e-001 
-3.066844e-001 
-3.730082e-001 
-3.974214e-001 
-3.968160e-001 
-3.851397e-001 
-3.745374e-001 
-3.833303e-001 
-4.369092e-001 
-4.971357e-001 
-4.804322e-001 
-3.974226e-001 
-3.242255e-001 
-2.853447e-001 
-2.682412e-001 
-2.593854e-001 
-2.476566e-001 
-2.150878e-001 
-1.343009e-001 
-1.562910e-002 
8.293334e-002 
1.346798e-001 
1.579273e-001 
1.735205e-001 
1.916877e-001 
2.118856e-001 
2.280385e-001 
2.401558e-001 
2.516208e-001 
2.607589e-001 
2.666198e-001 
2.715406e-001 
2.756886e-001 
2.767080e-001 
2.710394e-001 
2.585392e-001 
2.423384e-001 
2.246961e-001 
2.049925e-001 
1.859803e-001 
1.678670e-001 
1.465193e-001 
1.219930e-001 
9.709459e-002 
7.515325e-002 
5.738467e-002 
4.269735e-002 
2.959578e-002 
2.077578e-002 
1.156048e-002 
-6.372729e-004 
-1.105803e-002 
-1.689660e-002 
-2.037371e-002 
-2.419225e-002 
-2.766510e-002 
-2.798533e-002 
-2.552460e-002 
-2.571548e-002 
-2.483110e-002 
-1.918574e-002 
-1.330498e-002 
-1.134269e-002 
-1.166363e-002 
-9.137485e-003 
-3.130202e-003 
-1.726421e-003 
-3.376442e-003 
-3.043650e-003 
-4.716212e-003 
-1.083343e-002 
-1.919023e-002 
-2.588700e-002 
-2.796370e-002 
-3.336932e-002 
-4.570162e-002 
-5.363037e-002 
-5.924352e-002 
-6.311628e-002 
-8.105466e-002 
-1.356326e-001 
-2.357656e-001 
-3.361884e-001 
-3.869928e-001 
-3.913693e-001 
-3.771507e-001 
-3.595612e-001 
-3.502620e-001 
-3.756945e-001 
-4.334783e-001 
-4.760433e-001 
-4.303572e-001 
-3.313808e-001 
-2.623246e-001 
-2.359290e-001 
-2.241519e-001 
-2.164606e-001 
-1.993357e-001 
-1.483614e-001 
-4.799764e-002 
7.794220e-002 
1.647530e-001 
2.006907e-001 
2.175384e-001 
2.357121e-001 
2.559264e-001 
2.778842e-001 
2.975701e-001 
3.152647e-001 
3.310807e-001 
3.429714e-001 
3.547560e-001 
3.665383e-001 
3.732896e-001 
3.742526e-001 
3.695481e-001 
3.581231e-001 
3.429788e-001 
3.232263e-001 
3.019368e-001 
2.825966e-001 
2.603391e-001 
2.329543e-001 
2.044983e-001 
1.771128e-001 
1.507533e-001 
1.259685e-001 
1.039680e-001 
8.697679e-002 
7.263238e-002 
5.663730e-002 
4.157147e-002 
3.083673e-002 
2.273481e-002 
1.559022e-002 
1.115446e-002 
1.047794e-002 
1.284839e-002 
1.476290e-002 
1.465248e-002 
1.776346e-002 
2.195733e-002 
2.367019e-002 
2.364261e-002 
2.623093e-002 
3.200651e-002 
3.380169e-002 
2.951727e-002 
2.620669e-002 
2.382638e-002 
1.682635e-002 
7.380425e-003 
-1.169096e-003 
-5.615021e-003 
-1.409827e-002 
-3.065581e-002 
-4.554123e-002 
-5.513318e-002 
-6.460045e-002 
-7.212249e-002 
-9.981694e-002 
-1.686946e-001 
-2.752397e-001 
-3.718999e-001 
-4.129612e-001 
-4.139378e-001 
-4.015600e-001 
-3.873301e-001 
-3.889886e-001 
-4.299175e-001 
-4.898582e-001 
-5.164332e-001 
-4.573866e-001 
-3.650832e-001 
-3.096161e-001 
-2.876752e-001 
-2.792135e-001 
-2.731588e-001 
-2.508826e-001 
-1.894225e-001 
-8.470996e-002 
3.317823e-002 
1.060204e-001 
1.353342e-001 
1.514189e-001 
1.693248e-001 
1.883268e-001 
2.061877e-001 
2.220811e-001 
2.376590e-001 
2.524905e-001 
2.622280e-001 
2.709197e-001 
2.802754e-001 
2.850574e-001 
2.830548e-001 
2.784345e-001 
2.693132e-001 
2.565586e-001 
2.382801e-001 
2.185837e-001 
2.008252e-001 
1.802160e-001 
1.548510e-001 
1.298773e-001 
1.062121e-001 
8.156336e-002 
5.950038e-002 
4.117655e-002 
2.763421e-002 
1.315718e-002 
-1.977232e-003 
-1.376465e-002 
-2.318171e-002 
-3.261703e-002 
-3.963629e-002 
-4.034135e-002 
-3.512278e-002 
-3.005659e-002 
-2.669235e-002 
-1.915669e-002 
-1.130859e-002 
-7.568055e-003 
-4.518544e-003 
-2.210066e-003 
1.654052e-003 
4.215158e-003 
-8.802320e-004 
-6.434135e-003 
-9.409645e-003 
-1.595442e-002 
-2.393559e-002 
-3.200594e-002 
-4.205040e-002 
-5.070788e-002 
-6.170431e-002 
-7.462961e-002 
-8.041576e-002 
-1.053433e-001 
-1.792794e-001 
-2.841882e-001 
-3.652146e-001 
-3.977455e-001 
-4.000906e-001 
-3.902567e-001 
-3.755582e-001 
-3.706585e-001 
-4.098803e-001 
-4.704240e-001 
-4.792444e-001 
-4.114136e-001 
-3.321564e-001 
-2.831028e-001 
-2.576297e-001 
-2.455158e-001 
-2.371697e-001 
-2.151958e-001 
-1.498554e-001 
-4.377407e-002 
5.812670e-002 
1.192537e-001 
1.500384e-001 
1.656621e-001 
1.776874e-001 
1.941193e-001 
2.113734e-001 
2.244825e-001 
2.335645e-001 
2.423899e-001 
2.522717e-001 
2.586969e-001 
2.608367e-001 
2.639587e-001 
2.664207e-001 
2.630927e-001 
2.556710e-001 
2.451283e-001 
2.322828e-001 
2.174553e-001 
2.002862e-001 
1.840357e-001 
1.686514e-001 
1.494479e-001 
1.289770e-001 
1.110429e-001 
9.421856e-002 
7.878528e-002 
6.665339e-002 
5.780003e-002 
5.064399e-002 
4.073661e-002 
2.966400e-002 
2.294979e-002 
1.989889e-002 
1.806802e-002 
2.056840e-002 
2.884521e-002 
3.763695e-002 
4.292437e-002 
4.531763e-002 
5.060795e-002 
5.385765e-002 
5.276542e-002 
5.097880e-002 
4.859024e-002 
4.295986e-002 
3.279164e-002 
2.060315e-002 
1.194472e-002 
4.407988e-003 
-1.006762e-002 
-2.426915e-002 
-3.630531e-002 
-5.008378e-002 
-6.396743e-002 
-9.917467e-002 
-1.718766e-001 
-2.771186e-001 
-3.716690e-001 
-4.170479e-001 
-4.219503e-001 
-4.112190e-001 
-3.974735e-001 
-3.971446e-001 
-4.330392e-001 
-4.864321e-001 
-5.082573e-001 
-4.511539e-001 
-3.624010e-001 
-3.041626e-001 
-2.773027e-001 
-2.634840e-001 
-2.528106e-001 
-2.267717e-001 
-1.623290e-001 
-5.688176e-002 
5.919677e-002 
1.331960e-001 
1.662253e-001 
1.847334e-001 
2.008744e-001 
2.196810e-001 
2.397795e-001 
2.580456e-001 
2.757153e-001 
2.927248e-001 
3.055414e-001 
3.156756e-001 
3.236302e-001 
3.300344e-001 
3.348150e-001 
3.325088e-001 
3.263112e-001 
3.189228e-001 
3.059476e-001 
2.874085e-001 
2.678770e-001 
2.492851e-001 
2.303596e-001 
2.064092e-001 
1.796499e-001 
1.571557e-001 
1.365480e-001 
1.154384e-001 
9.783440e-002 
8.522034e-002 
7.361728e-002 
6.017358e-002 
4.704189e-002 
3.767840e-002 
3.121819e-002 
2.403317e-002 
1.914273e-002 
1.887245e-002 
2.041201e-002 
2.160182e-002 
2.476992e-002 
2.914303e-002 
2.949616e-002 
2.886030e-002 
3.027720e-002 
2.993170e-002 
2.799351e-002 
2.458781e-002 
1.818078e-002 
1.185067e-002 
2.892668e-003 
-8.409676e-003 
-1.422877e-002 
-2.197608e-002 
-3.567059e-002 
-4.468825e-002 
-5.314401e-002 
-6.249924e-002 
-9.560051e-002 
-1.774307e-001 
-2.898237e-001 
-3.710091e-001 
-3.988462e-001 
-3.958248e-001 
-3.818036e-001 
-3.679003e-001 
-3.700319e-001 
-4.170076e-001 
-4.795459e-001 
-4.851637e-001 
-4.030306e-001 
-3.120372e-001 
-2.646746e-001 
-2.454695e-001 
-2.348269e-001 
-2.255980e-001 
-1.980484e-001 
-1.227543e-001 
-4.406700e-003 
1.070047e-001 
1.665598e-001 
1.919255e-001 
2.065589e-001 
2.232577e-001 
2.455781e-001 
2.694019e-001 
2.910306e-001 
3.087858e-001 
3.260443e-001 
3.446423e-001 
3.581351e-001 
3.671659e-001 
3.774164e-001 
3.846521e-001 
3.844245e-001 
3.769914e-001 
3.641676e-001 
3.497622e-001 
3.314029e-001 
3.082615e-001 
2.861713e-001 
2.633300e-001 
2.359078e-001 
2.068138e-001 
1.783783e-001 
1.516386e-001 
1.275835e-001 
1.055587e-001 
8.724931e-002 
7.186513e-002 
5.492805e-002 
3.913930e-002 
2.807128e-002 
1.969512e-002 
1.290706e-002 
8.554350e-003 
6.466391e-003 
5.630069e-003 
3.466258e-003 
1.019101e-003 
4.334005e-003 
1.048181e-002 
1.439639e-002 
1.661228e-002 
1.948374e-002 
2.405804e-002 
2.894563e-002 
3.173327e-002 
3.338528e-002 
3.554024e-002 
3.255576e-002 
2.506889e-002 
1.798844e-002 
1.289879e-002 
7.737640e-003 
9.995004e-004 
-9.699263e-003 
-2.065825e-002 
-2.997491e-002 
-3.821546e-002 
-5.960652e-002 
-1.157484e-001 
-2.225532e-001 
-3.268631e-001 
-3.664264e-001 
-3.700108e-001 
-3.649096e-001 
-3.513229e-001 
-3.449233e-001 
-3.706238e-001 
-4.304834e-001 
-4.755299e-001 
-4.163725e-001 
-3.092558e-001 
-2.568783e-001 
-2.371839e-001 
-2.206035e-001 
-2.096417e-001 
-1.918604e-001 
-1.427771e-001 
-4.237164e-002 
8.304540e-002 
1.574561e-001 
1.816327e-001 
1.997472e-001 
2.195910e-001 
2.377468e-001 
2.541225e-001 
2.711358e-001 
2.864933e-001 
2.994067e-001 
3.087476e-001 
3.161526e-001 
3.253100e-001 
3.308025e-001 
3.306022e-001 
3.277884e-001 
3.208084e-001 
3.072730e-001 
2.905697e-001 
2.721675e-001 
2.539444e-001 
2.347307e-001 
2.115972e-001 
2.079775e-001 
2.279680e-001 
2.177485e-001 
1.900026e-001 
1.726033e-001 
1.565911e-001 
1.437190e-001 
1.299840e-001 
1.278876e-001 
1.582827e-001 
1.569030e-001 
1.023763e-001 
8.322442e-002 
8.558585e-002 
8.294894e-002 
8.219495e-002 
8.056253e-002 
8.023473e-002 
6.796423e-002 
2.677423e-002 
9.483895e-004 
8.364695e-003 
1.278212e-002 
1.659213e-002 
2.086987e-002 
2.642776e-002 
2.901024e-002 
2.913661e-002 
3.155561e-002 
3.304073e-002 
3.009707e-002 
2.359327e-002 
1.759969e-002 
1.317773e-002 
7.411687e-003 
-4.001132e-003 
-1.409275e-002 
-1.955435e-002 
-2.671603e-002 
-3.609228e-002 
-6.832638e-002 
-1.505752e-001 
-2.522042e-001 
-3.155537e-001 
-3.354940e-001 
-3.312567e-001 
-3.194837e-001 
-3.079363e-001 
-3.100015e-001 
-3.587456e-001 
-4.193591e-001 
-4.034224e-001 
-3.202037e-001 
-2.509253e-001 
-2.151199e-001 
-1.975768e-001 
-1.863612e-001 
-1.768223e-001 
-1.527277e-001 
-7.742864e-002 
3.684478e-002 
1.267091e-001 
1.705879e-001 
1.933644e-001 
2.109834e-001 
2.280128e-001 
2.443264e-001 
2.621207e-001 
2.805643e-001 
2.937953e-001 
3.028228e-001 
3.116245e-001 
3.207700e-001 
3.275380e-001 
3.288643e-001 
3.274566e-001 
3.247009e-001 
3.173098e-001 
3.021895e-001 
2.847227e-001 
2.685185e-001 
2.525737e-001 
2.333724e-001 
2.108841e-001 
1.881452e-001 
1.689417e-001 
1.485604e-001 
1.270020e-001 
1.123528e-001 
1.030491e-001 
9.393191e-002 
8.345597e-002 
7.315071e-002 
6.547184e-002 
6.097680e-002 
5.314613e-002 
4.824409e-002 
4.906222e-002 
4.874379e-002 
4.514815e-002 
4.285379e-002 
4.254874e-002 
4.554029e-002 
4.913433e-002 
5.159270e-002 
5.641992e-002 
5.925044e-002 
5.899369e-002 
6.131947e-002 
6.521198e-002 
6.628412e-002 
6.745604e-002 
6.569782e-002 
6.151456e-002 
5.535731e-002 
4.739983e-002 
4.371315e-002 
4.181140e-002 
3.301660e-002 
2.162788e-002 
1.418558e-002 
7.485222e-003 
1.594130e-003 
-2.100566e-002 
-7.316627e-002 
-1.576244e-001 
-2.428045e-001 
-2.876667e-001 
-2.920817e-001 
-2.772419e-001 
-2.597936e-001 
-2.553765e-001 
-2.801152e-001 
-3.226025e-001 
-3.478676e-001 
-3.061633e-001 
-2.242204e-001 
-1.625565e-001 
-1.327275e-001 
-1.190770e-001 
-1.099671e-001 
-8.818312e-002 
-3.664405e-002 
5.212839e-002 
1.584200e-001 
2.344947e-001 
2.703241e-001 
2.876410e-001 
3.024314e-001 
3.190264e-001 
3.356644e-001 
3.496827e-001 
3.640311e-001 
3.768520e-001 
3.857412e-001 
3.918007e-001 
3.971157e-001 
4.002290e-001 
4.002567e-001 
3.951550e-001 
3.853637e-001 
3.714217e-001 
3.509118e-001 
3.276724e-001 
3.058584e-001 
2.840723e-001 
2.594643e-001 
2.340980e-001 
2.083669e-001 
1.814400e-001 
1.553715e-001 
1.323539e-001 
1.147407e-001 
1.014046e-001 
8.720581e-002 
7.146095e-002 
5.845128e-002 
4.683712e-002 
3.567107e-002 
2.743556e-002 
2.300671e-002 
2.135611e-002 
1.835836e-002 
1.240512e-002 
7.665988e-003 
5.745264e-003 
4.936887e-003 
5.266318e-003 
8.518689e-003 
1.303659e-002 
1.491854e-002 
1.528575e-002 
1.858448e-002 
2.263121e-002 
2.294897e-002 
2.254066e-002 
2.143225e-002 
1.916658e-002 
1.286337e-002 
5.130525e-003 
1.350957e-003 
-1.738491e-003 
-1.222406e-002 
-2.648294e-002 
-3.695422e-002 
-4.506810e-002 
-4.987029e-002 
-7.692189e-002 
-1.478084e-001 
-2.588602e-001 
-3.506559e-001 
-3.869524e-001 
-3.860968e-001 
-3.711501e-001 
-3.533513e-001 
-3.496107e-001 
-3.890112e-001 
-4.548886e-001 
-4.789667e-001 
-4.060483e-001 
-3.110463e-001 
-2.577177e-001 
-2.361338e-001 
-2.253850e-001 
-2.164375e-001 
-1.921074e-001 
-1.285268e-001 
-1.619300e-002 
1.047975e-001 
1.729285e-001 
2.006118e-001 
2.183517e-001 
2.370836e-001 
2.595187e-001 
2.812890e-001 
2.979346e-001 
3.157768e-001 
3.336690e-001 
3.467670e-001 
3.588435e-001 
3.695298e-001 
3.742460e-001 
3.736426e-001 
3.660206e-001 
3.545456e-001 
3.396509e-001 
3.197393e-001 
2.978339e-001 
2.768591e-001 
2.541990e-001 
2.267285e-001 
1.977168e-001 
1.709298e-001 
1.460682e-001 
1.220674e-001 
1.020929e-001 
8.641868e-002 
7.280654e-002 
5.804859e-002 
4.462877e-002 
3.684802e-002 
3.248642e-002 
2.984369e-002 
3.041727e-002 
3.366837e-002 
3.720956e-002 
3.863737e-002 
3.994374e-002 
4.582043e-002 
5.300020e-002 
5.798887e-002 
6.429474e-002 
7.266274e-002 
8.007957e-002 
8.553424e-002 
9.189530e-002 
1.013226e-001 
1.108820e-001 
1.162374e-001 
1.182722e-001 
1.216408e-001 
1.254406e-001 
1.260513e-001 
1.273499e-001 
1.311857e-001 
1.316639e-001 
1.281816e-001 
1.234066e-001 
1.194928e-001 
1.189621e-001 
1.130316e-001 
8.881829e-002 
4.550148e-002 
3.189632e-004 
-2.722867e-002 
-3.466629e-002 
-3.200119e-002 
-2.673594e-002 
-2.396655e-002 
-3.559455e-002 
-6.421797e-002 
-8.632442e-002 
-7.302955e-002 
-3.803278e-002 
-1.030935e-002 
2.404139e-003 
6.177655e-003 
8.714846e-003 
1.576284e-002 
3.475166e-002 
7.368414e-002 
1.235386e-001 
1.603874e-001 
1.798465e-001 
1.888538e-001 
1.954308e-001 
2.042587e-001 
2.135387e-001 
2.184699e-001 
2.225336e-001 
2.275118e-001 
2.317463e-001 
2.348882e-001 
2.353967e-001 
2.338127e-001 
2.299015e-001 
2.218441e-001 
2.086291e-001 
1.950449e-001 
1.799627e-001 
1.623481e-001 
1.435669e-001 
1.246003e-001 
1.033933e-001 
8.061784e-002 
5.770832e-002 
3.562566e-002 
1.582709e-002 
-3.542423e-003 
-2.092481e-002 
-3.463515e-002 
-4.741549e-002 
-6.184564e-002 
-7.391507e-002 
-8.275148e-002 
-9.063239e-002 
-9.914511e-002 
-1.051774e-001 
-1.083572e-001 
-1.111722e-001 
-1.140886e-001 
-1.145371e-001 
-1.109258e-001 
-1.052529e-001 
-1.024524e-001 
-1.009578e-001 
-9.650119e-002 
-9.326018e-002 
-9.286121e-002 
-9.367899e-002 
-9.301629e-002 
-9.347470e-002 
-9.886987e-002 
-1.094391e-001 
-1.182940e-001 
-1.244926e-001 
-1.337587e-001 
-1.469665e-001 
-1.591011e-001 
-1.689955e-001 
-1.816102e-001 
-1.941073e-001 
-2.142103e-001 
-2.649051e-001 
-3.648255e-001 
-4.717854e-001 
-5.285092e-001 
-5.381787e-001 
-5.297123e-001 
-5.171945e-001 
-5.084985e-001 
-5.251666e-001 
-5.798381e-001 
-6.276989e-001 
-5.916589e-001 
-5.000974e-001 
-4.315263e-001 
-3.995760e-001 
-3.842707e-001 
-3.725002e-001 
-3.544786e-001 
-3.110094e-001 
-2.185180e-001 
-9.781067e-002 
-9.653391e-003 
3.229353e-002 
5.307141e-002 
7.109104e-002 
9.052891e-002 
1.076164e-001 
1.229994e-001 
1.383569e-001 
1.504458e-001 
1.598573e-001 
1.680373e-001 
1.752032e-001 
1.801062e-001 
1.801327e-001 
1.748916e-001 
1.668046e-001 
1.530055e-001 
1.343827e-001 
1.161179e-001 
9.831328e-002 
7.892575e-002 
5.661601e-002 
3.318341e-002 
9.644124e-003 
-1.487043e-002 
-3.815967e-002 
-5.399321e-002 
-6.473142e-002 
-7.504587e-002 
-8.641179e-002 
-9.629375e-002 
-1.040291e-001 
-1.124916e-001 
-1.201505e-001 
-1.226806e-001 
-1.216394e-001 
-1.226518e-001 
-1.248921e-001 
-1.236558e-001 
-1.175996e-001 
-1.122570e-001 
-1.075785e-001 
-1.009136e-001 
-9.496611e-002 
-9.069757e-002 
-8.633465e-002 
-8.305330e-002 
-7.928651e-002 
-7.689387e-002 
-8.044257e-002 
-8.420864e-002 
-8.674310e-002 
-9.195687e-002 
-9.574646e-002 
-1.008266e-001 
-1.107973e-001 
-1.201169e-001 
-1.271940e-001 
-1.311464e-001 
-1.412105e-001 
-1.892739e-001 
-2.945415e-001 
-4.120099e-001 
-4.802045e-001 
-4.935017e-001 
-4.808656e-001 
-4.579587e-001 
-4.421370e-001 
-4.605400e-001 
-5.231319e-001 
-5.798095e-001 
-5.478942e-001 
-4.432185e-001 
-3.571640e-001 
-3.177266e-001 
-2.999193e-001 
-2.931779e-001 
-2.807743e-001 
-2.346924e-001 
-1.324870e-001 
2.765641e-003 
1.073257e-001 
1.557081e-001 
1.772122e-001 
1.939542e-001 
2.122079e-001 
2.347959e-001 
2.578334e-001 
2.753177e-001 
2.888740e-001 
3.045603e-001 
3.177914e-001 
3.277906e-001 
3.339971e-001 
3.384881e-001 
3.385235e-001 
3.293281e-001 
3.112179e-001 
2.927816e-001 
2.717411e-001 
2.447584e-001 
2.170581e-001 
1.892985e-001 
1.606785e-001 
1.287120e-001 
9.510982e-002 
6.459537e-002 
3.993224e-002 
1.587383e-002 
-6.536910e-003 
-2.509206e-002 
-4.120640e-002 
-5.664645e-002 
-7.067594e-002 
-8.107517e-002 
-8.679429e-002 
-8.938904e-002 
-9.285990e-002 
-9.424937e-002 
-9.100775e-002 
-8.586513e-002 
-8.113755e-002 
-7.606234e-002 
-7.133300e-002 
-6.818481e-002 
-6.611680e-002 
-6.251580e-002 
-5.665539e-002 
-5.262587e-002 
-5.116574e-002 
-5.211649e-002 
-5.681402e-002 
-6.501423e-002 
-7.377744e-002 
-7.929005e-002 
-8.428373e-002 
-9.464864e-002 
-1.069784e-001 
-1.173178e-001 
-1.261919e-001 
-1.312706e-001 
-1.447765e-001 
-1.937247e-001 
-2.962541e-001 
-4.053319e-001 
-4.611343e-001 
-4.680654e-001 
-4.559832e-001 
-4.382249e-001 
-4.276848e-001 
-4.494203e-001 
-5.124037e-001 
-5.650562e-001 
-5.238677e-001 
-4.258912e-001 
-3.561329e-001 
-3.270117e-001 
-3.171571e-001 
-3.143261e-001 
-3.028541e-001 
-2.585730e-001 
-1.615369e-001 
-3.624269e-002 
5.301104e-002 
9.390768e-002 
1.120782e-001 
1.274490e-001 
1.473421e-001 
1.708890e-001 
1.912283e-001 
2.061062e-001 
2.216952e-001 
2.361061e-001 
2.461156e-001 
2.546730e-001 
2.622541e-001 
2.663667e-001 
2.634300e-001 
2.525709e-001 
2.381043e-001 
2.209719e-001 
1.990446e-001 
1.783990e-001 
1.594769e-001 
1.364267e-001 
1.087165e-001 
8.036401e-002 
5.349915e-002 
2.986926e-002 
8.751534e-003 
-8.213820e-003 
-2.063290e-002 
-3.412744e-002 
-4.885775e-002 
-6.010912e-002 
-6.845945e-002 
-7.537870e-002 
-7.845228e-002 
-7.799388e-002 
-7.483564e-002 
-7.089118e-002 
-6.564007e-002 
-5.814987e-002 
-5.053873e-002 
-4.662498e-002 
-4.262927e-002 
-3.747527e-002 
-3.469627e-002 
-3.456429e-002 
-3.534778e-002 
-3.685363e-002 
-4.047684e-002 
-4.722359e-002 
-5.514238e-002 
-6.155126e-002 
-6.981577e-002 
-8.052215e-002 
-9.084982e-002 
-9.961492e-002 
-1.056312e-001 
-1.230903e-001 
-1.778048e-001 
-2.739803e-001 
-3.671447e-001 
-4.168290e-001 
-4.287697e-001 
-4.228821e-001 
-4.091902e-001 
-3.991207e-001 
-4.208458e-001 
-4.761714e-001 
-5.112191e-001 
-4.689133e-001 
-3.863444e-001 
-3.257951e-001 
-2.953596e-001 
-2.794183e-001 
-2.690035e-001 
-2.526299e-001 
-2.053282e-001 
-1.127730e-001 
-2.005998e-003 
7.758668e-002 
1.182069e-001 
1.389581e-001 
1.567784e-001 
1.766889e-001 
1.969130e-001 
2.135295e-001 
2.262467e-001 
2.381903e-001 
2.493386e-001 
2.573531e-001 
2.646127e-001 
2.720914e-001 
2.761407e-001 
2.749763e-001 
2.680455e-001 
2.582029e-001 
2.442334e-001 
2.272834e-001 
2.094491e-001 
1.926626e-001 
1.742111e-001 
1.521112e-001 
1.284433e-001 
1.070489e-001 
8.771271e-002 
6.915933e-002 
5.463358e-002 
4.328610e-002 
3.567536e-002 
2.510376e-002 
1.230832e-002 
3.381040e-003 
-2.500703e-003 
-8.572688e-003 
-1.282060e-002 
-1.327370e-002 
-8.922046e-003 
-3.598134e-003 
-4.148570e-004 
5.324175e-003 
1.081207e-002 
1.323392e-002 
1.511378e-002 
1.929218e-002 
2.129218e-002 
2.048577e-002 
1.752458e-002 
1.378898e-002 
7.490909e-003 
-2.052481e-003 
-1.112940e-002 
-1.577291e-002 
-2.204277e-002 
-3.518931e-002 
-4.638434e-002 
-5.476808e-002 
-6.111878e-002 
-7.631443e-002 
-1.245062e-001 
-2.235300e-001 
-3.389110e-001 
-4.129794e-001 
-4.327113e-001 
-4.230062e-001 
-4.047730e-001 
-3.916529e-001 
-4.073995e-001 
-4.651124e-001 
-5.245072e-001 
-5.041751e-001 
-4.090779e-001 
-3.238008e-001 
-2.821879e-001 
-2.654523e-001 
-2.579577e-001 
-2.467687e-001 
-2.059459e-001 
-1.111671e-001 
1.984954e-002 
1.266198e-001 
1.806163e-001 
2.038868e-001 
2.208206e-001 
2.392240e-001 
2.613767e-001 
2.865434e-001 
3.069927e-001 
3.239034e-001 
3.420221e-001 
3.583282e-001 
3.705160e-001 
3.801678e-001 
3.876502e-001 
3.918777e-001 
3.888610e-001 
3.787931e-001 
3.656918e-001 
3.492377e-001 
3.271477e-001 
3.027855e-001 
2.800283e-001 
2.555627e-001 
2.265502e-001 
1.957344e-001 
1.677262e-001 
1.424784e-001 
1.180494e-001 
9.574446e-002 
7.975043e-002 
6.688953e-002 
5.217593e-002 
3.841969e-002 
2.908046e-002 
2.299650e-002 
1.755294e-002 
1.366717e-002 
1.403275e-002 
1.614004e-002 
1.746493e-002 
2.074369e-002 
2.701304e-002 
3.234111e-002 
3.631238e-002 
4.045640e-002 
4.537940e-002 
5.003939e-002 
4.997942e-002 
5.064054e-002 
5.164829e-002 
4.710735e-002 
3.823401e-002 
3.093282e-002 
2.387920e-002 
1.570005e-002 
4.574471e-003 
-8.150247e-003 
-1.411408e-002 
-2.054586e-002 
-3.053719e-002 
-6.712935e-002 
-1.578401e-001 
-2.784985e-001 
-3.586250e-001 
-3.840666e-001 
-3.805364e-001 
-3.665618e-001 
-3.547558e-001 
-3.599975e-001 
-4.138969e-001 
-4.834158e-001 
-4.777783e-001 
-3.853863e-001 
-2.997882e-001 
-2.569819e-001 
-2.397203e-001 
-2.301868e-001 
-2.192318e-001 
-1.914531e-001 
-1.107806e-001 
1.804169e-002 
1.293505e-001 
1.857651e-001 
2.122903e-001 
2.319822e-001 
2.545009e-001 
2.762366e-001 
2.955320e-001 
3.166232e-001 
3.361297e-001 
3.517243e-001 
3.651379e-001 
3.776992e-001 
3.890807e-001 
3.956316e-001 
3.961165e-001 
3.929304e-001 
3.847546e-001 
3.699632e-001 
3.512000e-001 
3.310337e-001 
3.106035e-001 
2.874632e-001 
2.602794e-001 
2.324515e-001 
2.048952e-001 
1.773334e-001 
1.530227e-001 
1.330644e-001 
1.165308e-001 
9.973724e-002 
8.245601e-002 
6.835555e-002 
5.629417e-002 
4.356991e-002 
3.329181e-002 
2.787568e-002 
2.457819e-002 
1.946258e-002 
1.218751e-002 
9.771664e-003 
1.192849e-002 
1.115264e-002 
8.991540e-003 
9.672567e-003 
1.075169e-002 
9.967952e-003 
7.723299e-003 
5.208972e-003 
5.519087e-003 
3.350644e-003 
-4.834090e-003 
-1.251745e-002 
-1.868948e-002 
-2.631154e-002 
-3.398946e-002 
-4.327188e-002 
-5.457013e-002 
-6.439394e-002 
-7.387457e-002 
-7.826589e-002 
-9.104853e-002 
-1.463236e-001 
-2.540000e-001 
-3.588495e-001 
-4.098996e-001 
-4.179334e-001 
-4.083806e-001 
-3.914189e-001 
-3.795722e-001 
-4.051938e-001 
-4.738715e-001 
-5.209844e-001 
-4.729985e-001 
-3.770967e-001 
-3.129674e-001 
-2.862260e-001 
-2.743683e-001 
-2.689618e-001 
-2.590053e-001 
-2.142758e-001 
-1.142553e-001 
7.188207e-003 
8.869491e-002 
1.244442e-001 
1.412470e-001 
1.562216e-001 
1.720017e-001 
1.891320e-001 
2.069245e-001 
2.204825e-001 
2.312604e-001 
2.431073e-001 
2.539192e-001 
2.616462e-001 
2.659583e-001 
2.679081e-001 
2.671133e-001 
2.600562e-001 
2.463392e-001 
2.298289e-001 
2.136228e-001 
1.951402e-001 
1.730377e-001 
1.496381e-001 
1.268896e-001 
1.024180e-001 
7.714339e-002 
5.371777e-002 
3.463652e-002 
1.887899e-002 
2.847541e-003 
-1.291233e-002 
-2.603650e-002 
-3.819849e-002 
-5.070724e-002 
-5.982448e-002 
-6.539838e-002 
-6.935029e-002 
-7.300513e-002 
-7.353926e-002 
-7.024518e-002 
-6.530502e-002 
-6.130618e-002 
-5.704743e-002 
-5.232927e-002 
-4.844099e-002 
-4.665974e-002 
-4.627073e-002 
-4.356666e-002 
-4.106693e-002 
-4.292075e-002 
-4.648639e-002 
-4.954832e-002 
-5.392582e-002 
-5.858217e-002 
-6.507919e-002 
-7.298272e-002 
-7.733980e-002 
-8.193066e-002 
-8.571033e-002 
-1.007886e-001 
-1.528074e-001 
-2.432281e-001 
-3.223706e-001 
-3.556094e-001 
-3.573917e-001 
-3.454347e-001 
-3.273917e-001 
-3.161846e-001 
-3.393737e-001 
-3.912689e-001 
-4.148035e-001 
-3.600078e-001 
-2.783651e-001 
-2.269433e-001 
-2.006256e-001 
-1.846094e-001 
-1.758149e-001 
-1.604363e-001 
-1.121521e-001 
-1.965265e-002 
8.287953e-002 
1.470806e-001 
1.784423e-001 
1.965205e-001 
2.113189e-001 
2.263495e-001 
2.423617e-001 
2.580247e-001 
2.712434e-001 
2.814470e-001 
2.924222e-001 
3.026319e-001 
3.091243e-001 
3.128028e-001 
3.140160e-001 
3.127265e-001 
3.062937e-001 
2.949308e-001 
2.824814e-001 
2.692104e-001 
2.534591e-001 
2.369158e-001 
2.191232e-001 
2.004265e-001 
1.811400e-001 
1.617410e-001 
1.457422e-001 
1.340225e-001 
1.224999e-001 
1.121682e-001 
1.043079e-001 
9.654634e-002 
8.802331e-002 
7.992634e-002 
7.507494e-002 
7.459403e-002 
7.673876e-002 
7.937971e-002 
8.589882e-002 
9.433366e-002 
9.921431e-002 
1.005520e-001 
1.032831e-001 
1.050106e-001 
1.046859e-001 
1.028439e-001 
9.842953e-002 
9.298127e-002 
8.421253e-002 
7.279665e-002 
6.411536e-002 
5.546930e-002 
4.191285e-002 
2.923156e-002 
1.782705e-002 
4.531733e-003 
-8.673070e-003 
-4.315699e-002 
-1.210061e-001 
-2.295476e-001 
-3.153275e-001 
-3.479848e-001 
-3.471002e-001 
-3.369023e-001 
-3.264265e-001 
-3.276750e-001 
-3.691272e-001 
-4.293972e-001 
-4.400161e-001 
-3.695109e-001 
-2.849975e-001 
-2.379786e-001 
-2.187435e-001 
-2.078135e-001 
-1.962374e-001 
-1.708319e-001 
-1.040595e-001 
5.133087e-003 
1.133847e-001 
1.751367e-001 
2.007779e-001 
2.170154e-001 
2.361327e-001 
2.566356e-001 
2.736316e-001 
2.877932e-001 
3.026127e-001 
3.157077e-001 
3.238083e-001 
3.304877e-001 
3.385747e-001 
3.443211e-001 
3.429977e-001 
3.353415e-001 
3.249304e-001 
3.125034e-001 
2.956629e-001 
2.777457e-001 
2.608839e-001 
2.427456e-001 
2.213963e-001 
1.971189e-001 
1.742212e-001 
1.540117e-001 
1.370368e-001 
1.225934e-001 
1.116142e-001 
1.021224e-001 
9.366060e-002 
8.482132e-002 
7.678415e-002 
7.040771e-002 
6.510155e-002 
6.297515e-002 
6.439773e-002 
6.998237e-002 
7.782209e-002 
8.502709e-002 
8.936345e-002 
9.148252e-002 
9.256685e-002 
9.604507e-002 
9.882759e-002 
9.954921e-002 
1.000962e-001 
9.708425e-002 
8.881209e-002 
7.923606e-002 
7.017794e-002 
6.276500e-002 
5.383103e-002 
3.974073e-002 
2.623728e-002 
1.483906e-002 
1.393897e-003 
-1.094484e-002 
-4.653501e-002 
-1.318382e-001 
-2.492472e-001 
-3.338178e-001 
-3.592060e-001 
-3.543493e-001 
-3.424711e-001 
-3.299185e-001 
-3.336281e-001 
-3.827281e-001 
-4.483996e-001 
-4.534923e-001 
-3.677385e-001 
-2.761860e-001 
-2.308819e-001 
-2.123878e-001 
-2.013589e-001 
-1.915043e-001 
-1.619394e-001 
-8.409128e-002 
3.752568e-002 
1.518969e-001 
2.129177e-001 
2.393719e-001 
2.564204e-001 
2.746087e-001 
2.966392e-001 
3.202315e-001 
3.392759e-001 
3.533764e-001 
3.684948e-001 
3.835414e-001 
3.938155e-001 
3.995012e-001 
4.012262e-001 
3.979781e-001 
3.886151e-001 
3.718810e-001 
3.533765e-001 
3.351293e-001 
3.134321e-001 
2.876847e-001 
2.595297e-001 
2.286692e-001 
1.981463e-001 
1.695433e-001 
1.434332e-001 
1.214649e-001 
1.013879e-001 
8.302263e-002 
6.688083e-002 
5.271491e-002 
3.934520e-002 
3.029022e-002 
2.529547e-002 
2.226526e-002 
1.877099e-002 
1.725209e-002 
2.141751e-002 
2.827291e-002 
3.264556e-002 
3.512782e-002 
4.023497e-002 
4.584457e-002 
4.913724e-002 
4.985794e-002 
5.134830e-002 
5.480199e-002 
5.276159e-002 
4.415753e-002 
3.631101e-002 
3.083978e-002 
2.481426e-002 
1.609378e-002 
4.480643e-003 
-6.604105e-003 
-1.517567e-002 
-2.623236e-002 
-3.504255e-002 
-6.468938e-002 
-1.388252e-001 
-2.505228e-001 
-3.421685e-001 
-3.784508e-001 
-3.787046e-001 
-3.663694e-001 
-3.527704e-001 
-3.529145e-001 
-3.953787e-001 
-4.579902e-001 
-4.772657e-001 
-4.075828e-001 
-3.176859e-001 
-2.667841e-001 
-2.468850e-001 
-2.376138e-001 
-2.306602e-001 
-2.095118e-001 
-1.442736e-001 
-3.181512e-002 
8.420172e-002 
1.501296e-001 
1.795541e-001 
1.973118e-001 
2.143339e-001 
2.323750e-001 
2.532370e-001 
2.747369e-001 
2.923348e-001 
3.069540e-001 
3.214856e-001 
3.352752e-001 
3.451694e-001 
3.513565e-001 
3.544389e-001 
3.527079e-001 
3.425903e-001 
3.260802e-001 
3.081726e-001 
2.890414e-001 
2.660291e-001 
2.422774e-001 
2.170008e-001 
1.888685e-001 
1.596149e-001 
1.304583e-001 
1.045254e-001 
8.354669e-002 
6.309485e-002 
4.387503e-002 
2.897695e-002 
1.367935e-002 
-1.152837e-003 
-1.308074e-002 
-2.142082e-002 
-2.547162e-002 
-2.893080e-002 
-3.238754e-002 
-3.196685e-002 
-2.956602e-002 
-2.870437e-002 
-2.671177e-002 
-2.252734e-002 
-1.757690e-002 
-1.524632e-002 
-1.398665e-002 
-8.324096e-003 
-5.084072e-003 
-6.537455e-003 
-9.306663e-003 
-1.293045e-002 
-1.845273e-002 
-2.708147e-002 
-3.722107e-002 
-4.257183e-002 
-4.968864e-002 
-6.579531e-002 
-8.166843e-002 
-9.353650e-002 
-1.036160e-001 
-1.130980e-001 
-1.473876e-001 
-2.265030e-001 
-3.301129e-001 
-4.102501e-001 
-4.435557e-001 
-4.428379e-001 
-4.291969e-001 
-4.149100e-001 
-4.178954e-001 
-4.646156e-001 
-5.229658e-001 
-5.252119e-001 
-4.550353e-001 
-3.750171e-001 
-3.268936e-001 
-3.061447e-001 
-2.964955e-001 
-2.880170e-001 
-2.620175e-001 
-1.903504e-001 
-8.021176e-002 
2.321912e-002 
8.364188e-002 
1.106485e-001 
1.255470e-001 
1.415501e-001 
1.598670e-001 
1.781248e-001 
1.925320e-001 
2.037052e-001 
2.138367e-001 
2.223132e-001 
2.275657e-001 
2.322754e-001 
2.365934e-001 
2.356097e-001 
2.288155e-001 
2.162756e-001 
2.008884e-001 
1.835479e-001 
1.662563e-001 
1.484788e-001 
1.314170e-001 
1.114667e-001 
8.895313e-002 
6.798218e-002 
4.893324e-002 
3.277177e-002 
2.091983e-002 
1.242101e-002 
3.525292e-003 
-4.914579e-003 
-1.328183e-002 
-1.943447e-002 
-2.269989e-002 
-2.517632e-002 
-2.642620e-002 
-2.243771e-002 
-1.454417e-002 
-7.724616e-003 
-4.912801e-004 
8.492722e-003 
1.564477e-002 
2.010191e-002 
2.278394e-002 
2.516209e-002 
3.041593e-002 
3.270615e-002 
2.807539e-002 
2.487676e-002 
2.162020e-002 
1.305026e-002 
4.384007e-003 
-3.081005e-003 
-1.277263e-002 
-2.375196e-002 
-3.595669e-002 
-4.811038e-002 
-5.693287e-002 
-8.669838e-002 
-1.582201e-001 
-2.563646e-001 
-3.345691e-001 
-3.703682e-001 
-3.747553e-001 
-3.639645e-001 
-3.513090e-001 
-3.514460e-001 
-3.879374e-001 
-4.415196e-001 
-4.527466e-001 
-3.930396e-001 
-3.186229e-001 
-2.693182e-001 
-2.433617e-001 
-2.319540e-001 
-2.237458e-001 
-2.010137e-001 
-1.391269e-001 
-3.777949e-002 
6.226038e-002 
1.246702e-001 
1.587567e-001 
1.767530e-001 
1.909418e-001 
2.086922e-001 
2.286623e-001 
2.469988e-001 
2.598462e-001 
2.701372e-001 
2.822912e-001 
2.904890e-001 
2.938674e-001 
2.964803e-001 
2.967643e-001 
2.919993e-001 
2.804956e-001 
2.652492e-001 
2.485542e-001 
2.291850e-001 
2.077445e-001 
1.864713e-001 
1.636595e-001 
1.391705e-001 
1.140738e-001 
9.126328e-002 
7.284566e-002 
5.593989e-002 
4.030318e-002 
2.880321e-002 
1.911645e-002 
8.365409e-003 
-1.066044e-003 
-8.050440e-003 
-1.318216e-002 
-1.714478e-002 
-2.179072e-002 
-2.372087e-002 
-1.957304e-002 
-1.503099e-002 
-1.080092e-002 
-5.535242e-003 
-1.953551e-003 
-1.177698e-003 
-4.195904e-004 
9.260487e-004 
2.545359e-003 
3.968941e-003 
2.511291e-003 
