62
1.6146
598.0645
12.7320
-1.383427e-004 
-1.626074e-003 
-3.922525e-003 
-6.085323e-003 
-7.651231e-003 
-8.780741e-003 
-9.960885e-003 
-1.114351e-002 
-1.291987e-002 
-1.544754e-002 
-2.047042e-002 
-2.488329e-002 
-2.552047e-002 
-2.453261e-002 
-2.620249e-002 
-2.874326e-002 
-3.054991e-002 
-3.270374e-002 
-3.655627e-002 
-4.202526e-002 
-4.166172e-002 
-3.827755e-002 
-4.028746e-002 
-4.525570e-002 
-4.662493e-002 
-4.728717e-002 
-5.062100e-002 
-5.602635e-002 
-5.732298e-002 
-5.441622e-002 
-5.656379e-002 
-6.215987e-002 
-6.377994e-002 
-6.326723e-002 
-6.534411e-002 
-6.856043e-002 
-6.910002e-002 
-6.598215e-002 
-6.556027e-002 
-6.789871e-002 
-6.769378e-002 
-6.502902e-002 
-6.496552e-002 
-6.580269e-002 
-6.447647e-002 
-6.225653e-002 
-6.177817e-002 
-6.313361e-002 
-6.228049e-002 
-5.999582e-002 
-6.016836e-002 
-6.072667e-002 
-5.885875e-002 
-5.696366e-002 
-5.662198e-002 
-5.559373e-002 
-4.991347e-002 
-3.862929e-002 
-2.715744e-002 
-1.473826e-002 
3.531141e-003 
1.555069e-002 
1.877688e-002 
1.983731e-002 
2.279917e-002 
2.801615e-002 
3.093841e-002 
2.998611e-002 
3.154491e-002 
2.944135e-002 
1.755280e-002 
2.132877e-002 
2.813255e-002 
9.085955e-003 
-3.684716e-002 
-1.161472e-001 
-2.106303e-001 
-2.665292e-001 
-2.878053e-001 
-2.887012e-001 
-2.746596e-001 
-2.941100e-001 
-3.361025e-001 
-3.751490e-001 
-4.125585e-001 
-3.957550e-001 
-3.180781e-001 
-2.654777e-001 
-2.481057e-001 
-2.475744e-001 
-2.581615e-001 
-2.455382e-001 
-2.035039e-001 
-1.327219e-001 
-3.753588e-002 
3.305400e-002 
5.756474e-002 
6.986335e-002 
7.949628e-002 
8.767825e-002 
9.814150e-002 
1.102093e-001 
1.211224e-001 
1.276541e-001 
1.346185e-001 
1.433055e-001 
1.523568e-001 
1.593456e-001 
1.670573e-001 
1.756308e-001 
1.825733e-001 
1.879367e-001 
1.938652e-001 
2.020593e-001 
2.067854e-001 
2.092416e-001 
2.114528e-001 
2.140212e-001 
2.126747e-001 
2.081683e-001 
2.056294e-001 
2.047321e-001 
1.994640e-001 
1.898178e-001 
1.836542e-001 
1.791259e-001 
1.721455e-001 
1.624621e-001 
1.547314e-001 
1.500465e-001 
1.437240e-001 
1.347298e-001 
1.291824e-001 
1.270497e-001 
1.226866e-001 
1.173328e-001 
1.146674e-001 
1.143177e-001 
1.130755e-001 
1.109803e-001 
1.102522e-001 
1.110138e-001 
1.095535e-001 
1.064341e-001 
1.059965e-001 
1.072701e-001 
1.043979e-001 
9.973851e-002 
9.816291e-002 
9.823977e-002 
9.669391e-002 
9.281064e-002 
9.189292e-002 
9.313151e-002 
9.083244e-002 
8.557030e-002 
8.477466e-002 
8.694999e-002 
8.587564e-002 
8.246911e-002 
8.090265e-002 
8.183998e-002 
8.054180e-002 
7.685560e-002 
7.561127e-002 
7.767641e-002 
7.691416e-002 
7.315273e-002 
7.259236e-002 
7.235558e-002 
7.064038e-002 
6.841057e-002 
6.758643e-002 
6.813867e-002 
6.811648e-002 
6.554966e-002 
6.511229e-002 
6.761745e-002 
6.622121e-002 
6.546367e-002 
6.714154e-002 
7.058698e-002 
7.503274e-002 
8.177060e-002 
9.259985e-002 
1.090897e-001 
1.259672e-001 
1.332182e-001 
1.368391e-001 
1.395636e-001 
1.399263e-001 
1.395896e-001 
1.409182e-001 
1.425126e-001 
1.421087e-001 
1.331334e-001 
1.200422e-001 
1.266905e-001 
1.280727e-001 
1.046626e-001 
5.879750e-002 
-1.808751e-002 
-1.044597e-001 
-1.556002e-001 
-1.746865e-001 
-1.724272e-001 
-1.657955e-001 
-1.917048e-001 
-2.278849e-001 
-2.666367e-001 
-3.009340e-001 
-2.778164e-001 
-2.062550e-001 
-1.616980e-001 
-1.530302e-001 
-1.604919e-001 
-1.666967e-001 
-1.506429e-001 
-1.143095e-001 
-5.036232e-002 
3.569248e-002 
9.597786e-002 
1.117205e-001 
1.165180e-001 
1.249277e-001 
1.334793e-001 
1.386600e-001 
1.412958e-001 
1.466326e-001 
1.538709e-001 
1.561169e-001 
1.570272e-001 
1.621442e-001 
1.666626e-001 
1.679557e-001 
1.676191e-001 
1.701944e-001 
1.744943e-001 
1.755622e-001 
1.754310e-001 
1.791036e-001 
1.823145e-001 
1.793376e-001 
1.745931e-001 
1.727784e-001 
1.708245e-001 
1.648135e-001 
1.578535e-001 
1.529522e-001 
1.488704e-001 
1.398847e-001 
1.281884e-001 
1.204519e-001 
1.139622e-001 
1.045892e-001 
9.514412e-002 
8.788865e-002 
8.080930e-002 
7.215468e-002 
6.183082e-002 
5.547289e-002 
5.110724e-002 
4.445480e-002 
3.933726e-002 
3.651793e-002 
3.220377e-002 
2.484884e-002 
1.803711e-002 
1.390244e-002 
1.060929e-002 
3.384568e-003 
-3.919736e-003 
-7.248168e-003 
-1.257671e-002 
-2.153109e-002 
-2.901765e-002 
-3.277640e-002 
-3.649401e-002 
-4.332361e-002 
-5.197692e-002 
-5.654696e-002 
-5.983530e-002 
-6.631707e-002 
-7.166509e-002 
-7.359673e-002 
-7.444521e-002 
-7.803338e-002 
-8.323145e-002 
-8.596382e-002 
-8.619933e-002 
-8.836983e-002 
-9.173616e-002 
-9.353354e-002 
-9.334109e-002 
-9.485862e-002 
-9.687620e-002 
-9.696788e-002 
-9.606538e-002 
-9.594675e-002 
-9.810971e-002 
-1.001043e-001 
-9.978707e-002 
-1.003077e-001 
-1.021771e-001 
-1.001112e-001 
-9.452887e-002 
-8.642431e-002 
-7.763807e-002 
-6.586763e-002 
-5.116264e-002 
-4.368368e-002 
-4.336172e-002 
-4.232416e-002 
-4.077299e-002 
-3.950459e-002 
-4.099006e-002 
-4.294591e-002 
-4.220549e-002 
-5.140813e-002 
-5.982421e-002 
-5.041915e-002 
-5.662331e-002 
-8.920164e-002 
-1.531642e-001 
-2.464782e-001 
-3.132272e-001 
-3.398223e-001 
-3.528530e-001 
-3.431696e-001 
-3.429445e-001 
-3.793977e-001 
-4.199384e-001 
-4.661093e-001 
-4.722281e-001 
-4.065571e-001 
-3.447059e-001 
-3.226504e-001 
-3.153825e-001 
-3.254369e-001 
-3.275095e-001 
-3.001581e-001 
-2.461818e-001 
-1.607371e-001 
-8.543215e-002 
-5.232828e-002 
-4.151612e-002 
-3.414744e-002 
-2.913461e-002 
-2.016489e-002 
-1.144911e-002 
-6.845827e-003 
-2.558830e-003 
3.943341e-003 
1.163614e-002 
1.525587e-002 
1.727026e-002 
2.154581e-002 
2.740775e-002 
2.947071e-002 
3.203648e-002 
3.649714e-002 
3.923176e-002 
3.876269e-002 
3.626294e-002 
3.604711e-002 
3.512782e-002 
2.888186e-002 
2.181067e-002 
1.573992e-002 
7.183213e-003 
-3.154548e-003 
-1.416960e-002 
-2.277576e-002 
-3.030647e-002 
-4.281239e-002 
-5.551274e-002 
-6.259029e-002 
-7.135056e-002 
-8.086034e-002 
-8.939289e-002 
-9.627331e-002 
-1.000235e-001 
-1.057795e-001 
-1.132037e-001 
-1.159707e-001 
-1.159201e-001 
-1.190819e-001 
-1.220580e-001 
-1.240431e-001 
-1.237118e-001 
-1.243001e-001 
-1.294278e-001 
-1.343028e-001 
-1.363026e-001 
-1.397729e-001 
-1.463228e-001 
-1.501938e-001 
-1.520791e-001 
-1.546756e-001 
-1.597027e-001 
-1.651963e-001 
-1.677292e-001 
-1.696692e-001 
-1.734565e-001 
-1.747859e-001 
-1.737762e-001 
-1.762525e-001 
-1.791733e-001 
-1.812426e-001 
-1.819787e-001 
-1.813385e-001 
-1.821673e-001 
-1.819407e-001 
-1.795342e-001 
-1.807067e-001 
-1.835600e-001 
-1.833168e-001 
-1.819947e-001 
-1.806859e-001 
-1.808276e-001 
-1.804244e-001 
-1.779066e-001 
-1.768088e-001 
-1.776750e-001 
-1.751539e-001 
-1.713935e-001 
-1.696029e-001 
-1.679488e-001 
-1.602585e-001 
-1.474898e-001 
-1.351633e-001 
-1.211364e-001 
-1.035785e-001 
-9.238899e-002 
-9.098580e-002 
-9.118972e-002 
-8.685766e-002 
-7.894048e-002 
-7.747186e-002 
-7.945538e-002 
-7.817072e-002 
-8.412899e-002 
-9.292092e-002 
-8.672843e-002 
-9.004541e-002 
-1.183080e-001 
-1.802354e-001 
-2.776041e-001 
-3.599674e-001 
-3.947195e-001 
-4.045706e-001 
-3.932280e-001 
-3.874066e-001 
-4.158702e-001 
-4.523008e-001 
-4.947361e-001 
-5.097093e-001 
-4.490259e-001 
-3.648631e-001 
-3.224851e-001 
-3.069976e-001 
-3.078673e-001 
-3.026564e-001 
-2.697763e-001 
-2.091671e-001 
-1.146285e-001 
-1.640858e-002 
3.754887e-002 
5.549749e-002 
6.807556e-002 
7.844281e-002 
8.892731e-002 
1.004863e-001 
1.126932e-001 
1.221490e-001 
1.296479e-001 
1.392969e-001 
1.500921e-001 
1.573517e-001 
1.629879e-001 
1.702183e-001 
1.790707e-001 
1.855683e-001 
1.890790e-001 
1.948362e-001 
2.014548e-001 
2.022880e-001 
1.988572e-001 
1.967813e-001 
1.950650e-001 
1.900597e-001 
1.803436e-001 
1.710741e-001 
1.621489e-001 
1.492493e-001 
1.349850e-001 
1.225536e-001 
1.103255e-001 
9.647147e-002 
8.150293e-002 
6.885222e-002 
5.774407e-002 
4.491161e-002 
3.343728e-002 
2.596715e-002 
1.801108e-002 
9.105961e-003 
2.980032e-003 
1.971518e-004 
-1.826677e-003 
-6.729065e-003 
-1.132096e-002 
-1.262405e-002 
-1.426467e-002 
-1.958088e-002 
-2.417145e-002 
-2.572332e-002 
-2.798412e-002 
-3.312959e-002 
-3.984494e-002 
-4.405310e-002 
-4.698276e-002 
-5.151343e-002 
-5.698624e-002 
-6.022170e-002 
-6.263172e-002 
-6.750270e-002 
-7.244040e-002 
-7.620159e-002 
-7.886297e-002 
-8.206128e-002 
-8.509277e-002 
-8.727229e-002 
-8.809618e-002 
-9.068851e-002 
-9.396086e-002 
-9.542193e-002 
-9.753354e-002 
-1.004998e-001 
-1.029443e-001 
-1.032098e-001 
-1.027663e-001 
-1.056206e-001 
-1.096261e-001 
-1.099866e-001 
-1.097154e-001 
-1.108387e-001 
-1.107678e-001 
-1.084003e-001 
-1.038108e-001 
-9.882482e-002 
-9.211224e-002 
-7.893168e-002 
-6.173014e-002 
-4.556633e-002 
-3.596403e-002 
-2.869493e-002 
-2.414158e-002 
-2.172302e-002 
-1.692533e-002 
-1.159631e-002 
-8.058730e-003 
-6.235693e-003 
-1.072062e-002 
-1.533824e-002 
-5.076914e-003 
-5.210532e-003 
-2.543236e-002 
-6.721053e-002 
-1.420889e-001 
-2.164390e-001 
-2.539992e-001 
-2.634217e-001 
-2.547458e-001 
-2.486602e-001 
-2.712060e-001 
-2.999639e-001 
-3.347125e-001 
-3.577235e-001 
-3.199468e-001 
-2.503146e-001 
-2.090047e-001 
-1.991354e-001 
-2.027900e-001 
-2.033757e-001 
-1.820191e-001 
-1.405253e-001 
-7.011115e-002 
1.312429e-002 
6.584730e-002 
8.309342e-002 
9.239187e-002 
1.045035e-001 
1.161670e-001 
1.267347e-001 
1.354248e-001 
1.465735e-001 
1.584378e-001 
1.680625e-001 
1.762803e-001 
1.866237e-001 
1.967936e-001 
2.053829e-001 
2.119484e-001 
2.220561e-001 
2.333062e-001 
2.409178e-001 
2.472605e-001 
2.544210e-001 
2.621020e-001 
2.670175e-001 
2.670003e-001 
2.665334e-001 
2.671770e-001 
2.625386e-001 
2.573279e-001 
2.529481e-001 
2.483027e-001 
2.415632e-001 
2.314847e-001 
2.212961e-001 
2.140324e-001 
2.052346e-001 
1.962063e-001 
1.902398e-001 
1.831450e-001 
1.753788e-001 
1.672648e-001 
1.609348e-001 
1.583791e-001 
1.552589e-001 
1.522193e-001 
1.537129e-001 
1.561717e-001 
1.552786e-001 
1.529312e-001 
1.524323e-001 
1.545737e-001 
1.543667e-001 
1.521732e-001 
1.540097e-001 
1.566380e-001 
1.556007e-001 
1.517374e-001 
1.502675e-001 
1.533020e-001 
1.543974e-001 
1.516047e-001 
1.519994e-001 
1.536644e-001 
1.518170e-001 
1.496425e-001 
1.491660e-001 
1.500709e-001 
1.498412e-001 
1.466164e-001 
1.452666e-001 
1.456895e-001 
1.432358e-001 
1.410087e-001 
1.415164e-001 
1.420581e-001 
1.388646e-001 
1.370469e-001 
1.383985e-001 
1.397163e-001 
1.379253e-001 
1.361372e-001 
1.381059e-001 
1.417245e-001 
1.413947e-001 
1.400306e-001 
1.455679e-001 
1.533962e-001 
1.610401e-001 
1.702394e-001 
1.852507e-001 
2.061328e-001 
2.195294e-001 
2.221663e-001 
2.264242e-001 
2.327258e-001 
2.358989e-001 
2.366462e-001 
2.369341e-001 
2.396777e-001 
2.373644e-001 
2.225631e-001 
2.221425e-001 
2.284346e-001 
2.068646e-001 
1.562356e-001 
7.681388e-002 
-2.110475e-002 
-8.757449e-002 
-1.141157e-001 
-1.185136e-001 
-1.080758e-001 
-1.275057e-001 
-1.726327e-001 
-2.135199e-001 
-2.506237e-001 
-2.440635e-001 
-1.715481e-001 
-1.085501e-001 
-8.645741e-002 
-8.681056e-002 
-9.589690e-002 
-8.117931e-002 
-3.653392e-002 
3.146003e-002 
1.225957e-001 
2.021772e-001 
2.370554e-001 
2.479712e-001 
2.539980e-001 
2.632187e-001 
2.764460e-001 
2.855023e-001 
2.908953e-001 
3.009293e-001 
3.151822e-001 
3.260824e-001 
3.324252e-001 
3.381006e-001 
3.488172e-001 
3.584576e-001 
3.628082e-001 
3.695737e-001 
3.799490e-001 
3.851141e-001 
3.856018e-001 
3.862391e-001 
3.871884e-001 
3.866810e-001 
3.805975e-001 
3.735056e-001 
3.684198e-001 
3.596831e-001 
3.462056e-001 
3.347911e-001 
3.246368e-001 
3.108049e-001 
2.948967e-001 
2.812994e-001 
2.709056e-001 
2.584802e-001 
2.460883e-001 
2.374473e-001 
2.307809e-001 
2.214887e-001 
2.126142e-001 
2.088806e-001 
2.075575e-001 
2.038920e-001 
1.992091e-001 
1.986038e-001 
1.987580e-001 
1.950270e-001 
1.901964e-001 
1.906563e-001 
1.913111e-001 
1.865550e-001 
1.807838e-001 
1.776352e-001 
1.761890e-001 
1.713822e-001 
1.641765e-001 
1.612826e-001 
1.599628e-001 
1.530379e-001 
1.451188e-001 
1.414367e-001 
1.396604e-001 
1.361558e-001 
1.313748e-001 
1.297645e-001 
1.287207e-001 
1.241729e-001 
1.194559e-001 
1.177234e-001 
1.174092e-001 
1.152524e-001 
1.118204e-001 
1.107366e-001 
1.099301e-001 
1.062246e-001 
1.030732e-001 
1.021677e-001 
1.021380e-001 
1.019011e-001 
9.908421e-002 
9.715418e-002 
9.711459e-002 
9.497396e-002 
9.235874e-002 
9.325385e-002 
9.521850e-002 
9.865613e-002 
1.044118e-001 
1.131274e-001 
1.270355e-001 
1.417227e-001 
1.482182e-001 
1.534041e-001 
1.569942e-001 
1.552666e-001 
1.553901e-001 
1.571352e-001 
1.579373e-001 
1.576614e-001 
1.490497e-001 
1.401036e-001 
1.497175e-001 
1.460068e-001 
1.184062e-001 
6.824501e-002 
-1.839078e-002 
-1.085532e-001 
-1.553838e-001 
-1.721803e-001 
-1.673125e-001 
-1.626723e-001 
-1.929231e-001 
-2.294112e-001 
-2.726366e-001 
-3.070217e-001 
-2.713078e-001 
-1.923532e-001 
-1.498665e-001 
-1.398814e-001 
-1.450891e-001 
-1.489838e-001 
-1.288778e-001 
-8.709077e-002 
-1.309791e-002 
8.082324e-002 
1.414335e-001 
1.561401e-001 
1.628741e-001 
1.721102e-001 
1.802689e-001 
1.864049e-001 
1.915016e-001 
1.993321e-001 
2.085892e-001 
2.119875e-001 
2.130879e-001 
2.193734e-001 
2.249397e-001 
2.277675e-001 
2.303999e-001 
2.358063e-001 
2.406468e-001 
2.398772e-001 
2.380223e-001 
2.415503e-001 
2.439789e-001 
2.407654e-001 
2.363640e-001 
2.330314e-001 
2.280377e-001 
2.173219e-001 
2.058307e-001 
1.989729e-001 
1.924644e-001 
1.811068e-001 
1.677643e-001 
1.570242e-001 
1.463729e-001 
1.341465e-001 
1.206324e-001 
1.095710e-001 
1.015862e-001 
9.109405e-002 
7.879329e-002 
6.924611e-002 
6.117978e-002 
5.244665e-002 
4.391499e-002 
3.581780e-002 
3.008330e-002 
2.361029e-002 
1.478651e-002 
7.342001e-003 
1.169830e-003 
-7.267341e-003 
-1.560547e-002 
-2.177781e-002 
-2.825406e-002 
-3.606202e-002 
-4.533777e-002 
-5.247756e-002 
-5.699174e-002 
-6.218159e-002 
-6.904584e-002 
-7.353583e-002 
-7.693732e-002 
-8.260142e-002 
-8.932347e-002 
-9.283725e-002 
-9.267212e-002 
-9.390183e-002 
-9.781915e-002 
-1.027535e-001 
-1.041151e-001 
-1.065998e-001 
-1.113731e-001 
-1.134630e-001 
-1.116742e-001 
-1.133978e-001 
-1.176651e-001 
-1.196011e-001 
-1.199472e-001 
-1.195110e-001 
-1.228095e-001 
-1.248464e-001 
-1.221542e-001 
-1.229206e-001 
-1.272857e-001 
-1.270887e-001 
-1.248397e-001 
-1.255840e-001 
-1.280541e-001 
-1.271583e-001 
-1.176488e-001 
-1.076242e-001 
-1.003376e-001 
-8.478931e-002 
-6.945045e-002 
-6.590170e-002 
-6.780551e-002 
-6.690279e-002 
-6.224958e-002 
-5.944785e-002 
-6.309705e-002 
-6.291712e-002 
-6.137980e-002 
-7.298452e-002 
-7.383356e-002 
-6.740893e-002 
-8.315408e-002 
-1.245604e-001 
-1.966889e-001 
-2.834620e-001 
-3.386645e-001 
-3.606657e-001 
-3.634963e-001 
-3.516412e-001 
-3.687992e-001 
-4.076469e-001 
-4.435102e-001 
-4.771130e-001 
-4.650122e-001 
-3.960463e-001 
-3.395612e-001 
-3.198885e-001 
-3.204074e-001 
-3.295534e-001 
-3.166734e-001 
-2.782136e-001 
-2.158553e-001 
-1.305849e-001 
-6.204856e-002 
-3.491847e-002 
-2.752413e-002 
-2.076895e-002 
-1.341433e-002 
-5.111449e-003 
2.225829e-003 
8.839538e-003 
1.635035e-002 
2.419608e-002 
2.951620e-002 
3.371655e-002 
3.981320e-002 
4.473533e-002 
4.999744e-002 
5.613299e-002 
6.192195e-002 
6.724406e-002 
7.117198e-002 
7.281862e-002 
7.609183e-002 
7.879496e-002 
7.896478e-002 
7.840028e-002 
7.493835e-002 
6.946481e-002 
6.429105e-002 
5.748540e-002 
4.999907e-002 
4.496175e-002 
3.895150e-002 
2.978039e-002 
2.101981e-002 
1.381307e-002 
8.005249e-003 
8.867193e-004 
-7.777365e-003 
-1.263194e-002 
-1.591273e-002 
-2.318319e-002 
-3.024353e-002 
-3.069530e-002 
-3.059490e-002 
-3.347594e-002 
-3.739514e-002 
-3.774243e-002 
-3.678793e-002 
-3.955761e-002 
-4.472361e-002 
-4.614777e-002 
-4.562776e-002 
-5.068850e-002 
-5.538777e-002 
-5.590265e-002 
-5.488379e-002 
-5.595610e-002 
-5.752051e-002 
-5.808019e-002 
-5.706779e-002 
-5.629278e-002 
-5.722758e-002 
-5.445076e-002 
-5.081442e-002 
-4.799456e-002 
-4.569663e-002 
-4.279414e-002 
-3.979273e-002 
-3.554140e-002 
-3.186973e-002 
-2.723078e-002 
-1.999727e-002 
-1.483035e-002 
-9.264328e-003 
-3.853418e-003 
2.850138e-003 
9.121972e-003 
1.577372e-002 
2.338852e-002 
3.376344e-002 
4.182924e-002 
4.822548e-002 
5.782944e-002 
6.654069e-002 
7.166066e-002 
7.808909e-002 
9.035321e-002 
1.051363e-001 
1.191109e-001 
1.319976e-001 
1.484371e-001 
1.601818e-001 
1.617492e-001 
1.609492e-001 
1.651402e-001 
1.689429e-001 
1.676294e-001 
1.632948e-001 
1.598623e-001 
1.520082e-001 
1.395489e-001 
1.393174e-001 
1.356898e-001 
1.067803e-001 
4.317161e-002 
-5.424185e-002 
-1.432929e-001 
-1.881357e-001 
-2.083745e-001 
-2.108629e-001 
-2.085266e-001 
-2.367588e-001 
-2.840162e-001 
-3.373194e-001 
-3.640597e-001 
-3.192519e-001 
-2.473967e-001 
-2.114128e-001 
-1.978236e-001 
-1.970442e-001 
-2.013823e-001 
-1.825216e-001 
-1.301571e-001 
-4.303165e-002 
5.005124e-002 
1.045593e-001 
1.254150e-001 
1.386257e-001 
1.472288e-001 
1.532413e-001 
1.642847e-001 
1.761712e-001 
1.836432e-001 
1.912842e-001 
2.021258e-001 
2.120775e-001 
2.188123e-001 
2.242636e-001 
2.330337e-001 
2.436483e-001 
2.489617e-001 
2.532325e-001 
2.604044e-001 
2.672016e-001 
2.672396e-001 
2.651344e-001 
2.655056e-001 
2.658241e-001 
2.589953e-001 
2.486230e-001 
2.393277e-001 
2.302472e-001 
2.166265e-001 
1.980243e-001 
1.833557e-001 
1.707783e-001 
1.541596e-001 
1.355513e-001 
1.204657e-001 
1.076640e-001 
9.504145e-002 
8.015397e-002 
6.832417e-002 
6.171802e-002 
5.413022e-002 
4.578616e-002 
4.144281e-002 
4.054183e-002 
3.796007e-002 
3.397576e-002 
3.340707e-002 
3.389759e-002 
3.164521e-002 
2.822185e-002 
2.692922e-002 
2.692076e-002 
2.407184e-002 
1.876206e-002 
1.741059e-002 
1.663037e-002 
1.091430e-002 
5.842072e-003 
3.942039e-003 
2.588962e-003 
-9.658282e-004 
-5.637907e-003 
-7.304780e-003 
-7.911248e-003 
-1.199628e-002 
-1.498797e-002 
-1.484690e-002 
-1.429146e-002 
-1.566130e-002 
-1.891866e-002 
-2.083673e-002 
-2.133694e-002 
-2.390138e-002 
-2.593848e-002 
-2.527073e-002 
-2.453470e-002 
-2.533961e-002 
-2.764124e-002 
-2.957316e-002 
-2.862759e-002 
-2.787128e-002 
-2.869063e-002 
-2.795286e-002 
-2.734666e-002 
-2.827267e-002 
-2.952991e-002 
-2.942954e-002 
-2.498205e-002 
-1.610761e-002 
-8.023981e-003 
2.464717e-003 
1.852382e-002 
3.196247e-002 
3.718709e-002 
3.991248e-002 
4.195312e-002 
4.438644e-002 
4.512990e-002 
4.403712e-002 
4.643977e-002 
4.657715e-002 
3.461589e-002 
2.562765e-002 
3.599487e-002 
3.337918e-002 
3.945355e-003 
-5.468983e-002 
-1.465845e-001 
-2.365135e-001 
-2.849091e-001 
-3.003551e-001 
-2.906049e-001 
-2.856819e-001 
-3.180089e-001 
-3.584686e-001 
-4.044406e-001 
-4.333248e-001 
-3.924979e-001 
-3.126704e-001 
-2.681973e-001 
-2.593517e-001 
-2.690472e-001 
-2.712245e-001 
-2.455878e-001 
-1.958120e-001 
-1.134791e-001 
-1.793037e-002 
4.339270e-002 
6.081933e-002 
6.702336e-002 
7.732685e-002 
8.961503e-002 
9.813573e-002 
1.041951e-001 
1.117742e-001 
1.222519e-001 
1.308034e-001 
1.357433e-001 
1.433039e-001 
1.505256e-001 
1.555022e-001 
1.603248e-001 
1.659666e-001 
1.737465e-001 
1.781539e-001 
1.790637e-001 
1.821822e-001 
1.848680e-001 
1.819872e-001 
1.796084e-001 
1.777422e-001 
1.741044e-001 
1.676889e-001 
1.562849e-001 
1.472830e-001 
1.397052e-001 
1.267048e-001 
1.127067e-001 
1.023298e-001 
9.237716e-002 
8.123926e-002 
6.750240e-002 
5.622054e-002 
4.953485e-002 
4.017306e-002 
2.933439e-002 
2.334662e-002 
1.867228e-002 
1.302381e-002 
5.645275e-003 
8.061762e-004 
-2.283783e-004 
-3.819855e-003 
-9.883848e-003 
-1.216700e-002 
-1.189409e-002 
-1.619273e-002 
-2.189870e-002 
-2.525214e-002 
-2.631332e-002 
-3.119272e-002 
-3.824813e-002 
-4.170637e-002 
-4.122831e-002 
-4.468441e-002 
-5.139046e-002 
-5.341591e-002 
-5.290773e-002 
-5.506893e-002 
-5.953603e-002 
-6.133490e-002 
-5.908479e-002 
-5.757310e-002 
-6.220903e-002 
-6.325808e-002 
-6.013222e-002 
-5.998647e-002 
-6.178479e-002 
-6.277243e-002 
-6.059413e-002 
-5.712657e-002 
-5.835914e-002 
-6.151123e-002 
-5.961555e-002 
-5.981313e-002 
-6.202828e-002 
-6.245430e-002 
-6.190771e-002 
-6.197962e-002 
-6.430423e-002 
-6.663758e-002 
-6.691376e-002 
-6.485451e-002 
-5.933333e-002 
-4.879866e-002 
-3.565282e-002 
-2.147246e-002 
-1.126664e-002 
-4.309361e-003 
4.541308e-004 
9.122093e-004 
3.863957e-003 
9.697705e-003 
1.224533e-002 
1.368565e-002 
1.096295e-002 
4.306842e-003 
1.169828e-002 
1.314472e-002 
-8.355017e-003 
-4.907673e-002 
-1.224207e-001 
-2.062439e-001 
-2.535189e-001 
-2.722414e-001 
-2.717414e-001 
-2.652216e-001 
-2.894730e-001 
-3.236378e-001 
-3.590381e-001 
-3.921373e-001 
-3.672681e-001 
-2.959226e-001 
-2.507934e-001 
-2.358370e-001 
-2.374276e-001 
-2.404569e-001 
-2.221587e-001 
-1.837843e-001 
-1.168916e-001 
-2.706148e-002 
3.529268e-002 
5.693388e-002 
6.693509e-002 
7.702675e-002 
8.586396e-002 
9.308053e-002 
1.010377e-001 
1.118118e-001 
1.225518e-001 
1.276092e-001 
1.310961e-001 
1.370885e-001 
1.428716e-001 
1.467092e-001 
1.519070e-001 
1.579573e-001 
1.634765e-001 
1.647058e-001 
1.635188e-001 
1.659673e-001 
1.704675e-001 
1.693859e-001 
1.657031e-001 
1.638139e-001 
1.603194e-001 
1.529614e-001 
1.429157e-001 
1.359812e-001 
1.311478e-001 
1.219728e-001 
1.082142e-001 
9.810450e-002 
9.101997e-002 
8.137015e-002 
7.063642e-002 
6.192005e-002 
5.592047e-002 
4.651668e-002 
3.522055e-002 
2.784505e-002 
2.394064e-002 
1.966383e-002 
1.470735e-002 
1.111282e-002 
8.070920e-003 
2.812810e-003 
-4.573025e-003 
-7.232853e-003 
-9.244768e-003 
-1.495126e-002 
-2.104479e-002 
-2.515632e-002 
-2.831712e-002 
-3.372805e-002 
-4.084799e-002 
-4.413512e-002 
-4.477320e-002 
-5.153447e-002 
-5.892558e-002 
-6.143195e-002 
-6.203033e-002 
-6.593613e-002 
-7.287528e-002 
-7.653425e-002 
-7.675826e-002 
-7.999811e-002 
-8.683333e-002 
-8.738420e-002 
-8.594508e-002 
-8.887945e-002 
-9.512313e-002 
-9.869580e-002 
-9.907533e-002 
-1.022848e-001 
-1.077941e-001 
-1.103254e-001 
-1.084035e-001 
-1.117557e-001 
-1.171069e-001 
-1.189647e-001 
-1.181390e-001 
-1.185171e-001 
-1.181475e-001 
-1.112884e-001 
-1.006747e-001 
-8.914315e-002 
-7.847190e-002 
-6.985659e-002 
-6.665115e-002 
-6.892129e-002 
-7.269189e-002 
-7.162230e-002 
-6.933042e-002 
-7.282058e-002 
-7.648859e-002 
-8.425977e-002 
-9.804086e-002 
-1.000825e-001 
-1.008478e-001 
-1.208978e-001 
-1.632596e-001 
-2.410184e-001 
-3.350717e-001 
-3.904500e-001 
-4.118597e-001 
-4.155929e-001 
-4.081330e-001 
-4.271471e-001 
-4.639819e-001 
-5.039854e-001 
-5.442613e-001 
-5.290371e-001 
-4.571579e-001 
-4.108699e-001 
-4.003158e-001 
-4.042350e-001 
-4.144855e-001 
-4.046868e-001 
-3.718101e-001 
-3.103506e-001 
-2.249932e-001 
-1.650952e-001 
-1.482020e-001 
-1.412871e-001 
-1.340351e-001 
-1.294660e-001 
-1.239116e-001 
-1.166842e-001 
-1.100859e-001 
-1.053863e-001 
-9.988000e-002 
-9.392155e-002 
-8.712725e-002 
-8.309810e-002 
-8.016151e-002 
-7.358684e-002 
-6.697402e-002 
-6.389910e-002 
-6.001861e-002 
-5.539432e-002 
-5.233950e-002 
-5.051730e-002 
-5.120975e-002 
-5.174473e-002 
-5.312620e-002 
-5.756581e-002 
-6.474312e-002 
-6.958119e-002 
-7.340077e-002 
-8.148284e-002 
-9.115892e-002 
-9.778033e-002 
-1.043189e-001 
-1.133050e-001 
-1.223216e-001 
-1.293086e-001 
-1.320724e-001 
-1.381335e-001 
-1.482834e-001 
-1.519134e-001 
-1.533695e-001 
-1.585688e-001 
-1.634343e-001 
-1.640639e-001 
-1.619317e-001 
-1.607974e-001 
-1.645460e-001 
-1.653310e-001 
-1.626595e-001 
-1.655429e-001 
-1.693413e-001 
-1.695609e-001 
-1.681130e-001 
-1.693257e-001 
-1.732484e-001 
-1.762298e-001 
-1.755353e-001 
-1.770611e-001 
-1.805600e-001 
-1.816679e-001 
-1.809402e-001 
-1.824038e-001 
-1.856042e-001 
-1.866645e-001 
-1.856238e-001 
-1.869045e-001 
-1.899153e-001 
-1.915097e-001 
-1.921310e-001 
-1.929280e-001 
-1.945939e-001 
-1.934838e-001 
-1.929378e-001 
-1.951890e-001 
-1.983167e-001 
-1.978457e-001 
-1.950529e-001 
-1.907629e-001 
-1.840585e-001 
-1.721687e-001 
-1.584755e-001 
-1.491721e-001 
-1.420262e-001 
-1.364522e-001 
-1.309227e-001 
-1.278182e-001 
-1.257231e-001 
-1.219999e-001 
-1.185126e-001 
-1.190443e-001 
-1.249637e-001 
-1.311003e-001 
-1.212654e-001 
-1.106399e-001 
-1.260042e-001 
-1.678933e-001 
-2.387199e-001 
-3.171115e-001 
-3.634786e-001 
-3.789039e-001 
-3.741400e-001 
-3.603074e-001 
-3.764870e-001 
-4.148658e-001 
-4.554083e-001 
-4.852653e-001 
-4.633463e-001 
-3.973372e-001 
-3.514087e-001 
-3.398860e-001 
-3.451798e-001 
-3.533523e-001 
-3.414839e-001 
-3.054224e-001 
-2.420635e-001 
-1.606303e-001 
-9.975693e-002 
-7.939361e-002 
-7.550248e-002 
-6.589713e-002 
-5.390361e-002 
-4.644746e-002 
-4.010320e-002 
-3.152622e-002 
-2.027662e-002 
-1.133694e-002 
-6.803043e-003 
-1.761105e-004 
9.871753e-003 
1.575835e-002 
2.113024e-002 
2.946458e-002 
3.811547e-002 
4.510085e-002 
5.081480e-002 
5.911095e-002 
6.690038e-002 
7.146224e-002 
7.521964e-002 
7.895536e-002 
8.045844e-002 
7.943779e-002 
7.716390e-002 
7.734516e-002 
7.695295e-002 
7.121427e-002 
6.641371e-002 
6.223326e-002 
5.683511e-002 
5.160001e-002 
4.469882e-002 
4.156201e-002 
3.898163e-002 
3.220328e-002 
2.503428e-002 
2.292637e-002 
2.055279e-002 
1.893042e-002 
1.769612e-002 
1.916375e-002 
2.428578e-002 
2.354710e-002 
2.197001e-002 
2.300799e-002 
2.498542e-002 
2.267406e-002 
2.265495e-002 
2.485021e-002 
2.827099e-002 
2.721303e-002 
2.252714e-002 
2.268433e-002 
2.359694e-002 
2.153202e-002 
1.810287e-002 
2.068348e-002 
2.308589e-002 
2.110194e-002 
1.573219e-002 
1.575218e-002 
2.014873e-002 
2.021966e-002 
1.732464e-002 
1.814795e-002 
2.338040e-002 
2.412614e-002 
2.096621e-002 
2.282068e-002 
2.945680e-002 
3.309415e-002 
3.509916e-002 
4.274640e-002 
5.751053e-002 
7.226607e-002 
8.445616e-002 
9.520784e-002 
1.041632e-001 
1.061695e-001 
1.054116e-001 
1.084451e-001 
1.141024e-001 
1.160747e-001 
1.150136e-001 
1.115928e-001 
1.058181e-001 
1.116177e-001 
1.130567e-001 
9.075108e-002 
4.070391e-002 
-4.419816e-002 
-1.318993e-001 
-1.769491e-001 
-1.902440e-001 
-1.841379e-001 
-1.727955e-001 
-1.935935e-001 
-2.347039e-001 
-2.786921e-001 
-3.074241e-001 
-2.703216e-001 
-1.915388e-001 
-1.430518e-001 
-1.285209e-001 
-1.297506e-001 
-1.340053e-001 
-1.166483e-001 
-6.928811e-002 
1.128447e-002 
1.075133e-001 
1.688750e-001 
1.871834e-001 
1.951568e-001 
2.059993e-001 
2.155073e-001 
2.234080e-001 
2.338856e-001 
2.461124e-001 
2.559335e-001 
2.637195e-001 
2.746574e-001 
2.869013e-001 
2.985650e-001 
3.097224e-001 
3.201260e-001 
3.331610e-001 
3.443440e-001 
3.512316e-001 
3.600622e-001 
3.682009e-001 
3.697491e-001 
3.703935e-001 
3.705151e-001 
3.673047e-001 
3.612719e-001 
3.517652e-001 
3.423144e-001 
3.329136e-001 
3.190046e-001 
3.036946e-001 
2.920921e-001 
2.795783e-001 
2.632716e-001 
2.483778e-001 
2.386159e-001 
2.303292e-001 
2.203361e-001 
2.118824e-001 
2.069038e-001 
2.043083e-001 
2.011865e-001 
1.983972e-001 
2.005914e-001 
2.049409e-001 
2.043266e-001 
2.027129e-001 
2.034856e-001 
2.044881e-001 
2.051045e-001 
2.038065e-001 
2.038583e-001 
2.062679e-001 
2.056206e-001 
2.016307e-001 
2.002359e-001 
1.996564e-001 
1.980862e-001 
1.958378e-001 
1.952737e-001 
1.973800e-001 
1.971881e-001 
1.946028e-001 
1.949623e-001 
1.965720e-001 
1.954147e-001 
1.937415e-001 
1.953519e-001 
1.996145e-001 
2.006393e-001 
1.982997e-001 
1.991681e-001 
2.025280e-001 
2.022672e-001 
2.018937e-001 
2.066415e-001 
2.186115e-001 
2.303838e-001 
2.395893e-001 
2.532926e-001 
2.665735e-001 
2.705962e-001 
2.703846e-001 
2.725900e-001 
2.781588e-001 
2.828436e-001 
2.798875e-001 
2.778626e-001 
2.764982e-001 
2.658183e-001 
2.642588e-001 
2.742761e-001 
2.584940e-001 
2.045306e-001 
1.159895e-001 
1.539154e-002 
-4.345200e-002 
-6.221558e-002 
-6.295558e-002 
-4.661157e-002 
-5.448884e-002 
-1.045482e-001 
-1.565209e-001 
-1.897876e-001 
-1.673364e-001 
-8.481980e-002 
-2.196557e-002 
-9.308563e-004 
2.757090e-003 
-6.672456e-003 
4.897838e-004 
5.002300e-002 
1.318383e-001 
2.320037e-001 
3.088932e-001 
3.372771e-001 
3.466018e-001 
3.538858e-001 
3.591605e-001 
3.694136e-001 
3.830903e-001 
3.917229e-001 
3.995837e-001 
4.115677e-001 
4.227349e-001 
4.317387e-001 
4.388249e-001 
4.481929e-001 
4.599654e-001 
4.677386e-001 
4.722460e-001 
4.803456e-001 
4.867273e-001 
4.853201e-001 
4.824822e-001 
4.804058e-001 
4.756975e-001 
4.656587e-001 
4.521388e-001 
4.400099e-001 
4.284082e-001 
4.103412e-001 
3.896758e-001 
3.737642e-001 
3.571586e-001 
3.369065e-001 
3.174332e-001 
3.010324e-001 
2.872617e-001 
2.723115e-001 
2.566316e-001 
2.443488e-001 
2.360176e-001 
2.269039e-001 
2.196991e-001 
2.157212e-001 
2.130511e-001 
2.089571e-001 
2.044969e-001 
2.021034e-001 
1.996919e-001 
1.967984e-001 
1.920298e-001 
1.878205e-001 
1.835084e-001 
1.777084e-001 
1.721502e-001 
1.700724e-001 
1.672612e-001 
1.611894e-001 
1.553923e-001 
1.511976e-001 
1.474405e-001 
1.426665e-001 
1.382396e-001 
1.353300e-001 
1.330579e-001 
1.279165e-001 
1.229156e-001 
1.214146e-001 
1.192059e-001 
1.155135e-001 
1.138773e-001 
1.121564e-001 
1.088858e-001 
1.055961e-001 
1.024158e-001 
1.015899e-001 
9.898753e-002 
9.437548e-002 
9.477702e-002 
9.964049e-002 
1.056783e-001 
1.126725e-001 
1.230316e-001 
1.390854e-001 
1.490021e-001 
1.478622e-001 
1.480054e-001 
1.503911e-001 
1.514405e-001 
1.498740e-001 
1.453705e-001 
1.449482e-001 
1.417509e-001 
1.266148e-001 
1.238602e-001 
1.290266e-001 
1.043642e-001 
4.302164e-002 
-5.035257e-002 
-1.502467e-001 
-2.050631e-001 
-2.243050e-001 
-2.289204e-001 
-2.192240e-001 
-2.371465e-001 
-2.894989e-001 
-3.408944e-001 
-3.737445e-001 
-3.470130e-001 
-2.664173e-001 
-2.157800e-001 
-2.035374e-001 
-2.041897e-001 
-2.158829e-001 
-2.058277e-001 
-1.567634e-001 
-7.822986e-002 
1.635660e-002 
8.099263e-002 
9.991794e-002 
1.064737e-001 
1.099513e-001 
1.117300e-001 
1.191476e-001 
1.261122e-001 
1.299316e-001 
1.319864e-001 
1.358467e-001 
1.426541e-001 
1.463671e-001 
1.472519e-001 
1.508195e-001 
1.552913e-001 
1.563214e-001 
1.556218e-001 
1.542508e-001 
1.568091e-001 
1.575705e-001 
1.538635e-001 
1.505211e-001 
1.462400e-001 
1.377638e-001 
1.271139e-001 
1.159743e-001 
1.063126e-001 
9.680675e-002 
8.391064e-002 
7.248381e-002 
6.043251e-002 
4.554611e-002 
3.011289e-002 
1.810667e-002 
8.037679e-003 
-3.033332e-003 
-1.516570e-002 
-2.394982e-002 
-3.173341e-002 
-4.191170e-002 
-5.092010e-002 
-5.672186e-002 
-5.979097e-002 
-6.504044e-002 
-7.195853e-002 
-7.548283e-002 
-7.727439e-002 
-8.264682e-002 
-8.889414e-002 
-9.380956e-002 
-9.758570e-002 
-1.029951e-001 
-1.094496e-001 
-1.136344e-001 
-1.157524e-001 
-1.200900e-001 
-1.259703e-001 
-1.303325e-001 
-1.331560e-001 
-1.369576e-001 
-1.415333e-001 
-1.436252e-001 
-1.443405e-001 
-1.473034e-001 
-1.498355e-001 
-1.501235e-001 
-1.510950e-001 
-1.533053e-001 
-1.560116e-001 
-1.568739e-001 
-1.558516e-001 
-1.576440e-001 
-1.610515e-001 
-1.607100e-001 
-1.619591e-001 
-1.651042e-001 
-1.678205e-001 
-1.690368e-001 
-1.690754e-001 
-1.704942e-001 
-1.742362e-001 
-1.758145e-001 
-1.741154e-001 
-1.714926e-001 
-1.663679e-001 
-1.569711e-001 
-1.424480e-001 
-1.314172e-001 
-1.286092e-001 
-1.275449e-001 
-1.269778e-001 
-1.278122e-001 
-1.282536e-001 
-1.292098e-001 
-1.283727e-001 
-1.311160e-001 
-1.458220e-001 
-1.508543e-001 
-1.394394e-001 
-1.494691e-001 
-1.867407e-001 
-2.537507e-001 
-3.511091e-001 
-4.266698e-001 
-4.601071e-001 
-4.703058e-001 
-4.585511e-001 
-4.638459e-001 
-5.057546e-001 
-5.505424e-001 
-5.996050e-001 
-6.116787e-001 
-5.483522e-001 
-4.801919e-001 
-4.565937e-001 
-4.572526e-001 
-4.708516e-001 
-4.717667e-001 
-4.457250e-001 
-3.922177e-001 
-3.032610e-001 
-2.195233e-001 
-1.843225e-001 
-1.788452e-001 
-1.725383e-001 
-1.638700e-001 
-1.567184e-001 
-1.515849e-001 
-1.448188e-001 
-1.367926e-001 
-1.306155e-001 
-1.266205e-001 
-1.217593e-001 
-1.152916e-001 
-1.103011e-001 
-1.052138e-001 
-9.997347e-002 
-9.409485e-002 
-8.898986e-002 
-8.747259e-002 
-8.597159e-002 
-8.423151e-002 
-8.276037e-002 
-8.335395e-002 
-8.677379e-002 
-9.199249e-002 
-9.805083e-002 
-1.069251e-001 
-1.164035e-001 
-1.250729e-001 
-1.356689e-001 
-1.460485e-001 
-1.589287e-001 
-1.715478e-001 
-1.824224e-001 
-1.926446e-001 
-2.025458e-001 
-2.106455e-001 
-2.201305e-001 
-2.297861e-001 
-2.369448e-001 
-2.427581e-001 
-2.461037e-001 
-2.493346e-001 
-2.518508e-001 
-2.537941e-001 
-2.546016e-001 
-2.572694e-001 
-2.583909e-001 
-2.574097e-001 
-2.567553e-001 
-2.585206e-001 
-2.615280e-001 
-2.622955e-001 
-2.620616e-001 
-2.632175e-001 
-2.671744e-001 
-2.679755e-001 
-2.661885e-001 
-2.657287e-001 
-2.669004e-001 
-2.670148e-001 
-2.648679e-001 
-2.638613e-001 
-2.659397e-001 
-2.668849e-001 
-2.634203e-001 
-2.613813e-001 
-2.611256e-001 
-2.606278e-001 
-2.601043e-001 
-2.589470e-001 
-2.586399e-001 
-2.570973e-001 
-2.532605e-001 
-2.519881e-001 
-2.520369e-001 
-2.488959e-001 
-2.463123e-001 
-2.460644e-001 
-2.446513e-001 
-2.401269e-001 
-2.342940e-001 
-2.297887e-001 
-2.230574e-001 
-2.076091e-001 
-1.902349e-001 
-1.750232e-001 
-1.638522e-001 
-1.551794e-001 
-1.470960e-001 
-1.433082e-001 
-1.403533e-001 
-1.331584e-001 
-1.273315e-001 
-1.270749e-001 
-1.306519e-001 
-1.394305e-001 
-1.331783e-001 
-1.203437e-001 
-1.331416e-001 
-1.711612e-001 
-2.424942e-001 
-3.377935e-001 
-4.009049e-001 
-4.210441e-001 
-4.191740e-001 
-4.045286e-001 
-4.163733e-001 
-4.560931e-001 
-4.954951e-001 
-5.379165e-001 
-5.320337e-001 
-4.557458e-001 
-3.906633e-001 
-3.717607e-001 
-3.728711e-001 
-3.797749e-001 
-3.688879e-001 
-3.304917e-001 
-2.676981e-001 
-1.734449e-001 
-9.239809e-002 
-6.198658e-002 
-5.327764e-002 
-4.066013e-002 
-2.777045e-002 
-1.666371e-002 
-6.670968e-003 
2.819843e-003 
1.490799e-002 
2.565539e-002 
3.424642e-002 
4.423928e-002 
5.390287e-002 
6.143056e-002 
6.972790e-002 
7.945606e-002 
8.770497e-002 
9.336540e-002 
9.854535e-002 
1.055982e-001 
1.121269e-001 
1.134858e-001 
1.141186e-001 
1.173028e-001 
1.169974e-001 
1.107458e-001 
1.028874e-001 
9.930073e-002 
9.493001e-002 
8.511960e-002 
7.427983e-002 
6.873886e-002 
6.383267e-002 
5.419111e-002 
4.394480e-002 
3.775171e-002 
3.383497e-002 
2.544016e-002 
1.695904e-002 
1.348033e-002 
1.284764e-002 
9.410635e-003 
4.933557e-003 
3.216720e-003 
3.765723e-003 
2.922855e-003 
1.195123e-003 
2.877826e-003 
5.065831e-003 
3.618058e-003 
7.626610e-004 
-7.691324e-004 
-1.755810e-003 
-3.108528e-003 
-4.818272e-003 
-3.164953e-003 
-1.776859e-003 
-4.462638e-003 
-6.398729e-003 
-5.021399e-003 
-4.852452e-003 
-5.285047e-003 
-5.351190e-003 
-4.094908e-003 
-1.850793e-003 
-4.094107e-003 
-5.116729e-003 
-2.588502e-003 
3.937171e-004 
9.947411e-004 
1.473259e-003 
3.080356e-003 
5.652885e-003 
7.285169e-003 
8.824005e-003 
1.288093e-002 
1.648137e-002 
1.914260e-002 
1.914434e-002 
2.182737e-002 
2.754926e-002 
3.276383e-002 
3.998475e-002 
5.259281e-002 
6.603139e-002 
7.897585e-002 
9.618675e-002 
1.119224e-001 
1.241880e-001 
1.305780e-001 
1.341986e-001 
1.424202e-001 
1.508246e-001 
1.527710e-001 
1.566023e-001 
1.624379e-001 
1.601650e-001 
1.658425e-001 
1.736288e-001 
1.633297e-001 
1.310190e-001 
6.867989e-002 
-1.066690e-002 
-5.968508e-002 
-7.354386e-002 
-6.905056e-002 
-5.213134e-002 
-5.685642e-002 
-8.223907e-002 
-1.086217e-001 
-1.325339e-001 
-1.147956e-001 
-4.220912e-002 
2.036303e-002 
4.685463e-002 
5.501726e-002 
5.577878e-002 
7.143415e-002 
1.105219e-001 
1.754401e-001 
2.619179e-001 
3.307740e-001 
3.583834e-001 
3.687486e-001 
3.780862e-001 
3.847514e-001 
3.896805e-001 
3.974086e-001 
4.062351e-001 
4.111432e-001 
4.157497e-001 
4.229512e-001 
4.314061e-001 
4.382970e-001 
4.438900e-001 
4.507643e-001 
4.598786e-001 
4.652007e-001 
4.687648e-001 
4.738240e-001 
4.777816e-001 
4.790828e-001 
4.779613e-001 
4.745635e-001 
4.699860e-001 
4.628969e-001 
4.525575e-001 
4.432391e-001 
4.326421e-001 
4.192810e-001 
4.046649e-001 
3.905127e-001 
3.760661e-001 
3.611652e-001 
3.465796e-001 
3.356769e-001 
3.251371e-001 
3.124063e-001 
3.014208e-001 
2.943374e-001 
2.890120e-001 
2.825386e-001 
2.760217e-001 
2.743293e-001 
2.741684e-001 
2.703260e-001 
2.671951e-001 
2.667304e-001 
2.666812e-001 
2.641133e-001 
2.598060e-001 
2.571060e-001 
2.568000e-001 
2.522689e-001 
2.458222e-001 
2.413297e-001 
2.378311e-001 
2.330046e-001 
2.271572e-001 
2.225822e-001 
2.178210e-001 
2.123829e-001 
2.064493e-001 
2.010893e-001 
1.965000e-001 
1.912116e-001 
1.834976e-001 
1.785751e-001 
1.744499e-001 
1.672569e-001 
1.620162e-001 
1.579738e-001 
1.531510e-001 
1.481592e-001 
1.418775e-001 
1.385306e-001 
1.381541e-001 
1.339133e-001 
1.279360e-001 
1.258517e-001 
1.272694e-001 
1.322740e-001 
1.379824e-001 
1.480764e-001 
1.654680e-001 
1.773667e-001 
1.787871e-001 
1.790921e-001 
1.824928e-001 
1.859060e-001 
1.860798e-001 
1.833459e-001 
1.847931e-001 
1.827696e-001 
1.671907e-001 
1.597727e-001 
1.713434e-001 
1.624321e-001 
1.206595e-001 
4.641614e-002 
-5.452327e-002 
-1.270124e-001 
-1.558624e-001 
-1.645381e-001 
-1.514924e-001 
-1.540876e-001 
-1.964430e-001 
-2.414471e-001 
-2.877099e-001 
-2.936917e-001 
-2.217565e-001 
-1.519318e-001 
-1.283730e-001 
-1.254225e-001 
-1.363632e-001 
-1.339242e-001 
-9.945170e-002 
-3.973908e-002 
5.208685e-002 
1.380309e-001 
1.738627e-001 
1.818163e-001 
1.880718e-001 
1.981358e-001 
2.103087e-001 
2.185810e-001 
2.247811e-001 
2.345169e-001 
2.460766e-001 
2.531728e-001 
2.576369e-001 
2.659881e-001 
2.763120e-001 
2.817426e-001 
2.851424e-001 
2.911473e-001 
2.965406e-001 
2.969775e-001 
2.942051e-001 
2.939076e-001 
2.946135e-001 
2.881370e-001 
2.777663e-001 
2.689461e-001 
2.596168e-001 
2.453834e-001 
2.292749e-001 
2.159346e-001 
2.034776e-001 
1.866401e-001 
1.670047e-001 
1.501581e-001 
1.353441e-001 
1.195518e-001 
1.020211e-001 
8.873937e-002 
7.796111e-002 
6.606397e-002 
5.441774e-002 
4.648850e-002 
4.106234e-002 
3.402132e-002 
2.581640e-002 
2.120632e-002 
1.920103e-002 
1.543261e-002 
1.126128e-002 
8.583729e-003 
6.727444e-003 
1.913458e-003 
-4.885735e-003 
-7.182304e-003 
-7.551580e-003 
-1.127213e-002 
-1.566754e-002 
-1.911159e-002 
-2.112207e-002 
-2.445965e-002 
-2.840109e-002 
-2.958437e-002 
-2.910867e-002 
-3.200203e-002 
-3.525130e-002 
-3.771105e-002 
-3.911402e-002 
-4.093171e-002 
-4.408506e-002 
-4.460628e-002 
-4.542654e-002 
-4.754395e-002 
-5.002403e-002 
-5.040334e-002 
-5.142524e-002 
-5.342068e-002 
-5.805233e-002 
-5.992207e-002 
-5.600420e-002 
-5.237526e-002 
-4.605512e-002 
-3.559143e-002 
-2.096270e-002 
-1.132961e-002 
-1.150628e-002 
-1.088885e-002 
-2.536846e-003 
1.616885e-003 
-8.744908e-004 
-1.995946e-004 
4.937724e-004 
-2.876078e-003 
-1.863596e-002 
-2.264991e-002 
-3.781253e-003 
-1.097980e-002 
-5.542346e-002 
-1.260566e-001 
-2.189619e-001 
-2.900010e-001 
-3.189444e-001 
-3.265715e-001 
-3.099385e-001 
-3.125836e-001 
-3.582007e-001 
-4.025334e-001 
-4.447352e-001 
-4.496377e-001 
-3.843966e-001 
-3.179940e-001 
-2.914998e-001 
-2.866145e-001 
-2.980095e-001 
-2.964645e-001 
-2.622064e-001 
-2.025696e-001 
-1.162789e-001 
-3.564173e-002 
3.781563e-003 
1.356964e-002 
1.634977e-002 
2.330423e-002 
3.416806e-002 
4.351682e-002 
4.845604e-002 
5.400489e-002 
6.583890e-002 
7.406671e-002 
7.545518e-002 
8.020459e-002 
9.002890e-002 
9.587901e-002 
9.824620e-002 
1.016019e-001 
1.080066e-001 
1.137912e-001 
1.159916e-001 
1.194802e-001 
1.231486e-001 
1.220334e-001 
1.173225e-001 
1.143244e-001 
1.120354e-001 
1.067482e-001 
9.973571e-002 
9.594846e-002 
9.013754e-002 
7.877583e-002 
6.661038e-002 
5.994636e-002 
5.503944e-002 
4.528375e-002 
3.444386e-002 
2.956122e-002 
2.650339e-002 
1.741715e-002 
9.161490e-003 
6.634286e-003 
8.134980e-003 
5.933707e-003 
3.139151e-003 
4.771535e-003 
6.661492e-003 
4.832175e-003 
1.766518e-003 
3.034792e-003 
4.672387e-003 
5.679548e-003 
4.419230e-003 
5.173892e-003 
5.594207e-003 
2.958655e-003 
1.187553e-003 
2.699221e-003 
3.711860e-003 
4.359437e-004 
-1.184391e-003 
-1.138070e-003 
5.258750e-004 
-8.348591e-004 
-2.910186e-003 
-1.221121e-003 
2.011119e-003 
4.306892e-004 
-1.634706e-003 
2.724590e-003 
8.285530e-003 
9.551634e-003 
7.924225e-003 
9.509242e-003 
1.470509e-002 
1.821750e-002 
1.900342e-002 
2.512077e-002 
3.817422e-002 
4.998813e-002 
6.012812e-002 
7.737082e-002 
9.711284e-002 
1.064635e-001 
1.082667e-001 
1.108042e-001 
1.161111e-001 
1.211641e-001 
1.198312e-001 
1.194482e-001 
1.205645e-001 
1.094826e-001 
1.011045e-001 
1.116917e-001 
1.063569e-001 
7.631093e-002 
1.854713e-002 
-7.252126e-002 
-1.456403e-001 
-1.760987e-001 
-1.849371e-001 
-1.728709e-001 
-1.712056e-001 
-2.055556e-001 
-2.393644e-001 
-2.791454e-001 
-2.945439e-001 
-2.348464e-001 
-1.629537e-001 
-1.345952e-001 
-1.270540e-001 
-1.347822e-001 
-1.360258e-001 
-1.064325e-001 
-5.434152e-002 
2.753348e-002 
1.112414e-001 
1.505883e-001 
1.620357e-001 
1.716223e-001 
1.778496e-001 
1.872616e-001 
1.989981e-001 
2.056982e-001 
2.104171e-001 
2.168479e-001 
2.219421e-001 
2.276879e-001 
2.331453e-001 
2.384378e-001 
2.452117e-001 
2.474533e-001 
2.471241e-001 
2.520584e-001 
2.572402e-001 
2.598156e-001 
2.629930e-001 
2.638664e-001 
2.627601e-001 
2.605414e-001 
2.542535e-001 
2.510080e-001 
2.502235e-001 
2.446447e-001 
2.382719e-001 
2.316313e-001 
2.238408e-001 
2.164434e-001 
2.077817e-001 
1.981342e-001 
1.912758e-001 
1.825750e-001 
1.742727e-001 
1.684910e-001 
1.608194e-001 
1.528681e-001 
1.458091e-001 
1.399879e-001 
1.361617e-001 
1.317322e-001 
1.282962e-001 
1.292237e-001 
1.253843e-001 
1.158153e-001 
1.085447e-001 
1.059784e-001 
1.050682e-001 
1.008022e-001 
9.539269e-002 
9.425767e-002 
9.082040e-002 
8.052300e-002 
7.192199e-002 
7.008427e-002 
7.095789e-002 
6.753716e-002 
6.071609e-002 
5.713959e-002 
5.564771e-002 
5.028887e-002 
4.392790e-002 
4.212482e-002 
4.210392e-002 
3.791475e-002 
3.140896e-002 
2.705890e-002 
2.411702e-002 
2.083863e-002 
1.673893e-002 
1.335987e-002 
1.110524e-002 
6.888619e-003 
3.408889e-003 
3.015087e-003 
2.797817e-003 
4.737643e-003 
1.139336e-002 
2.131424e-002 
3.610343e-002 
4.732192e-002 
5.124740e-002 
5.356643e-002 
5.233580e-002 
4.986864e-002 
4.792832e-002 
4.465537e-002 
4.547767e-002 
4.293108e-002 
2.504999e-002 
1.920953e-002 
2.151558e-002 
-1.026113e-003 
-4.837330e-002 
-1.260568e-001 
-2.200523e-001 
-2.814751e-001 
-3.131048e-001 
-3.270295e-001 
-3.208796e-001 
-3.419897e-001 
-3.881373e-001 
-4.298615e-001 
-4.709463e-001 
-4.663322e-001 
-3.996939e-001 
-3.486704e-001 
-3.350159e-001 
-3.387920e-001 
-3.543668e-001 
-3.474400e-001 
-3.118652e-001 
-2.544213e-001 
-1.707959e-001 
-1.019645e-001 
-8.021725e-002 
-7.570285e-002 
-7.096074e-002 
-6.702300e-002 
-5.976629e-002 
-5.473489e-002 
-5.232416e-002 
-4.666543e-002 
-4.196467e-002 
-3.967524e-002 
-3.465233e-002 
-2.928216e-002 
-2.751470e-002 
-2.601384e-002 
-2.301304e-002 
-1.822666e-002 
-1.645413e-002 
-1.926173e-002 
-1.771046e-002 
-1.211567e-002 
-1.345729e-002 
-2.068646e-002 
-2.353605e-002 
-2.348700e-002 
-2.989225e-002 
-4.384244e-002 
-5.207341e-002 
-5.381344e-002 
-6.296422e-002 
-7.930267e-002 
-9.097269e-002 
-9.678087e-002 
-1.055343e-001 
-1.201044e-001 
-1.316314e-001 
-1.348448e-001 
-1.422267e-001 
-1.566504e-001 
-1.674224e-001 
-1.720380e-001 
-1.784091e-001 
-1.876652e-001 
-1.936861e-001 
-1.970126e-001 
-2.010385e-001 
-2.089728e-001 
-2.160895e-001 
-2.197195e-001 
-2.239828e-001 
-2.329870e-001 
-2.393725e-001 
-2.422146e-001 
-2.494032e-001 
-2.568894e-001 
-2.620276e-001 
-2.654286e-001 
-2.697981e-001 
-2.761243e-001 
-2.826970e-001 
-2.844456e-001 
-2.860987e-001 
-2.921909e-001 
-2.962933e-001 
-2.984890e-001 
-3.009523e-001 
-3.057925e-001 
-3.102932e-001 
-3.124989e-001 
-3.118688e-001 
-3.152955e-001 
-3.208704e-001 
-3.229770e-001 
-3.234061e-001 
-3.233872e-001 
-3.257983e-001 
-3.278586e-001 
-3.275343e-001 
-3.280465e-001 
-3.327031e-001 
-3.332251e-001 
-3.291260e-001 
-3.220856e-001 
-3.125950e-001 
-3.023650e-001 
-2.867047e-001 
-2.726120e-001 
-2.690513e-001 
-2.687830e-001 
-2.679212e-001 
-2.668902e-001 
-2.654843e-001 
-2.671841e-001 
-2.684695e-001 
-2.712885e-001 
-2.848921e-001 
-2.888856e-001 
-2.813502e-001 
-2.954346e-001 
-3.308498e-001 
-3.989597e-001 
-4.934474e-001 
-5.602926e-001 
-5.903487e-001 
-5.983708e-001 
-5.846162e-001 
-5.933209e-001 
-6.302829e-001 
-6.660205e-001 
-7.096459e-001 
-7.099258e-001 
-6.408939e-001 
-5.768268e-001 
-5.499122e-001 
-5.443086e-001 
-5.543407e-001 
-5.484223e-001 
-5.156909e-001 
-4.578373e-001 
-3.674572e-001 
-2.854884e-001 
-2.506166e-001 
-2.412249e-001 
-2.333401e-001 
-2.268414e-001 
-2.174374e-001 
-2.066250e-001 
-1.985912e-001 
-1.891049e-001 
-1.781643e-001 
-1.746497e-001 
-1.708596e-001 
-1.638143e-001 
-1.571557e-001 
-1.493300e-001 
-1.440257e-001 
-1.385198e-001 
-1.306833e-001 
-1.267041e-001 
-1.255059e-001 
-1.204109e-001 
-1.160440e-001 
-1.151621e-001 
-1.167191e-001 
-1.171570e-001 
-1.182561e-001 
-1.245180e-001 
-1.307628e-001 
-1.338161e-001 
-1.371956e-001 
-1.443811e-001 
-1.523406e-001 
-1.566363e-001 
-1.600504e-001 
-1.674901e-001 
-1.742793e-001 
-1.754647e-001 
-1.761940e-001 
-1.799574e-001 
-1.846829e-001 
-1.848182e-001 
-1.823689e-001 
-1.824615e-001 
-1.818884e-001 
-1.766150e-001 
-1.698456e-001 
-1.677950e-001 
-1.680144e-001 
-1.650813e-001 
-1.599975e-001 
-1.587364e-001 
-1.592846e-001 
-1.556473e-001 
-1.514073e-001 
-1.509557e-001 
-1.523154e-001 
-1.501288e-001 
-1.456147e-001 
-1.450914e-001 
-1.458780e-001 
-1.420923e-001 
-1.370585e-001 
-1.367112e-001 
-1.365791e-001 
-1.334800e-001 
-1.298604e-001 
-1.295191e-001 
-1.302316e-001 
-1.271806e-001 
-1.233598e-001 
-1.238638e-001 
-1.248027e-001 
-1.219275e-001 
-1.202830e-001 
-1.217935e-001 
-1.232329e-001 
-1.213262e-001 
-1.177917e-001 
-1.170972e-001 
-1.175056e-001 
-1.129469e-001 
-1.043884e-001 
-9.550158e-002 
-8.429011e-002 
-6.647355e-002 
-4.499943e-002 
-3.365853e-002 
-3.057203e-002 
-2.789259e-002 
-2.376529e-002 
-1.934951e-002 
-1.910094e-002 
-1.773990e-002 
-1.437609e-002 
-2.340954e-002 
-3.881349e-002 
-3.377633e-002 
-3.341952e-002 
-5.728794e-002 
-1.067341e-001 
-1.887991e-001 
-2.709504e-001 
-3.171082e-001 
-3.376595e-001 
-3.342275e-001 
-3.257518e-001 
-3.527164e-001 
-3.910096e-001 
-4.294592e-001 
-4.574721e-001 
-4.262366e-001 
-3.553519e-001 
-3.146545e-001 
-3.053132e-001 
-3.137841e-001 
-3.235296e-001 
-3.066856e-001 
-2.652511e-001 
-1.988817e-001 
-1.171222e-001 
-6.220042e-002 
-4.785152e-002 
-4.490842e-002 
-3.971320e-002 
-3.109030e-002 
-2.185265e-002 
-1.515626e-002 
-1.058791e-002 
-3.676314e-003 
3.929698e-003 
8.172095e-003 
1.212754e-002 
1.805623e-002 
2.591987e-002 
3.227705e-002 
3.594230e-002 
3.973865e-002 
4.397287e-002 
4.609695e-002 
4.642108e-002 
4.583276e-002 
4.761078e-002 
4.891816e-002 
4.581791e-002 
4.257835e-002 
3.953603e-002 
3.325097e-002 
2.576232e-002 
2.011610e-002 
1.535228e-002 
1.021028e-002 
1.796934e-003 
-5.972749e-003 
-1.141381e-002 
-1.870497e-002 
-2.679249e-002 
-3.115379e-002 
-3.332251e-002 
-3.797226e-002 
-4.375317e-002 
-4.775844e-002 
-4.908214e-002 
-5.085609e-002 
-5.334315e-002 
-5.374447e-002 
-5.165589e-002 
-5.302425e-002 
-5.635903e-002 
-5.566616e-002 
-5.515551e-002 
-5.641300e-002 
-5.806500e-002 
-5.828520e-002 
-5.696025e-002 
-5.788613e-002 
-6.043001e-002 
-5.856357e-002 
-5.595465e-002 
-5.759826e-002 
-5.800234e-002 
-5.635223e-002 
-5.389361e-002 
-5.317716e-002 
-5.312075e-002 
-4.980348e-002 
-4.654538e-002 
-4.491026e-002 
-4.256830e-002 
-3.830519e-002 
-3.420603e-002 
-3.021844e-002 
-2.679992e-002 
-2.113774e-002 
-1.589519e-002 
-1.360295e-002 
-9.211941e-003 
-4.193413e-003 
2.166407e-003 
1.033193e-002 
2.234940e-002 
3.930269e-002 
5.799595e-002 
7.622967e-002 
9.138119e-002 
1.031378e-001 
1.115313e-001 
1.167736e-001 
1.213751e-001 
1.296292e-001 
1.352780e-001 
1.358557e-001 
1.345113e-001 
1.290161e-001 
1.360740e-001 
1.463542e-001 
1.316071e-001 
9.533639e-002 
3.127976e-002 
-5.565200e-002 
-1.130113e-001 
-1.300218e-001 
-1.300879e-001 
-1.184226e-001 
-1.333194e-001 
-1.713301e-001 
-2.048560e-001 
-2.392915e-001 
-2.306116e-001 
-1.592482e-001 
-1.018250e-001 
-8.734074e-002 
-8.949826e-002 
-9.795660e-002 
-8.729365e-002 
-5.366855e-002 
4.418244e-003 
8.942937e-002 
1.581251e-001 
1.813752e-001 
1.881141e-001 
1.992088e-001 
2.104258e-001 
2.180553e-001 
2.252753e-001 
2.371301e-001 
2.475115e-001 
2.551053e-001 
2.630593e-001 
2.738389e-001 
2.844615e-001 
2.923611e-001 
3.011686e-001 
3.128659e-001 
3.243758e-001 
3.319080e-001 
3.376425e-001 
3.442602e-001 
3.507231e-001 
3.524047e-001 
3.515079e-001 
3.495382e-001 
3.463420e-001 
3.408023e-001 
3.310751e-001 
3.222655e-001 
3.146341e-001 
3.039811e-001 
2.910957e-001 
2.782875e-001 
2.659734e-001 
2.542607e-001 
2.406852e-001 
2.289756e-001 
2.211966e-001 
2.106506e-001 
1.992311e-001 
1.924463e-001 
1.879518e-001 
1.830820e-001 
1.789606e-001 
1.779140e-001 
1.788715e-001 
1.766326e-001 
1.726928e-001 
1.721869e-001 
1.735605e-001 
1.721638e-001 
1.697877e-001 
1.710628e-001 
1.717596e-001 
1.689215e-001 
1.677349e-001 
1.699729e-001 
1.719501e-001 
1.722602e-001 
1.716619e-001 
1.732772e-001 
1.747569e-001 
1.730767e-001 
1.734715e-001 
1.784190e-001 
1.813039e-001 
1.799486e-001 
1.792357e-001 
1.798261e-001 
1.799471e-001 
1.786068e-001 
1.779504e-001 
1.806057e-001 
1.833756e-001 
1.794746e-001 
1.756007e-001 
1.769226e-001 
1.762007e-001 
1.737101e-001 
1.723258e-001 
1.723152e-001 
1.725257e-001 
1.702268e-001 
1.705074e-001 
1.803492e-001 
1.907700e-001 
1.999389e-001 
2.148012e-001 
2.254181e-001 
2.278064e-001 
2.240445e-001 
2.218445e-001 
2.255727e-001 
2.267722e-001 
2.206673e-001 
2.176438e-001 
2.134968e-001 
2.016844e-001 
2.013312e-001 
2.000215e-001 
1.779838e-001 
1.288708e-001 
4.306603e-002 
-5.628426e-002 
-1.118991e-001 
-1.298317e-001 
-1.314153e-001 
-1.265839e-001 
-1.496822e-001 
-1.887576e-001 
-2.306105e-001 
-2.698781e-001 
-2.504247e-001 
-1.712613e-001 
-1.205648e-001 
-1.101447e-001 
-1.148465e-001 
-1.208864e-001 
-1.044719e-001 
-6.383143e-002 
5.511164e-003 
9.884331e-002 
1.651930e-001 
1.850367e-001 
1.938078e-001 
2.019697e-001 
2.075515e-001 
2.133829e-001 
2.193194e-001 
2.249955e-001 
2.294544e-001 
2.331310e-001 
2.419859e-001 
2.529774e-001 
2.582677e-001 
2.621613e-001 
2.704859e-001 
2.780283e-001 
2.824546e-001 
2.855805e-001 
2.927454e-001 
3.026902e-001 
3.044816e-001 
2.995306e-001 
2.985497e-001 
2.988220e-001 
2.934040e-001 
2.859351e-001 
2.797496e-001 
2.751722e-001 
2.654475e-001 
2.485808e-001 
2.346344e-001 
2.254616e-001 
2.132127e-001 
1.997853e-001 
1.897710e-001 
1.800572e-001 
1.704289e-001 
1.607638e-001 
1.533493e-001 
1.504252e-001 
1.457466e-001 
1.400361e-001 
1.382941e-001 
1.372045e-001 
1.322856e-001 
1.287045e-001 
1.281906e-001 
1.287204e-001 
1.256916e-001 
1.205316e-001 
1.193007e-001 
1.183977e-001 
1.134540e-001 
1.076135e-001 
1.057008e-001 
1.035124e-001 
9.806854e-002 
9.243754e-002 
9.088129e-002 
9.011916e-002 
8.662906e-002 
8.241267e-002 
7.986814e-002 
7.680645e-002 
7.157853e-002 
6.823510e-002 
6.736774e-002 
6.479569e-002 
5.999151e-002 
5.599081e-002 
5.284691e-002 
4.917600e-002 
4.461550e-002 
4.167252e-002 
4.128960e-002 
3.940784e-002 
3.318167e-002 
2.917517e-002 
2.950041e-002 
2.727171e-002 
2.313865e-002 
1.949737e-002 
1.922123e-002 
2.302996e-002 
2.700977e-002 
3.122565e-002 
4.468877e-002 
6.220109e-002 
7.028729e-002 
7.112438e-002 
7.271459e-002 
7.520558e-002 
7.651953e-002 
7.397424e-002 
7.115838e-002 
7.557666e-002 
7.242740e-002 
5.296911e-002 
4.809847e-002 
6.018816e-002 
4.724013e-002 
7.815902e-003 
-6.470487e-002 
-1.609236e-001 
-2.272198e-001 
-2.600498e-001 
-2.717775e-001 
-2.567287e-001 
-2.644545e-001 
-3.057415e-001 
-3.436580e-001 
-3.887209e-001 
-3.919375e-001 
-3.232088e-001 
-2.609222e-001 
-2.374220e-001 
-2.351161e-001 
-2.482570e-001 
-2.418222e-001 
-2.067750e-001 
-1.513726e-001 
-6.346101e-002 
1.759555e-002 
5.194577e-002 
6.080505e-002 
6.785354e-002 
7.942101e-002 
9.243288e-002 
1.005401e-001 
1.061128e-001 
1.153690e-001 
1.265881e-001 
1.350559e-001 
1.430237e-001 
1.536543e-001 
1.649822e-001 
1.731072e-001 
1.796685e-001 
1.876043e-001 
1.962361e-001 
2.023699e-001 
2.065187e-001 
2.108501e-001 
2.130024e-001 
2.113271e-001 
2.080504e-001 
2.055471e-001 
2.024464e-001 
1.966645e-001 
1.882653e-001 
1.795294e-001 
1.717195e-001 
1.608920e-001 
1.506198e-001 
1.439035e-001 
1.368753e-001 
1.277718e-001 
1.188992e-001 
1.107293e-001 
1.049084e-001 
1.007103e-001 
9.574330e-002 
9.519496e-002 
9.460068e-002 
9.128628e-002 
8.879573e-002 
8.842547e-002 
8.828409e-002 
8.766891e-002 
8.696223e-002 
8.644273e-002 
8.656892e-002 
8.354067e-002 
7.996306e-002 
7.867686e-002 
7.799809e-002 
7.617957e-002 
7.357713e-002 
7.296994e-002 
7.360350e-002 
7.210511e-002 
6.838398e-002 
6.792116e-002 
6.973467e-002 
6.952316e-002 
6.880597e-002 
6.784119e-002 
6.951325e-002 
6.926644e-002 
6.574684e-002 
6.586159e-002 
6.981498e-002 
7.025274e-002 
6.875025e-002 
6.960939e-002 
6.831112e-002 
6.830114e-002 
6.730327e-002 
6.932945e-002 
7.407677e-002 
7.589222e-002 
7.457580e-002 
7.752851e-002 
8.245009e-002 
8.727794e-002 
9.937392e-002 
1.140686e-001 
1.320906e-001 
1.465870e-001 
1.525069e-001 
1.569379e-001 
1.639719e-001 
1.669978e-001 
1.715630e-001 
1.763966e-001 
1.773032e-001 
1.761883e-001 
1.658189e-001 
1.643083e-001 
1.757353e-001 
1.638780e-001 
1.235808e-001 
5.624417e-002 
-3.440593e-002 
-9.777844e-002 
-1.217214e-001 
-1.255837e-001 
-1.121205e-001 
-1.214850e-001 
-1.621241e-001 
-2.012262e-001 
-2.402607e-001 
-2.376887e-001 
-1.689871e-001 
-1.051145e-001 
-7.957532e-002 
-7.727330e-002 
-8.656015e-002 
-7.650621e-002 
-3.863051e-002 
2.291965e-002 
1.119043e-001 
1.905426e-001 
2.254067e-001 
2.349288e-001 
2.422715e-001 
2.544740e-001 
2.683083e-001 
2.782748e-001 
2.862594e-001 
2.969405e-001 
3.082104e-001 
3.155618e-001 
3.211736e-001 
3.308175e-001 
3.418205e-001 
3.498091e-001 
3.569931e-001 
3.665951e-001 
3.749415e-001 
3.789280e-001 
3.814065e-001 
3.848417e-001 
3.884202e-001 
3.866750e-001 
3.827352e-001 
3.791752e-001 
3.725469e-001 
3.605763e-001 
3.497331e-001 
3.410570e-001 
3.312722e-001 
3.184220e-001 
3.038404e-001 
2.916870e-001 
2.787703e-001 
2.634738e-001 
2.486404e-001 
2.399246e-001 
2.321176e-001 
2.226632e-001 
2.146129e-001 
2.108977e-001 
2.092779e-001 
2.053658e-001 
2.005810e-001 
1.999160e-001 
2.031087e-001 
2.014149e-001 
1.976491e-001 
1.961808e-001 
1.959698e-001 
1.938495e-001 
1.896075e-001 
1.880462e-001 
1.902879e-001 
1.904033e-001 
1.854923e-001 
1.827598e-001 
1.832387e-001 
1.819289e-001 
1.789473e-001 
1.785407e-001 
1.806901e-001 
1.806270e-001 
1.777764e-001 
1.761412e-001 
1.795188e-001 
1.819218e-001 
1.799299e-001 
1.811877e-001 
1.856069e-001 
1.859870e-001 
1.828480e-001 
1.825133e-001 
1.867420e-001 
1.903703e-001 
1.897269e-001 
1.910891e-001 
1.957982e-001 
1.970098e-001 
1.948764e-001 
1.951562e-001 
2.003533e-001 
2.082784e-001 
2.160813e-001 
2.276695e-001 
2.430053e-001 
2.589131e-001 
2.708641e-001 
2.770538e-001 
2.811947e-001 
2.842412e-001 
2.875441e-001 
2.917100e-001 
2.928409e-001 
2.908756e-001 
2.867508e-001 
2.755586e-001 
2.762468e-001 
2.834356e-001 
2.662694e-001 
2.265191e-001 
1.527060e-001 
4.795311e-002 
-2.670371e-002 
-5.321359e-002 
-5.398682e-002 
-4.049015e-002 
-5.542745e-002 
-9.520259e-002 
-1.330257e-001 
-1.795246e-001 
-1.834569e-001 
-1.091645e-001 
-3.644765e-002 
-1.224885e-002 
-1.470820e-002 
-2.602369e-002 
-1.710395e-002 
1.780541e-002 
7.934940e-002 
1.739242e-001 
2.587755e-001 
2.917667e-001 
2.961554e-001 
3.018160e-001 
3.086698e-001 
3.141023e-001 
3.206359e-001 
3.292751e-001 
3.367845e-001 
3.427201e-001 
3.458095e-001 
3.511001e-001 
3.587595e-001 
3.629341e-001 
3.666437e-001 
3.741802e-001 
3.807911e-001 
3.831492e-001 
3.830767e-001 
3.838095e-001 
3.864220e-001 
3.835963e-001 
3.762524e-001 
3.706954e-001 
3.651504e-001 
3.541105e-001 
3.404352e-001 
3.278197e-001 
3.161311e-001 
3.007410e-001 
2.844016e-001 
2.715036e-001 
2.583861e-001 
2.425789e-001 
2.260274e-001 
2.132342e-001 
2.024217e-001 
1.889470e-001 
1.775342e-001 
1.722540e-001 
1.648807e-001 
1.560601e-001 
1.484638e-001 
1.439232e-001 
1.412550e-001 
1.343372e-001 
1.268149e-001 
1.242249e-001 
1.194296e-001 
1.103085e-001 
1.031411e-001 
9.757355e-002 
9.246254e-002 
8.425259e-002 
7.506205e-002 
6.980804e-002 
6.468853e-002 
5.638623e-002 
4.828355e-002 
4.328323e-002 
3.859450e-002 
3.107703e-002 
2.396235e-002 
1.987116e-002 
1.596542e-002 
9.697568e-003 
3.110925e-003 
-1.462834e-003 
-5.234871e-003 
-1.275623e-002 
-2.099180e-002 
-2.557612e-002 
-2.989562e-002 
-3.619582e-002 
-4.369494e-002 
-4.881142e-002 
-5.399570e-002 
-6.157749e-002 
-6.867788e-002 
-7.283933e-002 
-7.515523e-002 
-7.742155e-002 
-7.696891e-002 
-7.228661e-002 
-6.474343e-002 
-5.549562e-002 
-4.758951e-002 
-4.473770e-002 
-4.524688e-002 
-4.844838e-002 
-5.123247e-002 
-5.219217e-002 
-5.593210e-002 
-5.989693e-002 
-6.665440e-002 
-8.034288e-002 
-8.359672e-002 
-8.178792e-002 
-1.040434e-001 
-1.476785e-001 
-2.224115e-001 
-3.202131e-001 
-3.893653e-001 
-4.190304e-001 
-4.252418e-001 
-4.194076e-001 
-4.407185e-001 
-4.839937e-001 
-5.225860e-001 
-5.658167e-001 
-5.664797e-001 
-5.006863e-001 
-4.399967e-001 
-4.215183e-001 
-4.266108e-001 
-4.373990e-001 
-4.257716e-001 
-3.902499e-001 
-3.336677e-001 
-2.469680e-001 
-1.702410e-001 
-1.401970e-001 
-1.334922e-001 
-1.257362e-001 
-1.150316e-001 
-1.060265e-001 
-1.014641e-001 
-9.629589e-002 
-8.701412e-002 
-7.957366e-002 
-7.495903e-002 
-6.898763e-002 
-6.280359e-002 
-5.793077e-002 
-5.467094e-002 
-4.991250e-002 
-4.397875e-002 
-3.961312e-002 
-3.873954e-002 
-3.697866e-002 
-3.653152e-002 
-3.952961e-002 
-4.404129e-002 
-4.740702e-002 
-5.172819e-002 
-6.008940e-002 
-7.068980e-002 
-8.074463e-002 
-9.009741e-002 
-1.037567e-001 
-1.172792e-001 
-1.283059e-001 
-1.384257e-001 
-1.515817e-001 
-1.656540e-001 
-1.771411e-001 
-1.859768e-001 
-1.965421e-001 
-2.075210e-001 
-2.132555e-001 
-2.180997e-001 
-2.239807e-001 
-2.307314e-001 
-2.347152e-001 
-2.359620e-001 
-2.394193e-001 
-2.451552e-001 
-2.467244e-001 
-2.471283e-001 
-2.505272e-001 
-2.547175e-001 
-2.574713e-001 
-2.585957e-001 
-2.620521e-001 
-2.678931e-001 
-2.711307e-001 
-2.726431e-001 
-2.769365e-001 
-2.827032e-001 
-2.868477e-001 
-2.884410e-001 
-2.915001e-001 
-2.956161e-001 
-2.976523e-001 
-2.990483e-001 
-3.029603e-001 
-3.071946e-001 
-3.096759e-001 
-3.102701e-001 
-3.123689e-001 
-3.147274e-001 
-3.152004e-001 
-3.160272e-001 
-3.184796e-001 
-3.199613e-001 
-3.183177e-001 
-3.167823e-001 
-3.181852e-001 
-3.198028e-001 
-3.163987e-001 
-3.115373e-001 
-3.043500e-001 
-2.942897e-001 
-2.799225e-001 
-2.640639e-001 
-2.570963e-001 
-2.558379e-001 
-2.527746e-001 
-2.491705e-001 
-2.479183e-001 
-2.469581e-001 
-2.475813e-001 
-2.483238e-001 
-2.553767e-001 
-2.660109e-001 
-2.580334e-001 
-2.530476e-001 
-2.763479e-001 
-3.271529e-001 
-4.063886e-001 
-4.924793e-001 
-5.437000e-001 
-5.612676e-001 
-5.561324e-001 
-5.472751e-001 
-5.717676e-001 
-6.130703e-001 
-6.522812e-001 
-6.800113e-001 
-6.549517e-001 
-5.838647e-001 
-5.350579e-001 
-5.221884e-001 
-5.281578e-001 
-5.348082e-001 
-5.160472e-001 
-4.693855e-001 
-3.978874e-001 
-3.094100e-001 
-2.456129e-001 
-2.234651e-001 
-2.146740e-001 
-2.050348e-001 
-1.926274e-001 
-1.786115e-001 
-1.682987e-001 
-1.608492e-001 
-1.503709e-001 
-1.403820e-001 
-1.321886e-001 
-1.228278e-001 
-1.123776e-001 
-1.005059e-001 
-9.191751e-002 
-8.738909e-002 
-8.063823e-002 
-7.041110e-002 
-6.343221e-002 
-5.854936e-002 
-5.166280e-002 
-4.580818e-002 
-4.429854e-002 
-4.788632e-002 
-5.142804e-002 
-5.318845e-002 
-5.768810e-002 
-6.552125e-002 
-7.079983e-002 
-7.588723e-002 
-8.556515e-002 
-9.827129e-002 
-1.087831e-001 
-1.160799e-001 
-1.247517e-001 
-1.346752e-001 
-1.415111e-001 
-1.460459e-001 
-1.535759e-001 
-1.620630e-001 
-1.665213e-001 
-1.668361e-001 
-1.682992e-001 
-1.712847e-001 
-1.714316e-001 
-1.687255e-001 
-1.695085e-001 
-1.729193e-001 
-1.729823e-001 
-1.715660e-001 
-1.724882e-001 
-1.750580e-001 
-1.752409e-001 
-1.739931e-001 
-1.759828e-001 
-1.802435e-001 
-1.812441e-001 
-1.812176e-001 
-1.840089e-001 
-1.872587e-001 
-1.865605e-001 
-1.854156e-001 
-1.886233e-001 
-1.921793e-001 
-1.908331e-001 
-1.889064e-001 
-1.905051e-001 
-1.939394e-001 
-1.933369e-001 
-1.904415e-001 
-1.922428e-001 
-1.946063e-001 
-1.916316e-001 
-1.879991e-001 
-1.893117e-001 
-1.917472e-001 
-1.915620e-001 
-1.875600e-001 
-1.865816e-001 
-1.875524e-001 
-1.825901e-001 
-1.738033e-001 
-1.664989e-001 
-1.573784e-001 
-1.414423e-001 
-1.235856e-001 
-1.142354e-001 
-1.122085e-001 
-1.084802e-001 
-1.025783e-001 
-9.965470e-002 
-1.003580e-001 
-9.782541e-002 
-9.380620e-002 
-1.012411e-001 
-1.085358e-001 
-9.790076e-002 
-1.002229e-001 
-1.318640e-001 
-1.973046e-001 
-2.928723e-001 
-3.720582e-001 
-4.074820e-001 
-4.193462e-001 
-4.090142e-001 
-4.062731e-001 
-4.406140e-001 
-4.823941e-001 
-5.279174e-001 
-5.436065e-001 
-4.863477e-001 
-4.090836e-001 
-3.735283e-001 
-3.644016e-001 
-3.713577e-001 
-3.708012e-001 
-3.405777e-001 
-2.827172e-001 
-1.941929e-001 
-1.025404e-001 
-5.196874e-002 
-3.647777e-002 
-2.744411e-002 
-1.907896e-002 
-7.324815e-003 
5.542134e-003 
1.376121e-002 
1.981509e-002 
3.070016e-002 
4.213090e-002 
4.972962e-002 
5.509464e-002 
6.332819e-002 
7.430781e-002 
8.152121e-002 
8.450772e-002 
9.150303e-002 
1.002203e-001 
1.040224e-001 
1.055437e-001 
1.075255e-001 
1.103728e-001 
1.099043e-001 
1.038193e-001 
9.862247e-002 
9.505923e-002 
8.770962e-002 
7.995327e-002 
7.332397e-002 
6.439256e-002 
5.372267e-002 
4.287700e-002 
3.323788e-002 
2.605323e-002 
1.733614e-002 
9.112198e-003 
3.309131e-003 
-3.459235e-003 
-1.248354e-002 
-1.876316e-002 
-2.067593e-002 
-2.259280e-002 
-2.607974e-002 
-3.018006e-002 
-3.180861e-002 
-3.243730e-002 
-3.598873e-002 
-4.127612e-002 
-4.262814e-002 
-4.461849e-002 
-4.986004e-002 
-5.499009e-002 
-5.834985e-002 
-5.989790e-002 
-6.453367e-002 
-7.123993e-002 
-7.490239e-002 
-7.788059e-002 
-8.318905e-002 
-8.781310e-002 
-9.099857e-002 
-9.401869e-002 
-9.749533e-002 
-1.018344e-001 
-1.037484e-001 
-1.062964e-001 
-1.113403e-001 
-1.151077e-001 
-1.167322e-001 
-1.186189e-001 
-1.220762e-001 
-1.242133e-001 
-1.264190e-001 
-1.294349e-001 
-1.343672e-001 
-1.384244e-001 
-1.390947e-001 
-1.393770e-001 
-1.433544e-001 
-1.477710e-001 
-1.460937e-001 
-1.413410e-001 
-1.354186e-001 
-1.281803e-001 
-1.149032e-001 
-1.013073e-001 
-9.869180e-002 
-1.009631e-001 
-1.009197e-001 
-9.827033e-002 
-9.882167e-002 
-1.037059e-001 
-1.054206e-001 
-1.056281e-001 
-1.181907e-001 
-1.259822e-001 
-1.169341e-001 
-1.267107e-001 
-1.615270e-001 
-2.258629e-001 
-3.183743e-001 
-3.913743e-001 
-4.249405e-001 
-4.360942e-001 
-4.241649e-001 
-4.267819e-001 
-4.639744e-001 
-5.004806e-001 
-5.419344e-001 
-5.545897e-001 
-4.974935e-001 
-4.293938e-001 
-3.995104e-001 
-3.928885e-001 
-4.032486e-001 
-4.029075e-001 
-3.725899e-001 
-3.176775e-001 
-2.332890e-001 
-1.503121e-001 
-1.082526e-001 
-9.381881e-002 
-8.570592e-002 
-7.883420e-002 
-6.740721e-002 
-5.515935e-002 
-4.580515e-002 
-3.886660e-002 
-2.959735e-002 
-1.965535e-002 
-1.288206e-002 
-8.562290e-003 
-8.272091e-004 
7.932538e-003 
1.263552e-002 
1.616316e-002 
2.143736e-002 
2.718554e-002 
2.884941e-002 
2.968232e-002 
3.402019e-002 
3.879263e-002 
3.771249e-002 
3.290188e-002 
3.052809e-002 
2.843161e-002 
2.210691e-002 
1.480585e-002 
1.133092e-002 
9.570230e-003 
3.417342e-003 
-6.372912e-003 
-1.313237e-002 
-1.564347e-002 
-2.153373e-002 
-2.920481e-002 
-3.408602e-002 
-3.699998e-002 
-4.124580e-002 
-4.870660e-002 
-5.271065e-002 
-5.328560e-002 
-5.430905e-002 
-5.727511e-002 
-5.780410e-002 
-5.694540e-002 
-5.797230e-002 
-6.159675e-002 
-6.443121e-002 
-6.520571e-002 
-6.799978e-002 
-7.164372e-002 
-7.342466e-002 
-7.336526e-002 
-7.625170e-002 
-8.038167e-002 
-8.170235e-002 
-8.197284e-002 
-8.346403e-002 
-8.690765e-002 
-8.773805e-002 
-8.657009e-002 
-8.861025e-002 
-9.175493e-002 
-9.133007e-002 
-9.029826e-002 
-9.135909e-002 
-9.322100e-002 
-9.295649e-002 
-8.904522e-002 
-8.891301e-002 
-8.971633e-002 
-8.645328e-002 
-8.545802e-002 
-8.641168e-002 
-8.521613e-002 
-8.089409e-002 
-7.574319e-002 
-7.241115e-002 
-6.661957e-002 
-5.355241e-002 
-3.951258e-002 
-2.700579e-002 
-1.100951e-002 
2.271970e-003 
9.812231e-003 
1.113235e-002 
1.344417e-002 
2.128248e-002 
2.704988e-002 
2.759284e-002 
2.721617e-002 
2.438184e-002 
2.560517e-002 
3.462846e-002 
2.468275e-002 
-7.611138e-003 
-6.889218e-002 
-1.571688e-001 
-2.203580e-001 
-2.411731e-001 
-2.440323e-001 
-2.343927e-001 
-2.403144e-001 
-2.758307e-001 
-3.148302e-001 
-3.542813e-001 
-3.525848e-001 
-2.831109e-001 
-2.193011e-001 
-1.987144e-001 
-1.956560e-001 
-2.002778e-001 
-1.946954e-001 
-1.640634e-001 
-1.042494e-001 
-1.547031e-002 
6.141163e-002 
9.000762e-002 
9.685125e-002 
1.081691e-001 
1.210941e-001 
1.289908e-001 
1.360099e-001 
1.458604e-001 
1.553605e-001 
1.617536e-001 
1.660987e-001 
1.746195e-001 
1.853428e-001 
1.919375e-001 
1.951386e-001 
2.011475e-001 
2.092916e-001 
2.151844e-001 
2.186579e-001 
2.245288e-001 
2.303533e-001 
2.316774e-001 
2.297736e-001 
2.283036e-001 
2.257118e-001 
2.201295e-001 
2.119350e-001 
2.055815e-001 
1.994301e-001 
1.883831e-001 
1.762630e-001 
1.665946e-001 
1.570522e-001 
1.444194e-001 
1.326760e-001 
1.240347e-001 
1.180395e-001 
1.082636e-001 
9.741516e-002 
9.139651e-002 
8.783020e-002 
8.252013e-002 
7.753885e-002 
7.726747e-002 
7.932083e-002 
7.903385e-002 
7.496507e-002 
7.416909e-002 
7.440453e-002 
7.156967e-002 
6.770997e-002 
6.682030e-002 
6.759942e-002 
6.471937e-002 
5.902191e-002 
5.589738e-002 
5.567046e-002 
5.213475e-002 
4.828225e-002 
4.755326e-002 
4.745185e-002 
4.379923e-002 
3.904408e-002 
3.886163e-002 
4.040388e-002 
3.858620e-002 
3.569052e-002 
3.620564e-002 
3.719678e-002 
3.491513e-002 
3.187213e-002 
3.388414e-002 
3.655063e-002 
3.422753e-002 
3.092232e-002 
3.084402e-002 
3.184571e-002 
3.089087e-002 
2.960544e-002 
3.128734e-002 
3.451385e-002 
3.369300e-002 
3.380124e-002 
4.146236e-002 
5.330971e-002 
6.626491e-002 
8.159064e-002 
9.849800e-002 
1.098273e-001 
1.142819e-001 
1.158280e-001 
1.211527e-001 
1.287277e-001 
1.321441e-001 
1.341648e-001 
1.361013e-001 
1.313427e-001 
1.241782e-001 
1.319470e-001 
1.336863e-001 
1.107782e-001 
5.566257e-002 
-3.043390e-002 
-1.119078e-001 
-1.515423e-001 
-1.630777e-001 
-1.566102e-001 
-1.461421e-001 
-1.675729e-001 
-2.056132e-001 
-2.459050e-001 
-2.635992e-001 
-2.175049e-001 
-1.381461e-001 
-9.428692e-002 
-7.813429e-002 
-7.452815e-002 
-7.331661e-002 
-4.931292e-002 
5.452449e-003 
9.170140e-002 
1.851786e-001 
2.433763e-001 
2.646646e-001 
2.781552e-001 
2.899176e-001 
3.003744e-001 
3.115772e-001 
3.243303e-001 
3.334920e-001 
3.407759e-001 
3.509310e-001 
3.608127e-001 
3.676482e-001 
3.737620e-001 
3.804022e-001 
3.874580e-001 
3.916461e-001 
3.932442e-001 
3.976702e-001 
4.027859e-001 
4.028313e-001 
4.001840e-001 
3.986881e-001 
3.961070e-001 
3.900715e-001 
3.820427e-001 
3.751267e-001 
3.685529e-001 
3.587893e-001 
3.451370e-001 
3.332945e-001 
3.221804e-001 
3.088261e-001 
2.961613e-001 
2.859069e-001 
2.760797e-001 
2.658697e-001 
2.546942e-001 
2.447954e-001 
2.377254e-001 
2.297660e-001 
2.226577e-001 
2.191985e-001 
2.159227e-001 
2.111275e-001 
2.066214e-001 
2.039968e-001 
2.024074e-001 
1.981293e-001 
1.925416e-001 
1.903761e-001 
1.885918e-001 
1.816095e-001 
1.741668e-001 
1.694470e-001 
1.641118e-001 
1.554902e-001 
1.449498e-001 
1.376338e-001 
1.325253e-001 
1.224214e-001 
1.100072e-001 
1.012861e-001 
9.189993e-002 
7.875604e-002 
6.553403e-002 
5.466492e-002 
4.556526e-002 
3.525254e-002 
2.273932e-002 
1.139730e-002 
7.699364e-004 
-1.202035e-002 
-2.397401e-002 
-3.146950e-002 
-3.846118e-002 
-4.758928e-002 
-5.647612e-002 
-6.443643e-002 
-7.081619e-002 
-7.827678e-002 
-8.519631e-002 
-8.718879e-002 
-8.732362e-002 
-8.909837e-002 
-8.769886e-002 
-7.969199e-002 
-6.826251e-002 
-5.465326e-002 
-4.622668e-002 
-4.104034e-002 
-3.791932e-002 
-3.992564e-002 
-4.130676e-002 
-3.835509e-002 
-3.740211e-002 
-3.908662e-002 
-4.325847e-002 
-5.293674e-002 
-5.136134e-002 
-4.907939e-002 
-6.912517e-002 
-1.105120e-001 
-1.814629e-001 
-2.696444e-001 
-3.270334e-001 
-3.494589e-001 
-3.522958e-001 
-3.457119e-001 
-3.632517e-001 
-3.990066e-001 
-4.346725e-001 
-4.679787e-001 
-4.542450e-001 
-3.867838e-001 
-3.322250e-001 
-3.123210e-001 
-3.127963e-001 
-3.173850e-001 
-3.020299e-001 
-2.630506e-001 
-1.982076e-001 
-1.095842e-001 
-3.870288e-002 
-7.651408e-003 
5.184355e-003 
1.577409e-002 
2.778270e-002 
3.884369e-002 
4.829636e-002 
5.903024e-002 
6.975164e-002 
7.872318e-002 
8.691171e-002 
9.384164e-002 
1.009066e-001 
1.085129e-001 
1.155004e-001 
1.223082e-001 
1.287305e-001 
1.323738e-001 
1.353183e-001 
1.389186e-001 
1.425994e-001 
1.443507e-001 
1.444390e-001 
1.441583e-001 
1.424734e-001 
1.377102e-001 
1.312988e-001 
1.272443e-001 
1.242619e-001 
1.178290e-001 
1.082421e-001 
1.009171e-001 
9.369142e-002 
8.569488e-002 
7.795469e-002 
7.197289e-002 
6.799926e-002 
6.178425e-002 
5.317538e-002 
4.840357e-002 
4.558300e-002 
4.129194e-002 
3.907571e-002 
3.885190e-002 
3.886502e-002 
3.789134e-002 
3.557780e-002 
3.519831e-002 
3.701534e-002 
3.432473e-002 
3.235560e-002 
3.397716e-002 
3.494832e-002 
3.292590e-002 
3.088606e-002 
3.071597e-002 
3.224159e-002 
3.199539e-002 
2.944818e-002 
3.229256e-002 
3.566606e-002 
3.606519e-002 
3.565514e-002 
3.746519e-002 
3.962440e-002 
4.155127e-002 
4.233952e-002 
4.410248e-002 
4.838801e-002 
4.994846e-002 
5.052156e-002 
5.234925e-002 
5.474646e-002 
5.644480e-002 
5.819150e-002 
6.044458e-002 
6.363752e-002 
6.594318e-002 
6.715161e-002 
6.924159e-002 
7.122915e-002 
7.158363e-002 
7.236506e-002 
7.761122e-002 
8.797378e-002 
9.858199e-002 
1.108607e-001 
1.273851e-001 
1.375738e-001 
1.396632e-001 
1.386993e-001 
1.400844e-001 
1.444925e-001 
1.459413e-001 
1.443267e-001 
1.442221e-001 
1.385278e-001 
1.276158e-001 
1.324997e-001 
1.363375e-001 
1.167766e-001 
6.788246e-002 
-1.295731e-002 
-9.975885e-002 
-1.516100e-001 
-1.697703e-001 
-1.654041e-001 
-1.558172e-001 
-1.780317e-001 
-2.184175e-001 
-2.599680e-001 
-2.888652e-001 
-2.622337e-001 
-1.913613e-001 
-1.421378e-001 
-1.266160e-001 
-1.304102e-001 
-1.378215e-001 
-1.217199e-001 
-7.658437e-002 
-1.966938e-003 
8.594315e-002 
1.477581e-001 
1.736884e-001 
1.858213e-001 
1.948839e-001 
2.043523e-001 
2.164117e-001 
2.290978e-001 
2.384464e-001 
2.467836e-001 
2.595767e-001 
2.728419e-001 
2.831387e-001 
2.899225e-001 
3.003550e-001 
3.136293e-001 
3.238559e-001 
3.305193e-001 
3.394717e-001 
3.488205e-001 
3.549236e-001 
3.576973e-001 
3.594866e-001 
3.649156e-001 
3.658196e-001 
3.595334e-001 
3.525180e-001 
3.484310e-001 
3.417878e-001 
3.320803e-001 
3.234658e-001 
3.160256e-001 
3.075419e-001 
2.956908e-001 
2.837602e-001 
2.761348e-001 
2.696341e-001 
2.612657e-001 
2.558644e-001 
2.538313e-001 
2.504000e-001 
2.485946e-001 
2.490696e-001 
2.519198e-001 
2.568964e-001 
2.613208e-001 
2.678201e-001 
2.764827e-001 
2.819003e-001 
2.850956e-001 
2.916067e-001 
2.985420e-001 
3.047551e-001 
3.107359e-001 
3.169069e-001 
3.234175e-001 
3.264263e-001 
3.271877e-001 
3.303808e-001 
3.347783e-001 
3.357830e-001 
3.349777e-001 
3.343514e-001 
3.327661e-001 
3.274091e-001 
3.206151e-001 
3.161089e-001 
3.116913e-001 
3.043599e-001 
2.948375e-001 
2.853883e-001 
2.757618e-001 
2.636504e-001 
2.496315e-001 
2.380908e-001 
2.276935e-001 
2.149238e-001 
2.014386e-001 
1.885285e-001 
1.762554e-001 
1.641230e-001 
1.518667e-001 
1.421472e-001 
1.340157e-001 
1.238759e-001 
1.151702e-001 
1.125336e-001 
1.131848e-001 
1.158375e-001 
1.215133e-001 
1.309999e-001 
1.357831e-001 
1.320017e-001 
1.268561e-001 
1.263743e-001 
1.268798e-001 
1.229134e-001 
1.177254e-001 
1.152508e-001 
1.076980e-001 
9.590378e-002 
9.838037e-002 
9.503370e-002 
6.455494e-002 
4.740645e-004 
-9.741419e-002 
-1.870729e-001 
-2.281997e-001 
-2.421594e-001 
-2.380754e-001 
-2.332380e-001 
-2.629628e-001 
-3.075363e-001 
-3.559387e-001 
-3.811126e-001 
-3.332327e-001 
-2.515142e-001 
-2.121682e-001 
-2.022769e-001 
-2.070970e-001 
-2.120766e-001 
-1.917937e-001 
-1.412438e-001 
-5.543471e-002 
3.852905e-002 
9.119635e-002 
1.033903e-001 
1.086342e-001 
1.102876e-001 
1.126814e-001 
1.175913e-001 
1.245271e-001 
1.297261e-001 
1.318318e-001 
1.362100e-001 
1.419123e-001 
1.433209e-001 
1.441311e-001 
1.508020e-001 
1.572262e-001 
1.613600e-001 
1.621409e-001 
1.625803e-001 
1.660023e-001 
1.644971e-001 
1.583738e-001 
1.555037e-001 
1.530250e-001 
1.441989e-001 
1.311744e-001 
1.165739e-001 
1.040960e-001 
8.971993e-002 
7.141288e-002 
5.478050e-002 
3.953054e-002 
2.175563e-002 
2.084754e-003 
-1.508647e-002 
-2.839009e-002 
-4.116864e-002 
-5.513317e-002 
-6.573072e-002 
-7.560266e-002 
-8.537567e-002 
-9.445214e-002 
-9.958985e-002 
-1.012832e-001 
-1.049400e-001 
-1.108311e-001 
-1.135402e-001 
-1.146635e-001 
-1.178560e-001 
-1.229063e-001 
-1.271183e-001 
-1.278424e-001 
-1.322826e-001 
-1.384236e-001 
-1.417893e-001 
-1.430284e-001 
-1.456193e-001 
-1.509061e-001 
-1.550848e-001 
-1.555522e-001 
-1.576376e-001 
-1.618630e-001 
-1.630197e-001 
-1.650422e-001 
-1.680123e-001 
-1.702813e-001 
-1.713379e-001 
-1.694220e-001 
-1.691103e-001 
-1.708872e-001 
-1.695230e-001 
-1.683212e-001 
-1.705557e-001 
-1.700963e-001 
-1.665558e-001 
-1.641257e-001 
-1.635435e-001 
-1.657023e-001 
-1.643607e-001 
-1.589295e-001 
-1.569071e-001 
-1.562463e-001 
-1.503763e-001 
-1.455216e-001 
-1.444795e-001 
-1.433626e-001 
-1.392899e-001 
-1.259891e-001 
-1.113411e-001 
-9.899444e-002 
-8.125777e-002 
-6.143691e-002 
-5.292215e-002 
-4.950402e-002 
-4.338478e-002 
-3.474202e-002 
-2.606766e-002 
-2.387488e-002 
-2.111212e-002 
-1.715738e-002 
-2.296745e-002 
-2.722189e-002 
-1.465506e-002 
-1.686996e-002 
-4.731120e-002 
-1.091115e-001 
-1.999124e-001 
-2.696323e-001 
-2.985943e-001 
-3.059832e-001 
-2.938060e-001 
-2.922159e-001 
-3.245281e-001 
-3.628842e-001 
-4.042597e-001 
-4.121031e-001 
-3.492218e-001 
-2.798981e-001 
-2.506178e-001 
-2.413066e-001 
-2.457303e-001 
-2.432216e-001 
-2.119566e-001 
-1.525133e-001 
-6.372614e-002 
2.046591e-002 
6.128019e-002 
7.697558e-002 
8.920896e-002 
9.703952e-002 
1.082403e-001 
1.218707e-001 
1.318932e-001 
1.408349e-001 
1.521343e-001 
1.647291e-001 
1.761032e-001 
1.837401e-001 
1.929982e-001 
2.060441e-001 
2.150286e-001 
2.224383e-001 
2.317046e-001 
2.409440e-001 
2.464372e-001 
2.483376e-001 
2.513518e-001 
2.554156e-001 
2.550249e-001 
2.493569e-001 
2.443295e-001 
2.400180e-001 
2.327596e-001 
2.209037e-001 
2.106816e-001 
2.016427e-001 
1.891939e-001 
1.747624e-001 
1.620065e-001 
1.525358e-001 
1.424087e-001 
1.309304e-001 
1.203225e-001 
1.125627e-001 
1.038093e-001 
9.549738e-002 
9.035435e-002 
8.653969e-002 
8.215208e-002 
7.699199e-002 
7.394608e-002 
7.069206e-002 
6.702529e-002 
6.184477e-002 
5.814772e-002 
5.522566e-002 
5.040090e-002 
4.519269e-002 
4.131785e-002 
3.789919e-002 
3.259518e-002 
2.783370e-002 
2.290311e-002 
2.066570e-002 
1.680267e-002 
1.212414e-002 
9.850755e-003 
7.883397e-003 
4.719192e-003 
2.150957e-003 
6.197036e-004 
-1.340103e-003 
-2.080236e-003 
-4.454373e-003 
-4.348311e-003 
-2.705422e-003 
-4.094089e-003 
-5.596711e-003 
-4.646533e-003 
-3.928338e-003 
-3.871589e-003 
-3.835174e-003 
-3.055499e-003 
4.164368e-004 
9.904145e-004 
-1.026408e-003 
1.407951e-003 
5.195425e-003 
7.206455e-003 
8.227979e-003 
1.449527e-002 
2.707706e-002 
4.032561e-002 
5.269625e-002 
6.874888e-002 
8.096504e-002 
8.401218e-002 
8.519541e-002 
8.768425e-002 
9.454827e-002 
9.801528e-002 
9.739214e-002 
9.780004e-002 
9.288610e-002 
8.600521e-002 
9.332651e-002 
8.744900e-002 
5.129435e-002 
-1.763304e-002 
-1.199442e-001 
-2.003875e-001 
-2.304308e-001 
-2.397422e-001 
-2.320585e-001 
-2.305104e-001 
-2.674123e-001 
-3.139233e-001 
-3.632185e-001 
-3.757148e-001 
-3.064519e-001 
-2.279172e-001 
-1.985958e-001 
-1.909202e-001 
-1.967700e-001 
-1.969555e-001 
-1.664858e-001 
-1.044993e-001 
-5.113542e-003 
9.052210e-002 
1.343168e-001 
1.471683e-001 
1.573467e-001 
1.651725e-001 
1.758485e-001 
1.882658e-001 
2.017622e-001 
2.149523e-001 
2.262155e-001 
2.379494e-001 
2.493289e-001 
2.589472e-001 
2.701257e-001 
2.833431e-001 
2.943978e-001 
3.050242e-001 
3.123983e-001 
3.182164e-001 
3.218684e-001 
3.217270e-001 
3.201462e-001 
3.180182e-001 
3.122777e-001 
3.036135e-001 
2.944302e-001 
2.817268e-001 
2.686565e-001 
2.539133e-001 
2.375171e-001 
2.214442e-001 
2.069696e-001 
1.909777e-001 
1.767819e-001 
1.644893e-001 
1.505441e-001 
1.389521e-001 
1.287628e-001 
1.189819e-001 
1.125648e-001 
1.079632e-001 
1.027497e-001 
1.009731e-001 
9.849008e-002 
9.458886e-002 
9.286524e-002 
9.101358e-002 
8.893447e-002 
8.659344e-002 
8.325613e-002 
8.073581e-002 
7.733443e-002 
7.182596e-002 
6.688718e-002 
6.315883e-002 
6.090638e-002 
5.812838e-002 
5.398776e-002 
5.218855e-002 
5.020995e-002 
4.574423e-002 
4.099851e-002 
3.660294e-002 
3.537633e-002 
3.418459e-002 
2.936748e-002 
2.549591e-002 
2.486439e-002 
2.203632e-002 
1.733746e-002 
1.327222e-002 
1.158881e-002 
1.166158e-002 
7.708115e-003 
2.388178e-003 
-6.391249e-004 
-4.387450e-003 
-9.797633e-003 
-1.368670e-002 
-1.568989e-002 
-1.667508e-002 
-1.816148e-002 
-2.127666e-002 
-2.385935e-002 
-2.659197e-002 
-2.962061e-002 
-2.662892e-002 
-1.793941e-002 
-8.216698e-003 
2.413912e-003 
1.666863e-002 
2.485032e-002 
2.756078e-002 
2.614976e-002 
2.376370e-002 
2.744648e-002 
2.764411e-002 
2.198354e-002 
1.878185e-002 
1.185174e-002 
-7.823354e-004 
2.808409e-003 
-3.064785e-003 
-3.655270e-002 
-9.798011e-002 
-1.957244e-001 
-2.876257e-001 
-3.307262e-001 
-3.477691e-001 
-3.467525e-001 
-3.424202e-001 
-3.773240e-001 
-4.269235e-001 
-4.740075e-001 
-5.000030e-001 
-4.538124e-001 
-3.749139e-001 
-3.384517e-001 
-3.295293e-001 
-3.345899e-001 
-3.424307e-001 
-3.208026e-001 
-2.678093e-001 
-1.821761e-001 
-8.621617e-002 
-3.394060e-002 
-2.022296e-002 
-8.706388e-003 
4.146506e-004 
8.203101e-003 
1.783949e-002 
2.809942e-002 
3.803573e-002 
4.537653e-002 
5.230117e-002 
6.200684e-002 
7.114160e-002 
7.684015e-002 
8.333166e-002 
8.879440e-002 
9.422799e-002 
9.939904e-002 
1.036521e-001 
1.073555e-001 
1.090816e-001 
1.091119e-001 
1.067880e-001 
1.021617e-001 
9.499090e-002 
8.892861e-002 
8.192222e-002 
7.327361e-002 
6.143223e-002 
4.834556e-002 
3.770443e-002 
2.680220e-002 
1.450046e-002 
2.347454e-003 
-6.865081e-003 
-1.617569e-002 
-2.875686e-002 
-4.230455e-002 
-4.950819e-002 
-5.316648e-002 
-6.074234e-002 
-6.879923e-002 
-7.259688e-002 
-7.340098e-002 
-7.869931e-002 
-8.500876e-002 
-8.504636e-002 
-8.294691e-002 
-8.639921e-002 
-9.310896e-002 
-9.663164e-002 
-9.786320e-002 
-1.022056e-001 
-1.081780e-001 
-1.097736e-001 
-1.097955e-001 
-1.148870e-001 
-1.212968e-001 
-1.235136e-001 
-1.243965e-001 
-1.272265e-001 
-1.306210e-001 
-1.313587e-001 
-1.304040e-001 
-1.319822e-001 
-1.353448e-001 
-1.346269e-001 
-1.328167e-001 
-1.338738e-001 
-1.347240e-001 
-1.319512e-001 
-1.278471e-001 
-1.265013e-001 
-1.277075e-001 
-1.251827e-001 
-1.208481e-001 
-1.185935e-001 
-1.175089e-001 
-1.134187e-001 
-1.075900e-001 
-1.053929e-001 
-1.065660e-001 
-1.035215e-001 
-9.668012e-002 
-9.327622e-002 
-9.060286e-002 
-8.561887e-002 
-7.595247e-002 
-6.610239e-002 
-5.675302e-002 
-4.246666e-002 
-2.205024e-002 
-8.132009e-003 
-2.375339e-003 
4.758932e-003 
1.335858e-002 
2.114535e-002 
2.669479e-002 
3.301109e-002 
4.200304e-002 
4.543502e-002 
4.008954e-002 
4.672211e-002 
5.887094e-002 
5.184622e-002 
2.684973e-002 
-1.761170e-002 
-7.323427e-002 
-1.096326e-001 
-1.259916e-001 
-1.259836e-001 
-1.142979e-001 
-1.248902e-001 
-1.530112e-001 
-1.776205e-001 
-2.023311e-001 
-1.973311e-001 
-1.538445e-001 
-1.203989e-001 
-1.098557e-001 
-1.143976e-001 
-1.268927e-001 
-1.238198e-001 
-1.021691e-001 
-6.657800e-002 
-1.437199e-002 
2.815114e-002 
4.158913e-002 
4.129879e-002 
4.020821e-002 
4.086632e-002 
4.234259e-002 
4.114325e-002 
3.999249e-002 
4.174954e-002 
4.386298e-002 
4.257015e-002 
4.001885e-002 
4.069157e-002 
4.212612e-002 
4.130980e-002 
4.021158e-002 
4.161481e-002 
4.225981e-002 
4.062756e-002 
3.790153e-002 
3.690334e-002 
3.736711e-002 
3.432930e-002 
2.827935e-002 
2.387132e-002 
1.891595e-002 
1.066327e-002 
2.024613e-003 
-5.388602e-003 
-1.339907e-002 
-2.316748e-002 
-3.353274e-002 
-4.115101e-002 
-4.694157e-002 
-5.588192e-002 
-6.491533e-002 
-7.002307e-002 
-7.496263e-002 
-8.202313e-002 
-8.693351e-002 
-8.881176e-002 
-8.947653e-002 
-9.251673e-002 
-9.653495e-002 
-9.495641e-002 
-9.131305e-002 
-9.124930e-002 
-9.127226e-002 
-8.904333e-002 
-8.625298e-002 
-8.514151e-002 
-8.617196e-002 
-8.378529e-002 
-7.905724e-002 
-7.758963e-002 
-7.750104e-002 
-7.390755e-002 
-6.929452e-002 
-6.536819e-002 
-6.314819e-002 
-6.013090e-002 
-5.511942e-002 
-5.181360e-002 
-4.914625e-002 
-4.464137e-002 
-3.921517e-002 
-3.747835e-002 
-3.537135e-002 
-3.223270e-002 
-2.915303e-002 
-2.639011e-002 
-2.387771e-002 
-1.959723e-002 
-1.478782e-002 
-1.374021e-002 
-1.421366e-002 
-1.060124e-002 
-8.330182e-003 
-8.072771e-003 
-7.481883e-003 
-5.651656e-003 
-2.945592e-003 
-2.857747e-003 
-4.487548e-003 
-1.641968e-003 
5.988087e-003 
1.265371e-002 
2.080121e-002 
3.331456e-002 
4.544744e-002 
5.085272e-002 
5.131986e-002 
5.143692e-002 
5.325894e-002 
5.371783e-002 
5.062022e-002 
4.976402e-002 
4.886932e-002 
4.069460e-002 
3.695666e-002 
4.125068e-002 
2.811535e-002 
-1.140777e-002 
-8.172021e-002 
-1.713992e-001 
-2.353715e-001 
-2.628662e-001 
-2.724673e-001 
-2.673193e-001 
-2.773103e-001 
-3.161942e-001 
-3.594290e-001 
-4.005965e-001 
-4.014267e-001 
-3.414147e-001 
-2.841136e-001 
-2.632889e-001 
-2.609720e-001 
-2.699361e-001 
-2.671306e-001 
-2.358588e-001 
-1.759375e-001 
-9.223395e-002 
-1.987373e-002 
1.437008e-002 
2.672017e-002 
3.543435e-002 
4.354805e-002 
5.354567e-002 
6.651116e-002 
7.709661e-002 
8.312589e-002 
9.496074e-002 
1.101408e-001 
1.204775e-001 
1.293404e-001 
1.409483e-001 
1.540858e-001 
1.666078e-001 
1.752278e-001 
1.837821e-001 
1.940211e-001 
1.979480e-001 
1.980025e-001 
1.995992e-001 
2.002197e-001 
1.967130e-001 
1.899005e-001 
1.806346e-001 
1.695787e-001 
1.558713e-001 
1.414791e-001 
1.288542e-001 
1.153811e-001 
9.966680e-002 
8.319141e-002 
6.756299e-002 
5.315814e-002 
3.806881e-002 
2.594589e-002 
1.846045e-002 
1.165743e-002 
3.965725e-003 
-1.744378e-003 
-5.434409e-003 
-6.908783e-003 
-8.982070e-003 
-1.161706e-002 
-1.051449e-002 
-9.318771e-003 
-1.138350e-002 
-1.499142e-002 
-1.607317e-002 
-1.603630e-002 
-1.739482e-002 
-2.162246e-002 
-2.368452e-002 
-2.364201e-002 
-2.590834e-002 
-2.994258e-002 
-3.261891e-002 
-3.320703e-002 
-3.545796e-002 
-3.966949e-002 
-4.165758e-002 
-4.033867e-002 
-4.079892e-002 
-4.201388e-002 
-4.217768e-002 
-4.274035e-002 
-4.312007e-002 
-4.411255e-002 
-4.239592e-002 
-3.917896e-002 
-3.978077e-002 
-4.112989e-002 
-4.029213e-002 
-4.063830e-002 
-4.162084e-002 
-4.066151e-002 
-3.823556e-002 
-3.527870e-002 
-3.659088e-002 
-3.975576e-002 
-3.960157e-002 
-3.924137e-002 
-4.085633e-002 
-4.066891e-002 
-3.898108e-002 
-3.627804e-002 
-3.298603e-002 
-2.720973e-002 
-1.642929e-002 
-1.773974e-003 
1.284198e-002 
2.249218e-002 
2.820865e-002 
3.045404e-002 
3.083583e-002 
3.257173e-002 
3.667989e-002 
3.924662e-002 
4.031991e-002 
3.648310e-002 
3.186009e-002 
3.765320e-002 
3.224918e-002 
6.393169e-003 
-4.041735e-002 
-1.149592e-001 
-1.875266e-001 
-2.243494e-001 
-2.368416e-001 
-2.341484e-001 
-2.349433e-001 
-2.632671e-001 
-2.959627e-001 
-3.320471e-001 
-3.526310e-001 
-3.158859e-001 
-2.536064e-001 
-2.220529e-001 
-2.164018e-001 
-2.235860e-001 
-2.256132e-001 
-2.046865e-001 
-1.639295e-001 
-9.649339e-002 
-2.079586e-002 
2.382173e-002 
3.573474e-002 
4.037123e-002 
4.714982e-002 
5.605981e-002 
6.211427e-002 
6.688659e-002 
7.427286e-002 
8.300254e-002 
8.958015e-002 
9.395958e-002 
1.010712e-001 
1.102004e-001 
1.161039e-001 
1.207348e-001 
1.297766e-001 
1.387662e-001 
1.432493e-001 
1.453201e-001 
1.499805e-001 
1.557505e-001 
1.566032e-001 
1.548577e-001 
1.553800e-001 
1.555995e-001 
1.498329e-001 
1.421366e-001 
1.382333e-001 
1.360896e-001 
1.302864e-001 
1.222597e-001 
1.166061e-001 
1.119421e-001 
1.052045e-001 
9.731891e-002 
9.318892e-002 
9.186562e-002 
8.812200e-002 
8.342104e-002 
8.058229e-002 
7.971764e-002 
7.816234e-002 
7.621332e-002 
7.560163e-002 
7.572717e-002 
7.287551e-002 
6.851971e-002 
6.732325e-002 
6.573766e-002 
6.243700e-002 
5.794337e-002 
5.486682e-002 
5.179817e-002 
4.613549e-002 
3.966481e-002 
3.741581e-002 
3.653696e-002 
3.211597e-002 
2.706013e-002 
2.340244e-002 
2.162288e-002 
1.792215e-002 
1.426974e-002 
1.371081e-002 
1.437902e-002 
1.227151e-002 
8.481776e-003 
7.014928e-003 
8.180452e-003 
7.446582e-003 
5.601669e-003 
7.269920e-003 
9.738209e-003 
1.027166e-002 
9.773621e-003 
1.104505e-002 
1.452010e-002 
1.605528e-002 
1.578179e-002 
1.942866e-002 
2.448843e-002 
2.660718e-002 
2.837340e-002 
3.288490e-002 
3.886242e-002 
4.515579e-002 
5.375954e-002 
6.635807e-002 
8.133910e-002 
9.582497e-002 
1.064578e-001 
1.157653e-001 
1.242719e-001 
1.295111e-001 
1.355050e-001 
1.429101e-001 
1.477982e-001 
1.512299e-001 
1.513459e-001 
1.472263e-001 
1.516742e-001 
1.579442e-001 
1.506533e-001 
1.317993e-001 
9.504134e-002 
4.390838e-002 
6.149387e-003 
-1.077123e-002 
-1.312177e-002 
-6.497855e-003 
-1.447105e-002 
-3.489835e-002 
-5.438789e-002 
-7.742808e-002 
-7.828562e-002 
-4.293639e-002 
-8.976371e-003 
3.017937e-003 
1.799257e-003 
-5.007944e-003 
-1.948291e-003 
1.332419e-002 
4.125927e-002 
8.792609e-002 
1.289497e-001 
1.441568e-001 
1.460755e-001 
1.485700e-001 
1.513513e-001 
1.522024e-001 
1.512542e-001 
1.535780e-001 
1.575993e-001 
1.587482e-001 
1.594636e-001 
1.621142e-001 
1.653464e-001 
1.671409e-001 
1.687994e-001 
1.733753e-001 
1.796247e-001 
1.817257e-001 
1.819578e-001 
1.835103e-001 
1.839375e-001 
1.816557e-001 
1.796017e-001 
1.788597e-001 
1.768200e-001 
1.701070e-001 
1.608388e-001 
1.540627e-001 
1.471717e-001 
1.369579e-001 
1.269284e-001 
1.194152e-001 
1.108828e-001 
9.897858e-002 
8.695950e-002 
7.904450e-002 
7.404848e-002 
6.640103e-002 
5.885416e-002 
5.443041e-002 
5.181293e-002 
4.792414e-002 
4.326317e-002 
4.198002e-002 
4.276244e-002 
4.163262e-002 
3.854854e-002 
3.813276e-002 
3.891207e-002 
3.954504e-002 
3.932437e-002 
4.113693e-002 
4.403628e-002 
4.420622e-002 
4.427816e-002 
4.701856e-002 
5.195804e-002 
5.588109e-002 
6.001655e-002 
6.677931e-002 
7.399703e-002 
7.862206e-002 
8.397638e-002 
9.373944e-002 
1.045704e-001 
1.128826e-001 
1.194955e-001 
1.289789e-001 
1.390159e-001 
1.459707e-001 
1.529902e-001 
1.624392e-001 
1.729119e-001 
1.794403e-001 
1.839180e-001 
1.910808e-001 
1.992711e-001 
2.041370e-001 
2.074251e-001 
2.119750e-001 
2.170794e-001 
2.195901e-001 
2.202994e-001 
2.236491e-001 
2.269948e-001 
2.267686e-001 
2.251759e-001 
2.250762e-001 
2.260689e-001 
2.255389e-001 
2.243024e-001 
2.259242e-001 
2.282248e-001 
2.257674e-001 
2.207993e-001 
2.164848e-001 
2.105022e-001 
2.016995e-001 
1.913324e-001 
1.820383e-001 
1.730882e-001 
1.597898e-001 
1.441957e-001 
1.375752e-001 
1.281375e-001 
1.036375e-001 
6.531000e-002 
1.032709e-002 
-5.001891e-002 
-9.191814e-002 
-1.159369e-001 
-1.258576e-001 
-1.311246e-001 
-1.549778e-001 
-1.863712e-001 
-2.181373e-001 
-2.471906e-001 
-2.445935e-001 
-2.117316e-001 
-1.885774e-001 
-1.819671e-001 
-1.872036e-001 
-1.944836e-001 
-1.858317e-001 
-1.633731e-001 
-1.260345e-001 
-7.512902e-002 
-3.471687e-002 
-1.681211e-002 
-7.242664e-003 
-2.226100e-004 
8.436857e-003 
1.881293e-002 
2.502669e-002 
2.965119e-002 
3.823450e-002 
4.840462e-002 
5.726445e-002 
6.449892e-002 
7.045174e-002 
7.911215e-002 
8.646981e-002 
9.047257e-002 
9.676335e-002 
1.037574e-001 
1.071396e-001 
1.088649e-001 
1.102144e-001 
1.115460e-001 
1.119727e-001 
1.092888e-001 
1.061475e-001 
1.023723e-001 
9.542092e-002 
8.791199e-002 
8.287363e-002 
7.725597e-002 
6.850391e-002 
5.968079e-002 
5.221111e-002 
4.464562e-002 
3.607027e-002 
2.844304e-002 
2.253104e-002 
1.770417e-002 
1.095311e-002 
3.859841e-003 
5.075741e-004 
-3.256660e-003 
-8.517683e-003 
-1.258891e-002 
-1.472457e-002 
-1.673005e-002 
-1.877597e-002 
-2.237077e-002 
-2.418111e-002 
-2.505881e-002 
-2.918399e-002 
-3.296455e-002 
-3.422966e-002 
-3.449941e-002 
-3.676890e-002 
-3.953319e-002 
-4.028136e-002 
-3.890170e-002 
-3.980913e-002 
-4.197757e-002 
-4.116060e-002 
-3.873205e-002 
-3.895346e-002 
-4.154732e-002 
-4.071015e-002 
-3.793234e-002 
-3.780622e-002 
-3.975405e-002 
-3.956136e-002 
-3.721044e-002 
-3.700204e-002 
-3.841035e-002 
-3.738817e-002 
-3.384672e-002 
-3.261065e-002 
-3.363193e-002 
-3.246657e-002 
-2.912548e-002 
-2.742285e-002 
-2.697192e-002 
-2.427676e-002 
-2.025732e-002 
-1.695005e-002 
-1.493093e-002 
-1.088980e-002 
-4.722429e-003 
9.227295e-004 
7.693777e-003 
1.781650e-002 
2.935974e-002 
4.082990e-002 
5.003942e-002 
5.764937e-002 
6.387873e-002 
6.635056e-002 
6.893302e-002 
7.311613e-002 
7.499983e-002 
7.414214e-002 
7.121462e-002 
6.504009e-002 
6.453434e-002 
6.320778e-002 
4.999379e-002 
3.051399e-002 
-3.786009e-003 
-6.111142e-002 
-1.151954e-001 
-1.448550e-001 
-1.568291e-001 
-1.616466e-001 
-1.780499e-001 
-2.026724e-001 
-2.233130e-001 
-2.555488e-001 
-2.806602e-001 
-2.631551e-001 
-2.293984e-001 
-2.186149e-001 
-2.241550e-001 
-2.329091e-001 
-2.340957e-001 
-2.255221e-001 
-2.079940e-001 
-1.685412e-001 
-1.215925e-001 
-9.786900e-002 
-9.563731e-002 
-9.319713e-002 
-8.803798e-002 
-8.606462e-002 
-8.530083e-002 
-8.173737e-002 
-7.723193e-002 
-7.582213e-002 
-7.763583e-002 
-7.517813e-002 
-6.723466e-002 
-6.181040e-002 
-5.990903e-002 
-5.562066e-002 
-5.084550e-002 
-4.768803e-002 
-4.727762e-002 
-4.530447e-002 
-3.993990e-002 
-4.024723e-002 
-4.353826e-002 
-4.652646e-002 
-5.278819e-002 
-6.178829e-002 
-7.058179e-002 
-8.048584e-002 
-8.890565e-002 
-1.002579e-001 
-1.131384e-001 
-1.233111e-001 
-1.366995e-001 
-1.540867e-001 
-1.686873e-001 
-1.785402e-001 
-1.885805e-001 
-1.999001e-001 
-2.101631e-001 
-2.183029e-001 
-2.258900e-001 
-2.354456e-001 
-2.441152e-001 
-2.440542e-001 
-2.431858e-001 
-2.491781e-001 
-2.540396e-001 
-2.557232e-001 
-2.588711e-001 
-2.633900e-001 
-2.682725e-001 
-2.693200e-001 
-2.694332e-001 
-2.754157e-001 
-2.814327e-001 
-2.805267e-001 
-2.824783e-001 
-2.888168e-001 
-2.919854e-001 
-2.923708e-001 
-2.938405e-001 
-2.971752e-001 
-2.995335e-001 
-2.988407e-001 
-2.983564e-001 
-3.040444e-001 
-3.059192e-001 
-3.031945e-001 
-3.028699e-001 
-3.040908e-001 
-3.040827e-001 
-3.022000e-001 
-3.001482e-001 
-3.011791e-001 
-3.024343e-001 
-2.989352e-001 
-2.961115e-001 
-2.964908e-001 
-2.970390e-001 
-2.939672e-001 
-2.891652e-001 
-2.885983e-001 
-2.859942e-001 
-2.776165e-001 
-2.664582e-001 
-2.556487e-001 
-2.425311e-001 
-2.273944e-001 
-2.166349e-001 
-2.124708e-001 
-2.102708e-001 
-2.020210e-001 
-1.949159e-001 
-1.927207e-001 
-1.895673e-001 
-1.838378e-001 
-1.848828e-001 
-1.798632e-001 
-1.657003e-001 
-1.680244e-001 
-2.023008e-001 
-2.749297e-001 
-3.619261e-001 
-4.178520e-001 
-4.372518e-001 
-4.380473e-001 
-4.221964e-001 
-4.224488e-001 
-4.563543e-001 
-5.028267e-001 
-5.395189e-001 
-5.243872e-001 
-4.532067e-001 
-3.893267e-001 
-3.616361e-001 
-3.534912e-001 
-3.576411e-001 
-3.516051e-001 
-3.136979e-001 
-2.411468e-001 
-1.440020e-001 
-6.344935e-002 
-2.597589e-002 
-9.428255e-003 
5.718936e-003 
1.848835e-002 
3.147989e-002 
4.716758e-002 
6.177673e-002 
7.528550e-002 
8.684803e-002 
9.960601e-002 
1.149537e-001 
1.305547e-001 
1.445409e-001 
1.585146e-001 
1.729047e-001 
1.845543e-001 
1.937126e-001 
2.012256e-001 
2.067781e-001 
2.085534e-001 
2.067470e-001 
2.007017e-001 
1.918307e-001 
1.801329e-001 
1.636981e-001 
1.454044e-001 
1.259202e-001 
1.029386e-001 
7.901945e-002 
5.517986e-002 
3.077459e-002 
6.889642e-003 
-1.821772e-002 
-4.246599e-002 
-6.209705e-002 
-8.270357e-002 
-1.029878e-001 
-1.178410e-001 
-1.303603e-001 
-1.410522e-001 
-1.509725e-001 
-1.590748e-001 
-1.616660e-001 
-1.647296e-001 
-1.718524e-001 
-1.746060e-001 
-1.755214e-001 
-1.800058e-001 
-1.842734e-001 
-1.869954e-001 
-1.872215e-001 
-1.891404e-001 
-1.943088e-001 
-1.967062e-001 
-1.956950e-001 
-1.983788e-001 
-2.015568e-001 
-2.014517e-001 
-2.002959e-001 
-2.016978e-001 
-2.047794e-001 
-2.051489e-001 
-2.041504e-001 
-2.056438e-001 
-2.083379e-001 
-2.082583e-001 
-2.058407e-001 
-2.059946e-001 
-2.076410e-001 
-2.047958e-001 
-2.005904e-001 
-2.016028e-001 
-2.041465e-001 
-2.022367e-001 
-1.990571e-001 
-1.971435e-001 
-1.983150e-001 
-1.946605e-001 
-1.890090e-001 
-1.901130e-001 
-1.940650e-001 
-1.912199e-001 
-1.872029e-001 
-1.839641e-001 
-1.758623e-001 
-1.650298e-001 
-1.502096e-001 
-1.391862e-001 
-1.322879e-001 
-1.257803e-001 
-1.201641e-001 
-1.183297e-001 
-1.138713e-001 
-1.084299e-001 
-1.078722e-001 
-1.112538e-001 
-1.166421e-001 
-1.225169e-001 
-1.209412e-001 
-1.075102e-001 
-1.086962e-001 
-1.352049e-001 
-1.984365e-001 
-2.936320e-001 
-3.690988e-001 
-3.975245e-001 
-4.005678e-001 
-3.886261e-001 
-3.869684e-001 
-4.156005e-001 
-4.566605e-001 
-5.074519e-001 
-5.186514e-001 
-4.564028e-001 
-3.843023e-001 
-3.526137e-001 
-3.466282e-001 
-3.520092e-001 
-3.495625e-001 
-3.265612e-001 
-2.737746e-001 
-1.801911e-001 
-8.987771e-002 
-4.428917e-002 
-2.964269e-002 
-1.811821e-002 
-3.012860e-003 
8.805097e-003 
1.830401e-002 
3.212930e-002 
4.863090e-002 
6.039543e-002 
6.951410e-002 
8.106947e-002 
9.561385e-002 
1.083138e-001 
1.167108e-001 
1.275618e-001 
1.403019e-001 
1.500316e-001 
1.549830e-001 
1.603700e-001 
1.670603e-001 
1.693904e-001 
1.661728e-001 
1.612646e-001 
1.572915e-001 
1.482832e-001 
1.369061e-001 
1.265677e-001 
1.167377e-001 
1.037838e-001 
8.668012e-002 
6.992013e-002 
5.704265e-002 
4.348542e-002 
2.681363e-002 
1.614709e-002 
5.862863e-003 
-5.483758e-003 
-1.698911e-002 
-2.642177e-002 
-3.011230e-002 
-3.200892e-002 
-3.724718e-002 
-4.140130e-002 
-4.120027e-002 
-4.165093e-002 
-4.387111e-002 
-4.707390e-002 
-4.710765e-002 
-4.707710e-002 
-4.962765e-002 
-5.252984e-002 
-5.212135e-002 
-4.970563e-002 
-5.084095e-002 
-5.475861e-002 
-5.578218e-002 
-5.473399e-002 
-5.453403e-002 
-5.518555e-002 
-5.498943e-002 
-5.392894e-002 
-5.437451e-002 
-5.560339e-002 
-5.578921e-002 
-5.398577e-002 
-5.154098e-002 
-5.135290e-002 
-5.281734e-002 
-5.223674e-002 
-5.222443e-002 
-5.139743e-002 
-5.003909e-002 
-5.080446e-002 
-4.964310e-002 
-4.855250e-002 
-4.892499e-002 
-4.898870e-002 
-4.906545e-002 
-4.711110e-002 
-4.362108e-002 
-4.428656e-002 
-4.346732e-002 
-3.633587e-002 
-2.756307e-002 
-1.734705e-002 
-7.517473e-003 
7.879615e-003 
2.355254e-002 
2.744495e-002 
2.846942e-002 
3.353316e-002 
3.802175e-002 
3.989947e-002 
3.947793e-002 
3.972363e-002 
4.137050e-002 
3.124235e-002 
2.822370e-002 
4.338372e-002 
4.118895e-002 
1.147577e-002 
-5.382240e-002 
-1.469627e-001 
-2.170755e-001 
-2.466079e-001 
-2.547780e-001 
-2.385277e-001 
-2.359658e-001 
-2.689894e-001 
-3.102304e-001 
-3.580987e-001 
-3.662824e-001 
-3.058378e-001 
-2.391358e-001 
-2.091104e-001 
-2.000103e-001 
-2.106533e-001 
-2.126269e-001 
-1.834869e-001 
-1.261077e-001 
-3.829916e-002 
4.561084e-002 
9.171585e-002 
1.100720e-001 
1.206502e-001 
1.276631e-001 
1.407455e-001 
1.563851e-001 
1.660674e-001 
1.750004e-001 
1.879550e-001 
2.014741e-001 
2.105633e-001 
2.162539e-001 
2.243537e-001 
2.382534e-001 
2.479293e-001 
2.535377e-001 
2.625708e-001 
2.710925e-001 
2.779332e-001 
2.818631e-001 
2.852634e-001 
2.911804e-001 
2.920719e-001 
2.853371e-001 
2.806074e-001 
2.757049e-001 
2.676055e-001 
2.585915e-001 
2.482896e-001 
2.391750e-001 
2.274688e-001 
2.125233e-001 
1.995757e-001 
1.900436e-001 
1.780475e-001 
1.659196e-001 
1.551978e-001 
1.464833e-001 
1.374272e-001 
1.293596e-001 
1.249912e-001 
1.204678e-001 
1.166984e-001 
1.128104e-001 
1.112511e-001 
1.117278e-001 
1.113220e-001 
1.075059e-001 
1.072260e-001 
1.054810e-001 
1.018004e-001 
9.938227e-002 
9.716267e-002 
9.672065e-002 
9.671774e-002 
9.362797e-002 
9.071175e-002 
9.137989e-002 
8.989994e-002 
8.912266e-002 
8.859934e-002 
8.986069e-002 
9.178086e-002 
9.243487e-002 
9.223574e-002 
9.493446e-002 
9.704912e-002 
9.791001e-002 
9.996190e-002 
1.019966e-001 
1.046865e-001 
1.062184e-001 
1.094308e-001 
1.129696e-001 
1.147968e-001 
1.162207e-001 
1.193532e-001 
1.217547e-001 
1.231499e-001 
1.249958e-001 
1.286265e-001 
1.335339e-001 
1.358863e-001 
1.405891e-001 
1.516787e-001 
1.646787e-001 
1.786030e-001 
1.935983e-001 
2.033602e-001 
2.079255e-001 
2.093956e-001 
2.082869e-001 
2.115984e-001 
2.153555e-001 
2.142617e-001 
2.116989e-001 
2.054733e-001 
2.044464e-001 
2.142918e-001 
2.024566e-001 
1.554761e-001 
7.354159e-002 
-3.519729e-002 
-1.157236e-001 
-1.436793e-001 
-1.446950e-001 
-1.309784e-001 
-1.357278e-001 
-1.800259e-001 
-2.333162e-001 
-2.820412e-001 
-2.801412e-001 
-2.004644e-001 
-1.192976e-001 
-8.942746e-002 
-8.808277e-002 
-9.724625e-002 
-9.339323e-002 
-5.461993e-002 
2.036180e-002 
1.289150e-001 
2.252003e-001 
2.663701e-001 
2.753282e-001 
2.861087e-001 
2.970089e-001 
3.055034e-001 
3.157513e-001 
3.263626e-001 
3.379156e-001 
3.489174e-001 
3.593002e-001 
3.716902e-001 
3.841402e-001 
3.930246e-001 
4.024290e-001 
4.123935e-001 
4.209696e-001 
4.279269e-001 
4.329936e-001 
4.359412e-001 
4.354200e-001 
4.314597e-001 
4.266638e-001 
4.202988e-001 
4.099479e-001 
3.973758e-001 
3.819789e-001 
3.646172e-001 
3.449370e-001 
3.231030e-001 
3.025748e-001 
2.848224e-001 
2.635147e-001 
2.420691e-001 
2.242706e-001 
2.072505e-001 
1.925150e-001 
1.771062e-001 
1.631943e-001 
1.561098e-001 
1.499200e-001 
1.405067e-001 
1.350983e-001 
1.334013e-001 
1.329930e-001 
1.302487e-001 
1.250713e-001 
1.251517e-001 
1.262301e-001 
1.213310e-001 
1.162538e-001 
1.154756e-001 
1.144138e-001 
1.094596e-001 
1.029212e-001 
9.971081e-002 
9.828996e-002 
9.234345e-002 
8.732173e-002 
8.752442e-002 
8.591902e-002 
7.987626e-002 
7.573842e-002 
7.485449e-002 
7.330376e-002 
6.935909e-002 
6.600581e-002 
6.876117e-002 
6.969367e-002 
6.493134e-002 
6.236628e-002 
6.446921e-002 
6.523924e-002 
6.221638e-002 
5.861572e-002 
5.991596e-002 
6.205349e-002 
5.767340e-002 
5.314293e-002 
5.119233e-002 
5.045088e-002 
4.734367e-002 
4.283493e-002 
4.084180e-002 
4.010133e-002 
3.568896e-002 
3.056916e-002 
3.018170e-002 
3.458990e-002 
4.325226e-002 
5.253924e-002 
6.343834e-002 
6.770279e-002 
6.510014e-002 
6.180616e-002 
5.924147e-002 
6.007733e-002 
6.034971e-002 
5.748567e-002 
5.484193e-002 
4.632104e-002 
3.266200e-002 
3.961141e-002 
4.447799e-002 
1.811994e-002 
-4.912318e-002 
-1.515811e-001 
-2.390238e-001 
-2.788846e-001 
-2.949817e-001 
-2.901183e-001 
-2.771148e-001 
-3.028143e-001 
-3.577838e-001 
-4.178334e-001 
-4.365513e-001 
-3.802388e-001 
-3.022193e-001 
-2.640777e-001 
-2.522513e-001 
-2.561638e-001 
-2.661221e-001 
-2.496799e-001 
-1.915397e-001 
-9.540922e-002 
9.980003e-004 
5.634224e-002 
7.473694e-002 
8.517971e-002 
9.401905e-002 
1.017612e-001 
1.152484e-001 
1.279358e-001 
1.366700e-001 
1.465165e-001 
1.600179e-001 
1.716147e-001 
1.798654e-001 
1.886849e-001 
1.997408e-001 
2.125888e-001 
2.198808e-001 
2.287761e-001 
2.387114e-001 
2.465083e-001 
2.457663e-001 
2.425752e-001 
2.420203e-001 
2.405539e-001 
2.345842e-001 
2.245526e-001 
2.159308e-001 
2.026180e-001 
1.848865e-001 
1.646026e-001 
1.489990e-001 
1.336564e-001 
1.164979e-001 
9.495372e-002 
7.734319e-002 
6.322600e-002 
4.500673e-002 
2.846838e-002 
1.797611e-002 
1.107665e-002 
1.864563e-003 
-6.923014e-003 
-1.298336e-002 
-1.238179e-002 
-1.663788e-002 
-2.382412e-002 
-2.514101e-002 
-2.398528e-002 
-2.752620e-002 
-3.321810e-002 
-3.512821e-002 
-3.557292e-002 
-3.883945e-002 
-4.566610e-002 
-4.738231e-002 
-4.725991e-002 
-5.265792e-002 
-5.922196e-002 
-6.148496e-002 
-6.255559e-002 
-6.495712e-002 
-6.894695e-002 
-7.138506e-002 
-7.101467e-002 
-7.396882e-002 
-7.821584e-002 
-7.684171e-002 
-7.626030e-002 
-7.826214e-002 
-7.875891e-002 
-7.976811e-002 
-7.923410e-002 
-7.860322e-002 
-7.954746e-002 
-7.849277e-002 
-7.584823e-002 
-7.786430e-002 
-7.912655e-002 
-7.591296e-002 
-7.413829e-002 
-7.338625e-002 
-7.226600e-002 
-7.162218e-002 
-6.955095e-002 
-6.720319e-002 
-6.768324e-002 
-6.325535e-002 
-5.241199e-002 
-4.204708e-002 
-3.023156e-002 
-1.491811e-002 
-5.706014e-004 
8.868262e-003 
1.284736e-002 
1.464158e-002 
1.942483e-002 
2.533160e-002 
2.681691e-002 
2.836821e-002 
2.918218e-002 
2.091188e-002 
1.700662e-002 
3.012249e-002 
2.956439e-002 
-6.706422e-003 
-8.324067e-002 
-1.866289e-001 
-2.666178e-001 
-3.004086e-001 
-3.077920e-001 
-2.927448e-001 
-2.846017e-001 
-3.213418e-001 
-3.787872e-001 
-4.308897e-001 
-4.354306e-001 
-3.674446e-001 
-2.890617e-001 
-2.552708e-001 
-2.470275e-001 
-2.547275e-001 
-2.597342e-001 
-2.288951e-001 
-1.581819e-001 
-5.605883e-002 
3.776820e-002 
8.536489e-002 
9.960739e-002 
1.093607e-001 
1.195670e-001 
1.319030e-001 
1.454503e-001 
1.558331e-001 
1.658788e-001 
1.793630e-001 
1.957201e-001 
2.081709e-001 
2.201682e-001 
2.344595e-001 
2.471081e-001 
2.571997e-001 
2.654593e-001 
2.764434e-001 
2.866591e-001 
2.904406e-001 
2.896607e-001 
2.899818e-001 
2.872203e-001 
2.783002e-001 
2.655043e-001 
2.534480e-001 
2.409644e-001 
2.220943e-001 
2.011418e-001 
1.813591e-001 
1.615510e-001 
1.393407e-001 
1.159455e-001 
9.612175e-002 
7.857351e-002 
5.933725e-002 
4.140266e-002 
2.825230e-002 
1.722964e-002 
8.422996e-003 
1.440432e-003 
-3.528466e-003 
-7.718604e-003 
-1.219323e-002 
-1.542264e-002 
-1.593375e-002 
-1.460541e-002 
-1.622405e-002 
-1.915809e-002 
-2.117901e-002 
-2.448528e-002 
-2.776954e-002 
-2.950880e-002 
-3.053173e-002 
-3.096411e-002 
-3.504001e-002 
-4.323578e-002 
-4.680005e-002 
-4.837333e-002 
-5.176887e-002 
-5.461108e-002 
-5.686730e-002 
-5.865388e-002 
-6.314844e-002 
-6.869126e-002 
-7.093194e-002 
-6.928481e-002 
-7.050557e-002 
-7.427154e-002 
-7.667335e-002 
-7.769697e-002 
-7.985113e-002 
-8.233796e-002 
-8.237385e-002 
-8.079390e-002 
-8.006474e-002 
-8.243419e-002 
-8.368985e-002 
-8.317275e-002 
-8.502512e-002 
-8.686124e-002 
-8.629376e-002 
-8.512155e-002 
-8.467769e-002 
-8.567325e-002 
-8.566952e-002 
-8.397095e-002 
-8.255040e-002 
-8.035560e-002 
-7.051602e-002 
-5.715825e-002 
-4.536523e-002 
-3.045062e-002 
-1.922385e-002 
-1.504185e-002 
-1.243656e-002 
-1.136171e-002 
-8.171139e-003 
-1.887091e-003 
-1.873566e-003 
-2.118662e-003 
-3.521036e-003 
-1.245066e-002 
-4.914594e-003 
4.047416e-004 
-2.579708e-002 
-8.572206e-002 
-1.804916e-001 
-2.733335e-001 
-3.163952e-001 
-3.291230e-001 
-3.233465e-001 
-3.108080e-001 
-3.361190e-001 
-3.851538e-001 
-4.373022e-001 
-4.633928e-001 
-4.165235e-001 
-3.306243e-001 
-2.844124e-001 
-2.723543e-001 
-2.770232e-001 
-2.834997e-001 
-2.641882e-001 
-2.103996e-001 
-1.188083e-001 
-1.611763e-002 
4.486790e-002 
6.079248e-002 
7.053580e-002 
8.022193e-002 
8.984506e-002 
1.003767e-001 
1.126354e-001 
1.254049e-001 
1.338421e-001 
1.406586e-001 
1.538910e-001 
1.669592e-001 
1.754881e-001 
1.862920e-001 
1.989671e-001 
2.102137e-001 
2.169643e-001 
2.203114e-001 
2.290642e-001 
2.364941e-001 
2.350131e-001 
2.330575e-001 
2.328088e-001 
2.290241e-001 
2.182878e-001 
2.037813e-001 
1.933525e-001 
1.839736e-001 
1.671984e-001 
1.502597e-001 
1.367721e-001 
1.218458e-001 
1.022154e-001 
8.300506e-002 
7.060499e-002 
6.210843e-002 
5.002422e-002 
3.896053e-002 
3.392364e-002 
2.838255e-002 
1.924253e-002 
1.276048e-002 
1.377688e-002 
1.543847e-002 
1.332387e-002 
1.088977e-002 
1.111901e-002 
1.127439e-002 
6.600659e-003 
2.213840e-003 
6.448955e-003 
1.006240e-002 
5.744054e-003 
7.397730e-004 
-1.764674e-003 
-4.385975e-003 
-6.721851e-003 
-1.124226e-002 
-9.905846e-003 
-6.725643e-003 
-1.421521e-002 
-2.045884e-002 
-2.184004e-002 
-2.146062e-002 
-2.182873e-002 
-2.413704e-002 
-2.660598e-002 
-2.570756e-002 
-3.035997e-002 
-3.583241e-002 
-3.409684e-002 
-3.443109e-002 
-3.505515e-002 
-3.795927e-002 
-3.940279e-002 
-3.835211e-002 
-3.819956e-002 
-3.911928e-002 
-3.754673e-002 
-3.541386e-002 
-3.562222e-002 
-3.468132e-002 
-3.315051e-002 
-2.869308e-002 
-2.534972e-002 
-2.051883e-002 
-1.069504e-002 
3.010706e-003 
1.875944e-002 
3.824460e-002 
5.139402e-002 
5.644409e-002 
6.036995e-002 
6.186421e-002 
6.553593e-002 
7.053134e-002 
7.041998e-002 
7.107088e-002 
6.677617e-002 
5.440887e-002 
6.269843e-002 
6.868818e-002 
4.254573e-002 
-2.251159e-002 
-1.234388e-001 
-2.137853e-001 
-2.520090e-001 
-2.643376e-001 
-2.579309e-001 
-2.450408e-001 
-2.714514e-001 
-3.254258e-001 
-3.839266e-001 
-4.047636e-001 
-3.450182e-001 
-2.576845e-001 
-2.167673e-001 
-2.094018e-001 
-2.164461e-001 
-2.222789e-001 
-2.021060e-001 
-1.448444e-001 
-4.548597e-002 
5.771513e-002 
1.114257e-001 
1.230263e-001 
1.314429e-001 
1.447361e-001 
1.582405e-001 
1.673423e-001 
1.790284e-001 
1.947017e-001 
2.027172e-001 
2.094990e-001 
2.215652e-001 
2.345302e-001 
2.465937e-001 
2.591934e-001 
2.695729e-001 
2.834860e-001 
2.924830e-001 
2.941348e-001 
3.005015e-001 
3.061147e-001 
3.058147e-001 
3.046949e-001 
3.024164e-001 
2.950844e-001 
2.844268e-001 
2.683578e-001 
2.539911e-001 
2.424512e-001 
2.247249e-001 
2.048814e-001 
1.873097e-001 
1.695164e-001 
1.488375e-001 
1.292804e-001 
1.136785e-001 
9.987376e-002 
8.497638e-002 
7.106951e-002 
6.322468e-002 
5.797649e-002 
5.183673e-002 
4.552957e-002 
4.278691e-002 
4.024389e-002 
3.600397e-002 
3.206305e-002 
3.069985e-002 
3.094375e-002 
2.843292e-002 
2.482662e-002 
2.156004e-002 
1.738770e-002 
1.167663e-002 
6.815550e-003 
4.501672e-003 
2.978116e-003 
4.759439e-004 
-2.714167e-003 
-6.094511e-003 
-1.033676e-002 
-1.444208e-002 
-1.763940e-002 
-1.753035e-002 
-1.761387e-002 
-1.964730e-002 
-2.186248e-002 
-2.473052e-002 
-2.644637e-002 
-2.831873e-002 
-3.111868e-002 
-2.991650e-002 
-2.727645e-002 
-2.917518e-002 
-3.017703e-002 
-3.123772e-002 
-3.114796e-002 
-3.045058e-002 
-3.424576e-002 
-3.541927e-002 
-3.098840e-002 
-3.187745e-002 
-3.135956e-002 
-2.346311e-002 
-1.454999e-002 
-2.892198e-003 
1.097034e-002 
2.525594e-002 
3.705814e-002 
4.090377e-002 
4.002115e-002 
4.582563e-002 
5.120478e-002 
5.072871e-002 
5.047726e-002 
5.149769e-002 
4.653387e-002 
4.175476e-002 
5.241332e-002 
5.772482e-002 
3.169515e-002 
-3.829704e-002 
-1.395516e-001 
-2.231677e-001 
-2.582409e-001 
-2.664856e-001 
-2.558729e-001 
-2.451977e-001 
-2.731975e-001 
-3.257851e-001 
-3.803680e-001 
-3.933806e-001 
-3.312481e-001 
-2.486317e-001 
-2.105212e-001 
-2.021667e-001 
-2.087646e-001 
-2.158224e-001 
-1.940969e-001 
-1.337212e-001 
-3.589086e-002 
6.005438e-002 
1.099409e-001 
1.232908e-001 
1.327964e-001 
1.432775e-001 
1.518320e-001 
1.628832e-001 
1.749937e-001 
1.856519e-001 
1.947851e-001 
2.057202e-001 
2.189843e-001 
2.315831e-001 
2.421201e-001 
2.523615e-001 
2.656570e-001 
2.760748e-001 
2.852961e-001 
2.943603e-001 
3.013793e-001 
3.029934e-001 
3.012070e-001 
2.972151e-001 
2.910540e-001 
2.824048e-001 
2.700133e-001 
2.571028e-001 
2.409320e-001 
2.196466e-001 
1.984661e-001 
1.796677e-001 
1.594976e-001 
1.383170e-001 
1.186588e-001 
1.014906e-001 
8.419892e-002 
6.520516e-002 
4.892063e-002 
3.912720e-002 
2.980528e-002 
2.010703e-002 
1.372799e-002 
1.172299e-002 
1.076582e-002 
6.717876e-003 
4.049074e-003 
4.502545e-003 
3.895892e-003 
2.812009e-004 
-2.228335e-003 
1.299390e-004 
2.577070e-003 
-8.275362e-004 
-5.702401e-003 
-6.519575e-003 
-6.890069e-003 
-7.708686e-003 
-6.820966e-003 
-2.111549e-003 
3.499408e-003 
2.306350e-003 
-6.213917e-004 
1.436279e-003 
6.031691e-003 
9.625971e-003 
1.303869e-002 
1.740781e-002 
2.204037e-002 
2.321835e-002 
2.309498e-002 
2.676005e-002 
3.033977e-002 
3.284034e-002 
3.328062e-002 
3.307971e-002 
3.304139e-002 
2.951818e-002 
2.585917e-002 
2.397336e-002 
2.042098e-002 
1.599678e-002 
1.220786e-002 
1.042533e-002 
1.282916e-002 
1.534068e-002 
1.886318e-002 
2.999490e-002 
3.868891e-002 
3.830095e-002 
3.620042e-002 
3.349812e-002 
3.252235e-002 
3.167675e-002 
2.864804e-002 
2.942590e-002 
2.974440e-002 
1.733653e-002 
1.405833e-002 
2.471152e-002 
1.394637e-002 
-3.186820e-002 
-1.160021e-001 
-2.177251e-001 
-2.880519e-001 
-3.178029e-001 
-3.225853e-001 
-3.041146e-001 
-3.072456e-001 
-3.516080e-001 
-4.065671e-001 
-4.504064e-001 
-4.405535e-001 
-3.671946e-001 
-2.977449e-001 
-2.669252e-001 
-2.615424e-001 
-2.752993e-001 
-2.737493e-001 
-2.322556e-001 
-1.540834e-001 
-5.233357e-002 
3.255394e-002 
7.207306e-002 
8.516646e-002 
9.165375e-002 
9.700775e-002 
1.093356e-001 
1.225231e-001 
1.321781e-001 
1.408343e-001 
1.524731e-001 
1.657566e-001 
1.770086e-001 
1.866766e-001 
1.983992e-001 
2.141129e-001 
2.257591e-001 
2.357979e-001 
2.462502e-001 
2.540100e-001 
2.560057e-001 
2.572040e-001 
2.576629e-001 
2.560175e-001 
2.498456e-001 
2.376448e-001 
2.266818e-001 
2.126602e-001 
1.930968e-001 
1.740766e-001 
1.585411e-001 
1.399773e-001 
1.169325e-001 
9.430253e-002 
7.566932e-002 
5.694763e-002 
3.655746e-002 
1.967652e-002 
7.165267e-003 
-1.892604e-003 
-1.413741e-002 
-2.433475e-002 
-2.750016e-002 
-3.139817e-002 
-3.642651e-002 
-3.934882e-002 
-4.136903e-002 
-4.213585e-002 
-4.702463e-002 
-5.472167e-002 
-5.500308e-002 
-5.518402e-002 
-5.775917e-002 
-5.934908e-002 
-6.178790e-002 
-6.365601e-002 
-6.708626e-002 
-7.397996e-002 
-7.350941e-002 
-7.110306e-002 
-7.436321e-002 
-7.789343e-002 
-7.938197e-002 
-8.011973e-002 
-8.065339e-002 
-8.129791e-002 
-7.943685e-002 
-7.583857e-002 
-7.863544e-002 
-8.273174e-002 
-8.233164e-002 
-7.925844e-002 
-8.007641e-002 
-8.061149e-002 
-7.907138e-002 
-7.879113e-002 
-8.105114e-002 
-8.456020e-002 
-8.299027e-002 
-7.874160e-002 
-7.932545e-002 
-8.231585e-002 
-8.019924e-002 
-7.930018e-002 
-7.662179e-002 
-6.851798e-002 
-5.642108e-002 
-3.945448e-002 
-2.449721e-002 
-2.063467e-002 
-1.750467e-002 
-1.462423e-002 
-1.666013e-002 
-1.427898e-002 
-1.230693e-002 
-1.185288e-002 
-1.361446e-002 
-2.416175e-002 
-3.115815e-002 
-1.680565e-002 
-2.083195e-002 
-5.907093e-002 
-1.356540e-001 
-2.442367e-001 
-3.247795e-001 
-3.548657e-001 
-3.600435e-001 
-3.462114e-001 
-3.448730e-001 
-3.865485e-001 
-4.394260e-001 
-4.958016e-001 
-5.017731e-001 
-4.232652e-001 
-3.433241e-001 
-3.149182e-001 
-3.146943e-001 
-3.281489e-001 
-3.286656e-001 
-2.962898e-001 
-2.319768e-001 
-1.276068e-001 
-3.206370e-002 
7.975517e-003 
1.545793e-002 
2.446244e-002 
3.836217e-002 
5.126981e-002 
6.115351e-002 
7.237543e-002 
8.596747e-002 
9.832755e-002 
1.092124e-001 
1.207517e-001 
1.370545e-001 
1.495661e-001 
1.603374e-001 
1.742078e-001 
1.875802e-001 
1.960641e-001 
2.027935e-001 
2.062295e-001 
2.102189e-001 
2.134767e-001 
2.092189e-001 
2.029590e-001 
1.955628e-001 
1.845500e-001 
1.710818e-001 
1.565759e-001 
1.405810e-001 
1.264124e-001 
1.093604e-001 
8.853465e-002 
7.027133e-002 
5.551737e-002 
4.026802e-002 
2.436164e-002 
1.185569e-002 
1.988533e-003 
-8.543704e-003 
-1.788712e-002 
-2.386272e-002 
-2.540805e-002 
-2.678724e-002 
-2.989560e-002 
-3.098612e-002 
-2.997603e-002 
-3.172311e-002 
-3.383332e-002 
-3.368041e-002 
-3.244867e-002 
-3.158737e-002 
-3.316081e-002 
-3.403949e-002 
-3.437772e-002 
-3.632324e-002 
-3.687978e-002 
-3.623304e-002 
-3.576130e-002 
-3.610778e-002 
-3.781811e-002 
-3.853366e-002 
-3.858777e-002 
-4.055753e-002 
-4.222477e-002 
-3.988606e-002 
-4.018379e-002 
-4.408980e-002 
-4.840691e-002 
-4.869156e-002 
-4.745319e-002 
-4.891687e-002 
-5.198221e-002 
-5.167990e-002 
-4.869632e-002 
-5.265603e-002 
-5.747983e-002 
-5.670305e-002 
-5.372637e-002 
-5.260786e-002 
-5.479001e-002 
-5.511367e-002 
-4.816349e-002 
-4.163658e-002 
-3.746870e-002 
-2.563537e-002 
-5.756771e-003 
1.271131e-002 
1.896666e-002 
2.015791e-002 
2.376106e-002 
2.485283e-002 
2.486124e-002 
2.504476e-002 
2.825809e-002 
3.424927e-002 
2.482994e-002 
2.030609e-002 
3.583917e-002 
2.864462e-002 
-8.063295e-003 
-7.963415e-002 
-1.814816e-001 
-2.465988e-001 
-2.657046e-001 
-2.710790e-001 
-2.529192e-001 
-2.533024e-001 
-2.933169e-001 
-3.396628e-001 
-3.902878e-001 
-3.865835e-001 
-3.030165e-001 
-2.333779e-001 
-2.113550e-001 
-2.097378e-001 
-2.232413e-001 
-2.226302e-001 
-1.886322e-001 
-1.216082e-001 
-1.984046e-002 
6.525665e-002 
9.765236e-002 
1.067003e-001 
1.132582e-001 
1.230082e-001 
1.352235e-001 
1.458250e-001 
1.545117e-001 
1.661714e-001 
1.779503e-001 
1.873963e-001 
1.941351e-001 
2.035069e-001 
2.146558e-001 
2.215737e-001 
