85
2.4740
393.7368
0.6212
-1.582979e-002 
-4.201906e-002 
-6.522049e-002 
-8.803774e-002 
-1.100855e-001 
-1.295220e-001 
-1.463655e-001 
-1.573149e-001 
-1.735107e-001 
-2.012644e-001 
-2.082616e-001 
-1.995360e-001 
-1.907260e-001 
-1.829691e-001 
-1.732522e-001 
-1.601614e-001 
-1.451275e-001 
-1.323587e-001 
-1.107012e-001 
-7.355707e-002 
-3.704694e-002 
-5.267194e-003 
1.963585e-002 
4.636420e-002 
7.129059e-002 
8.895309e-002 
1.014503e-001 
1.115234e-001 
1.170290e-001 
1.182854e-001 
1.158101e-001 
1.126165e-001 
1.157468e-001 
1.197281e-001 
1.245101e-001 
1.290585e-001 
1.283200e-001 
1.211595e-001 
1.148489e-001 
1.114192e-001 
1.117470e-001 
1.164357e-001 
1.189488e-001 
1.159309e-001 
1.049922e-001 
9.200087e-002 
8.466785e-002 
8.278107e-002 
8.642452e-002 
1.004313e-001 
1.042618e-001 
7.426220e-002 
2.831662e-002 
9.287545e-004 
1.852830e-002 
7.692194e-002 
6.661324e-002 
6.125165e-003 
-1.913579e-002 
-5.120100e-002 
-9.604206e-002 
-1.065417e-001 
-7.210206e-002 
-3.647979e-003 
-7.919116e-003 
-1.359985e-001 
-1.786916e-001 
-1.340308e-001 
-1.211635e-001 
-1.167433e-001 
-9.534085e-002 
-7.794514e-002 
-9.416619e-002 
-1.612851e-001 
-1.946139e-001 
-1.456939e-001 
-1.165315e-001 
-1.265081e-001 
-1.469718e-001 
-1.648900e-001 
-1.844634e-001 
-2.072552e-001 
-2.238295e-001 
-2.400912e-001 
-2.575877e-001 
-2.685226e-001 
-2.715850e-001 
-2.692981e-001 
-2.642935e-001 
-2.579974e-001 
-2.451040e-001 
-2.275991e-001 
-2.115451e-001 
-1.904121e-001 
-1.616090e-001 
-1.317154e-001 
-1.042683e-001 
-7.720935e-002 
-4.851746e-002 
-2.107178e-002 
1.021704e-003 
1.964034e-002 
4.083071e-002 
5.819663e-002 
6.698455e-002 
7.251597e-002 
7.761922e-002 
8.144828e-002 
8.121481e-002 
8.124694e-002 
8.850833e-002 
1.001150e-001 
1.056941e-001 
1.044972e-001 
1.026771e-001 
1.008969e-001 
9.794627e-002 
9.618521e-002 
1.022492e-001 
1.097326e-001 
1.094266e-001 
1.001965e-001 
9.035915e-002 
8.701978e-002 
8.535655e-002 
8.543849e-002 
9.777220e-002 
1.176369e-001 
1.120214e-001 
7.039420e-002 
3.257091e-002 
2.998252e-002 
6.660966e-002 
4.778923e-002 
-1.929101e-002 
-3.536074e-002 
-3.618035e-002 
-7.481481e-002 
-1.084458e-001 
-8.908204e-002 
-2.945419e-002 
-1.822941e-002 
-1.218482e-001 
-1.544164e-001 
-9.449889e-002 
-7.475707e-002 
-8.424513e-002 
-6.987567e-002 
-4.247572e-002 
-3.327561e-002 
-6.656080e-002 
-8.474192e-002 
-2.603551e-002 
1.648639e-002 
1.463338e-002 
-3.001981e-003 
-2.277281e-002 
-4.179530e-002 
-5.859909e-002 
-7.723358e-002 
-9.653549e-002 
-1.114573e-001 
-1.211227e-001 
-1.268530e-001 
-1.323456e-001 
-1.350866e-001 
-1.302183e-001 
-1.189193e-001 
-1.094877e-001 
-9.738222e-002 
-7.963356e-002 
-5.887729e-002 
-4.029113e-002 
-2.242654e-002 
1.627543e-003 
2.943217e-002 
5.001219e-002 
6.397211e-002 
8.108347e-002 
9.737661e-002 
1.073322e-001 
1.129289e-001 
1.207485e-001 
1.278156e-001 
1.257501e-001 
1.172881e-001 
1.144956e-001 
1.193841e-001 
1.241522e-001 
1.270801e-001 
1.321607e-001 
1.345847e-001 
1.266628e-001 
1.168865e-001 
1.144911e-001 
1.190227e-001 
1.246460e-001 
1.271238e-001 
1.258563e-001 
1.201844e-001 
1.088006e-001 
1.014520e-001 
1.038554e-001 
1.124056e-001 
1.332374e-001 
1.449279e-001 
1.153968e-001 
7.476226e-002 
4.811024e-002 
7.110929e-002 
9.165260e-002 
3.172780e-002 
-1.654824e-002 
-1.157263e-002 
-3.864584e-002 
-8.241351e-002 
-8.289242e-002 
-4.028364e-002 
1.241473e-002 
-5.509412e-002 
-1.490859e-001 
-1.125825e-001 
-6.188028e-002 
-7.036729e-002 
-6.495301e-002 
-3.798655e-002 
-1.705358e-002 
-3.325549e-002 
-7.437979e-002 
-4.051512e-002 
2.730431e-002 
4.119842e-002 
2.431402e-002 
5.713348e-003 
-1.182085e-002 
-3.021033e-002 
-5.120282e-002 
-7.048606e-002 
-8.555777e-002 
-9.731312e-002 
-1.072663e-001 
-1.113079e-001 
-1.121587e-001 
-1.093996e-001 
-1.038111e-001 
-9.546235e-002 
-8.227341e-002 
-6.412838e-002 
-4.526809e-002 
-2.530270e-002 
-1.419773e-003 
2.276398e-002 
4.835071e-002 
7.366128e-002 
9.770125e-002 
1.187861e-001 
1.375252e-001 
1.521931e-001 
1.653800e-001 
1.771603e-001 
1.841328e-001 
1.869825e-001 
1.877974e-001 
1.869835e-001 
1.880253e-001 
1.924889e-001 
1.984362e-001 
2.060116e-001 
2.061911e-001 
1.996682e-001 
1.941725e-001 
1.897249e-001 
1.862864e-001 
1.900004e-001 
1.929927e-001 
1.929239e-001 
1.869559e-001 
1.740907e-001 
1.679779e-001 
1.670979e-001 
1.639654e-001 
1.700770e-001 
1.855376e-001 
1.797840e-001 
1.391806e-001 
9.827553e-002 
9.488410e-002 
1.374041e-001 
1.486466e-001 
1.059006e-001 
8.437222e-002 
7.975724e-002 
4.181601e-002 
2.343392e-003 
2.160778e-002 
8.453226e-002 
1.119948e-001 
3.595751e-002 
-2.136931e-002 
5.539930e-003 
2.552739e-002 
1.888285e-002 
3.648180e-002 
7.097171e-002 
7.734314e-002 
3.977517e-002 
4.623081e-003 
3.180126e-002 
6.745443e-002 
6.852902e-002 
5.711037e-002 
4.517514e-002 
2.923206e-002 
1.046495e-002 
-5.161539e-003 
-1.941334e-002 
-3.451857e-002 
-4.966787e-002 
-5.920945e-002 
-6.190004e-002 
-6.513418e-002 
-6.577938e-002 
-6.124410e-002 
-5.298197e-002 
-4.429502e-002 
-3.434367e-002 
-2.047240e-002 
-6.250962e-004 
1.809813e-002 
3.508973e-002 
5.653064e-002 
7.753946e-002 
9.419097e-002 
1.093430e-001 
1.243478e-001 
1.395714e-001 
1.505607e-001 
1.547872e-001 
1.611240e-001 
1.665244e-001 
1.638522e-001 
1.608346e-001 
1.614353e-001 
1.624835e-001 
1.644722e-001 
1.656172e-001 
1.707227e-001 
1.751490e-001 
1.701057e-001 
1.612624e-001 
1.577664e-001 
1.566348e-001 
1.566176e-001 
1.573664e-001 
1.573106e-001 
1.547615e-001 
1.440111e-001 
1.327251e-001 
1.280846e-001 
1.281225e-001 
1.301722e-001 
1.424462e-001 
1.431792e-001 
9.720754e-002 
4.714066e-002 
4.176431e-002 
9.949563e-002 
1.399967e-001 
9.033877e-002 
4.347561e-002 
3.881713e-002 
-4.951618e-003 
-6.451689e-002 
-4.710722e-002 
3.225710e-002 
8.588983e-002 
-4.139923e-003 
-1.168321e-001 
-9.974424e-002 
-6.659355e-002 
-8.111564e-002 
-6.923296e-002 
-3.134335e-002 
-2.620040e-002 
-8.209653e-002 
-1.619273e-001 
-1.579709e-001 
-1.122032e-001 
-1.144032e-001 
-1.401639e-001 
-1.635442e-001 
-1.884636e-001 
-2.156934e-001 
-2.450178e-001 
-2.733476e-001 
-2.927544e-001 
-3.096450e-001 
-3.244116e-001 
-3.245498e-001 
-3.172684e-001 
-3.093828e-001 
-2.970894e-001 
-2.805184e-001 
-2.566557e-001 
-2.290069e-001 
-1.977190e-001 
-1.578248e-001 
-1.136938e-001 
-7.600359e-002 
-4.077609e-002 
-2.605725e-003 
3.428341e-002 
6.619509e-002 
9.302381e-002 
1.206342e-001 
1.424538e-001 
1.536485e-001 
1.586358e-001 
1.644489e-001 
1.710869e-001 
1.716032e-001 
1.693925e-001 
1.725687e-001 
1.796859e-001 
1.837618e-001 
1.877954e-001 
1.899419e-001 
1.885710e-001 
1.839409e-001 
1.788381e-001 
1.813141e-001 
1.887196e-001 
1.924143e-001 
1.918442e-001 
1.891976e-001 
1.815107e-001 
1.739508e-001 
1.712015e-001 
1.759732e-001 
1.901921e-001 
1.975203e-001 
1.752609e-001 
1.204379e-001 
7.994482e-002 
9.640675e-002 
1.614457e-001 
1.663596e-001 
1.167921e-001 
9.372247e-002 
7.004538e-002 
1.881964e-002 
-1.398578e-002 
2.924525e-002 
1.178137e-001 
1.258405e-001 
5.229581e-003 
-4.777203e-002 
-1.312020e-002 
8.577193e-004 
2.807745e-003 
3.004867e-002 
6.239299e-002 
5.149978e-002 
-1.975174e-002 
-6.825667e-002 
-3.353673e-002 
-4.884759e-003 
-1.219300e-002 
-3.432725e-002 
-5.944200e-002 
-8.047157e-002 
-1.004815e-001 
-1.245796e-001 
-1.475158e-001 
-1.659107e-001 
-1.801668e-001 
-1.885758e-001 
-1.923394e-001 
-1.884286e-001 
-1.745955e-001 
-1.636417e-001 
-1.520127e-001 
-1.310571e-001 
-1.061454e-001 
-7.946578e-002 
-4.939064e-002 
-1.847805e-002 
1.583329e-002 
4.623343e-002 
7.128505e-002 
1.013646e-001 
1.301327e-001 
1.501048e-001 
1.679340e-001 
1.847590e-001 
1.963136e-001 
2.009124e-001 
2.005381e-001 
2.027742e-001 
2.023889e-001 
1.977023e-001 
1.985304e-001 
2.075945e-001 
2.159096e-001 
2.191990e-001 
2.162277e-001 
2.121869e-001 
2.066490e-001 
1.991029e-001 
1.992879e-001 
2.065268e-001 
2.100829e-001 
2.064925e-001 
1.966152e-001 
1.825131e-001 
1.728240e-001 
1.673056e-001 
1.665834e-001 
1.772601e-001 
1.872578e-001 
1.691456e-001 
1.075349e-001 
6.181544e-002 
8.107215e-002 
1.516284e-001 
1.676866e-001 
1.158554e-001 
8.489622e-002 
6.235713e-002 
2.335316e-003 
-4.336534e-002 
6.173483e-003 
9.681055e-002 
1.078595e-001 
-1.351884e-002 
-8.869454e-002 
-6.437984e-002 
-4.989814e-002 
-5.395349e-002 
-2.641449e-002 
6.178027e-003 
-1.865546e-002 
-9.885894e-002 
-1.581539e-001 
-1.345206e-001 
-1.064718e-001 
-1.118908e-001 
-1.340590e-001 
-1.623848e-001 
-1.924089e-001 
-2.194468e-001 
-2.401555e-001 
-2.612404e-001 
-2.844448e-001 
-3.007780e-001 
-3.063423e-001 
-3.088418e-001 
-3.080719e-001 
-2.985823e-001 
-2.823099e-001 
-2.618992e-001 
-2.404062e-001 
-2.153835e-001 
-1.818527e-001 
-1.471656e-001 
-1.154556e-001 
-7.995249e-002 
-4.244779e-002 
-8.590163e-003 
2.095683e-002 
4.632167e-002 
7.053645e-002 
9.085718e-002 
1.015296e-001 
1.117794e-001 
1.219906e-001 
1.257546e-001 
1.248494e-001 
1.255511e-001 
1.291680e-001 
1.320768e-001 
1.344407e-001 
1.355024e-001 
1.348263e-001 
1.293911e-001 
1.228520e-001 
1.208018e-001 
1.244041e-001 
1.227618e-001 
1.178805e-001 
1.144963e-001 
1.058663e-001 
9.327739e-002 
8.631006e-002 
8.651941e-002 
9.813100e-002 
1.065699e-001 
8.615707e-002 
4.610045e-002 
1.777848e-002 
2.148031e-002 
6.927764e-002 
6.677155e-002 
1.671912e-003 
-3.128318e-002 
-5.558582e-002 
-9.784744e-002 
-1.190140e-001 
-9.209949e-002 
-2.898782e-002 
-1.772258e-002 
-1.359067e-001 
-1.985765e-001 
-1.572249e-001 
-1.342388e-001 
-1.326390e-001 
-1.177880e-001 
-1.008818e-001 
-1.101811e-001 
-1.671281e-001 
-2.100222e-001 
-1.671782e-001 
-1.229517e-001 
-1.224257e-001 
-1.452738e-001 
-1.705902e-001 
-1.917529e-001 
-2.102486e-001 
-2.286954e-001 
-2.483278e-001 
-2.587313e-001 
-2.615548e-001 
-2.655458e-001 
-2.666242e-001 
-2.584237e-001 
-2.430541e-001 
-2.261213e-001 
-2.102450e-001 
-1.880958e-001 
-1.589622e-001 
-1.334678e-001 
-1.090729e-001 
-7.785711e-002 
-4.307750e-002 
-1.326501e-002 
1.111124e-002 
3.596062e-002 
6.120476e-002 
7.559579e-002 
8.362440e-002 
9.407520e-002 
1.045654e-001 
1.094066e-001 
1.063183e-001 
1.056251e-001 
1.107034e-001 
1.127986e-001 
1.134353e-001 
1.225980e-001 
1.284613e-001 
1.253853e-001 
1.173584e-001 
1.100782e-001 
1.106588e-001 
1.144758e-001 
1.141905e-001 
1.146198e-001 
1.127500e-001 
1.009143e-001 
8.947461e-002 
8.542364e-002 
8.616810e-002 
9.752469e-002 
1.165241e-001 
1.160122e-001 
7.698969e-002 
3.495986e-002 
1.978915e-002 
5.156661e-002 
3.756783e-002 
-3.505063e-002 
-5.754979e-002 
-5.343900e-002 
-8.986976e-002 
-1.322698e-001 
-1.230000e-001 
-6.921808e-002 
-4.930560e-002 
-1.543449e-001 
-1.994109e-001 
-1.373118e-001 
-1.128660e-001 
-1.300111e-001 
-1.228042e-001 
-9.467997e-002 
-8.045206e-002 
-1.113165e-001 
-1.352053e-001 
-7.460701e-002 
-2.575448e-002 
-2.899358e-002 
-4.928532e-002 
-6.587660e-002 
-7.968009e-002 
-9.941176e-002 
-1.214580e-001 
-1.375134e-001 
-1.487975e-001 
-1.599716e-001 
-1.677276e-001 
-1.710345e-001 
-1.690730e-001 
-1.679578e-001 
-1.670603e-001 
-1.568560e-001 
-1.404673e-001 
-1.237114e-001 
-1.059303e-001 
-8.472327e-002 
-6.324659e-002 
-4.386591e-002 
-2.681387e-002 
-5.712616e-003 
1.715485e-002 
3.726060e-002 
5.301734e-002 
6.642218e-002 
7.932737e-002 
8.579607e-002 
8.757318e-002 
9.165411e-002 
9.654327e-002 
9.594475e-002 
9.658093e-002 
9.808755e-002 
1.034165e-001 
1.104606e-001 
1.124348e-001 
1.126014e-001 
1.120028e-001 
1.058719e-001 
1.021538e-001 
1.049186e-001 
1.066672e-001 
1.072046e-001 
1.036054e-001 
9.759357e-002 
8.806650e-002 
7.835545e-002 
7.458910e-002 
7.830843e-002 
9.407389e-002 
1.067009e-001 
8.250663e-002 
3.658597e-002 
9.135592e-004 
1.349413e-002 
4.134985e-002 
-9.713358e-003 
-6.771078e-002 
-6.595127e-002 
-8.459169e-002 
-1.360241e-001 
-1.565245e-001 
-1.168370e-001 
-4.909158e-002 
-9.390807e-002 
-2.016965e-001 
-1.839003e-001 
-1.290136e-001 
-1.326058e-001 
-1.339160e-001 
-1.048335e-001 
-7.282027e-002 
-8.121039e-002 
-1.278335e-001 
-1.149115e-001 
-5.092058e-002 
-2.667705e-002 
-3.846636e-002 
-6.143154e-002 
-8.275221e-002 
-1.040893e-001 
-1.225728e-001 
-1.421265e-001 
-1.630626e-001 
-1.746889e-001 
-1.808572e-001 
-1.900179e-001 
-1.936854e-001 
-1.884425e-001 
-1.782636e-001 
-1.647444e-001 
-1.530727e-001 
-1.364646e-001 
-1.128846e-001 
-9.051767e-002 
-6.653451e-002 
-3.678219e-002 
-7.258724e-003 
1.788440e-002 
3.933852e-002 
5.985056e-002 
8.134891e-002 
9.976930e-002 
1.135428e-001 
1.247126e-001 
1.324586e-001 
1.327037e-001 
1.297917e-001 
1.295950e-001 
1.299778e-001 
1.296652e-001 
1.315650e-001 
1.352960e-001 
1.381335e-001 
1.391826e-001 
1.357474e-001 
1.318528e-001 
1.287262e-001 
1.244888e-001 
1.225542e-001 
1.269935e-001 
1.280010e-001 
1.239501e-001 
1.159669e-001 
1.048654e-001 
9.794818e-002 
9.523201e-002 
9.303814e-002 
1.058702e-001 
1.175687e-001 
8.928468e-002 
2.547866e-002 
-1.825701e-002 
1.770830e-003 
6.641454e-002 
5.243479e-002 
-1.229332e-002 
-2.687554e-002 
-4.976860e-002 
-1.122337e-001 
-1.460237e-001 
-9.307794e-002 
-1.834255e-004 
-7.431885e-003 
-1.433392e-001 
-1.799409e-001 
-1.299509e-001 
-1.228397e-001 
-1.253767e-001 
-9.036729e-002 
-5.246408e-002 
-6.747667e-002 
-1.394358e-001 
-1.734904e-001 
-1.232668e-001 
-9.661788e-002 
-1.092706e-001 
-1.310524e-001 
-1.536560e-001 
-1.800380e-001 
-2.049173e-001 
-2.281919e-001 
-2.528207e-001 
-2.710868e-001 
-2.818439e-001 
-2.873297e-001 
-2.886362e-001 
-2.868137e-001 
-2.799209e-001 
-2.673555e-001 
-2.514760e-001 
-2.293078e-001 
-2.003226e-001 
-1.708304e-001 
-1.406353e-001 
-1.088852e-001 
-7.520335e-002 
-4.103661e-002 
-7.744000e-003 
2.427926e-002 
5.250809e-002 
7.441792e-002 
9.124433e-002 
1.054187e-001 
1.163000e-001 
1.229716e-001 
1.258076e-001 
1.260131e-001 
1.260916e-001 
1.257089e-001 
1.235814e-001 
1.224277e-001 
1.239381e-001 
1.257227e-001 
1.283534e-001 
1.319984e-001 
1.368817e-001 
1.406258e-001 
1.376717e-001 
1.296218e-001 
1.269587e-001 
1.297032e-001 
1.319436e-001 
1.335861e-001 
1.343843e-001 
1.311478e-001 
1.207873e-001 
1.098474e-001 
1.050947e-001 
1.072669e-001 
1.120631e-001 
1.209208e-001 
1.156006e-001 
6.572567e-002 
1.847175e-002 
1.986707e-002 
8.838699e-002 
1.325681e-001 
8.196710e-002 
3.651467e-002 
2.652113e-002 
-2.150106e-002 
-7.468991e-002 
-4.946180e-002 
3.301424e-002 
8.606533e-002 
-1.649876e-002 
-1.292838e-001 
-1.086636e-001 
-7.772139e-002 
-8.752391e-002 
-7.218325e-002 
-4.000188e-002 
-4.289624e-002 
-1.096223e-001 
-1.914617e-001 
-1.812150e-001 
-1.416714e-001 
-1.444714e-001 
-1.673817e-001 
-1.915963e-001 
-2.129536e-001 
-2.363979e-001 
-2.594637e-001 
-2.779013e-001 
-2.974763e-001 
-3.148894e-001 
-3.199198e-001 
-3.165854e-001 
-3.099838e-001 
-2.999565e-001 
-2.855037e-001 
-2.651109e-001 
-2.406638e-001 
-2.142471e-001 
-1.822405e-001 
-1.440218e-001 
-1.093198e-001 
-7.773068e-002 
-4.284637e-002 
-7.383857e-003 
2.349675e-002 
4.995982e-002 
7.446762e-002 
9.633150e-002 
1.111073e-001 
1.188411e-001 
1.258051e-001 
1.343738e-001 
1.375980e-001 
1.333263e-001 
1.314490e-001 
1.338345e-001 
1.349297e-001 
1.340970e-001 
1.356671e-001 
1.426523e-001 
1.510955e-001 
1.498927e-001 
1.456112e-001 
1.453343e-001 
1.443913e-001 
1.420756e-001 
1.413944e-001 
1.434759e-001 
1.453881e-001 
1.401546e-001 
1.282833e-001 
1.212199e-001 
1.181128e-001 
1.151204e-001 
1.180811e-001 
1.304396e-001 
1.312874e-001 
9.688210e-002 
5.974652e-002 
5.028479e-002 
8.759945e-002 
1.070638e-001 
5.308549e-002 
1.033966e-002 
4.097737e-003 
-2.985083e-002 
-6.935843e-002 
-5.864376e-002 
-7.468948e-003 
3.182994e-002 
-4.543165e-002 
-1.342595e-001 
-1.097287e-001 
-7.449079e-002 
-8.062058e-002 
-7.172411e-002 
-4.985367e-002 
-4.506116e-002 
-8.087794e-002 
-1.301612e-001 
-1.073006e-001 
-5.917742e-002 
-5.283186e-002 
-6.938695e-002 
-9.055133e-002 
-1.131283e-001 
-1.329752e-001 
-1.492823e-001 
-1.617827e-001 
-1.753953e-001 
-1.866122e-001 
-1.896691e-001 
-1.887915e-001 
-1.859025e-001 
-1.771569e-001 
-1.610021e-001 
-1.420106e-001 
-1.240899e-001 
-1.057469e-001 
-8.109334e-002 
-5.210583e-002 
-2.446944e-002 
3.433054e-003 
3.345449e-002 
6.173550e-002 
8.295031e-002 
9.802793e-002 
1.136573e-001 
1.291148e-001 
1.389428e-001 
1.428352e-001 
1.473246e-001 
1.511802e-001 
1.503182e-001 
1.447484e-001 
1.425962e-001 
1.479710e-001 
1.531079e-001 
1.569248e-001 
1.621524e-001 
1.650734e-001 
1.616205e-001 
1.535380e-001 
1.478374e-001 
1.523614e-001 
1.587710e-001 
1.596563e-001 
1.595137e-001 
1.542446e-001 
1.428248e-001 
1.328935e-001 
1.282494e-001 
1.302555e-001 
1.420023e-001 
1.554331e-001 
1.481331e-001 
1.094107e-001 
6.801056e-002 
6.076099e-002 
9.597110e-002 
7.104805e-002 
-7.912821e-004 
-1.750184e-002 
-1.962221e-002 
-5.753368e-002 
-9.311474e-002 
-7.985654e-002 
-1.925646e-002 
-1.347469e-002 
-1.257242e-001 
-1.538305e-001 
-9.106122e-002 
-7.543903e-002 
-8.769236e-002 
-7.581110e-002 
-4.882407e-002 
-3.996518e-002 
-8.030611e-002 
-9.905430e-002 
-3.528571e-002 
4.916751e-003 
-5.777459e-003 
-2.932683e-002 
-4.997760e-002 
-7.046856e-002 
-9.327352e-002 
-1.159910e-001 
-1.315042e-001 
-1.406023e-001 
-1.533358e-001 
-1.623507e-001 
-1.601170e-001 
-1.549427e-001 
-1.512020e-001 
-1.405418e-001 
-1.237784e-001 
-1.047776e-001 
-8.691014e-002 
-6.537275e-002 
-3.567322e-002 
-7.033203e-003 
1.539149e-002 
3.853917e-002 
6.746687e-002 
8.964385e-002 
1.060152e-001 
1.234731e-001 
1.412241e-001 
1.521981e-001 
1.546953e-001 
1.525785e-001 
1.532419e-001 
1.538145e-001 
1.475746e-001 
1.473506e-001 
1.500148e-001 
1.511311e-001 
1.521942e-001 
1.526286e-001 
1.563496e-001 
1.612947e-001 
1.584786e-001 
1.521589e-001 
1.508896e-001 
1.475181e-001 
1.486838e-001 
1.513368e-001 
1.513166e-001 
1.495797e-001 
1.399856e-001 
1.296702e-001 
1.256142e-001 
1.243469e-001 
1.258542e-001 
1.419513e-001 
1.416475e-001 
9.272926e-002 
3.909364e-002 
2.982207e-002 
7.730917e-002 
7.036801e-002 
-5.268023e-003 
-3.319021e-002 
-2.504631e-002 
-6.861763e-002 
-1.263166e-001 
-1.076090e-001 
-2.886581e-002 
-8.559689e-003 
-1.269209e-001 
-1.809991e-001 
-1.193416e-001 
-9.514757e-002 
-1.166917e-001 
-1.014210e-001 
-6.165807e-002 
-5.723068e-002 
-1.082446e-001 
-1.447527e-001 
-9.392682e-002 
-5.086377e-002 
-6.055908e-002 
-8.439414e-002 
-1.040055e-001 
-1.291019e-001 
-1.566385e-001 
-1.786517e-001 
-1.979396e-001 
-2.138624e-001 
-2.279467e-001 
-2.362770e-001 
-2.362674e-001 
-2.332845e-001 
-2.302447e-001 
-2.201009e-001 
-2.017465e-001 
-1.796994e-001 
-1.616484e-001 
-1.393086e-001 
-1.082911e-001 
-7.974512e-002 
-5.422281e-002 
-2.691977e-002 
4.139514e-003 
3.540849e-002 
5.990955e-002 
7.646228e-002 
9.549104e-002 
1.120463e-001 
1.171203e-001 
1.204689e-001 
1.270856e-001 
1.306068e-001 
1.295544e-001 
1.250095e-001 
1.220086e-001 
1.240898e-001 
1.235073e-001 
1.217837e-001 
1.289581e-001 
1.356212e-001 
1.369450e-001 
1.366737e-001 
1.359018e-001 
1.338202e-001 
1.305900e-001 
1.286663e-001 
1.346334e-001 
1.415022e-001 
1.391362e-001 
1.332012e-001 
1.283328e-001 
1.238693e-001 
1.186297e-001 
1.158311e-001 
1.204469e-001 
1.379318e-001 
1.370763e-001 
8.690667e-002 
3.646376e-002 
3.356573e-002 
8.700378e-002 
1.083921e-001 
5.548027e-002 
1.926481e-002 
1.447981e-002 
-3.235309e-002 
-9.002075e-002 
-7.148207e-002 
8.675245e-003 
4.807626e-002 
-4.823205e-002 
-1.344829e-001 
-1.122133e-001 
-8.824390e-002 
-1.004085e-001 
-8.712368e-002 
-5.192786e-002 
-4.929994e-002 
-1.065462e-001 
-1.693259e-001 
-1.565702e-001 
-1.233126e-001 
-1.251948e-001 
-1.491494e-001 
-1.782016e-001 
-2.054453e-001 
-2.331839e-001 
-2.608616e-001 
-2.868226e-001 
-3.105206e-001 
-3.264179e-001 
-3.336388e-001 
-3.370296e-001 
-3.336993e-001 
-3.219244e-001 
-3.093659e-001 
-2.926178e-001 
-2.695177e-001 
-2.410544e-001 
-2.059058e-001 
-1.693838e-001 
-1.327498e-001 
-9.352583e-002 
-5.635785e-002 
-2.182120e-002 
1.126676e-002 
4.271925e-002 
7.228092e-002 
9.701298e-002 
1.143407e-001 
1.271666e-001 
1.349653e-001 
1.385374e-001 
1.404010e-001 
1.407659e-001 
1.409348e-001 
1.405288e-001 
1.397601e-001 
1.390152e-001 
1.391827e-001 
1.391284e-001 
1.417292e-001 
1.479819e-001 
1.554459e-001 
1.567442e-001 
1.537223e-001 
1.513606e-001 
1.482513e-001 
1.444944e-001 
1.454826e-001 
1.495102e-001 
1.513002e-001 
1.479188e-001 
1.376115e-001 
1.304974e-001 
1.267389e-001 
1.222203e-001 
1.257491e-001 
1.396086e-001 
1.333099e-001 
8.505158e-002 
3.868578e-002 
3.399609e-002 
9.293434e-002 
1.373137e-001 
9.337093e-002 
4.976163e-002 
3.602464e-002 
-1.284237e-002 
-6.200828e-002 
-4.023579e-002 
3.628259e-002 
9.332163e-002 
6.148687e-003 
-1.109427e-001 
-1.019685e-001 
-7.314319e-002 
-8.127084e-002 
-6.422239e-002 
-3.048861e-002 
-3.164559e-002 
-9.340098e-002 
-1.766702e-001 
-1.777419e-001 
-1.371244e-001 
-1.360391e-001 
-1.555823e-001 
-1.777115e-001 
-2.038766e-001 
-2.324474e-001 
-2.553732e-001 
-2.749449e-001 
-2.959227e-001 
-3.111009e-001 
-3.149830e-001 
-3.121939e-001 
-3.090815e-001 
-3.018320e-001 
-2.873620e-001 
-2.676386e-001 
-2.477760e-001 
-2.238550e-001 
-1.892327e-001 
-1.520001e-001 
-1.209156e-001 
-9.012301e-002 
-5.545134e-002 
-2.293159e-002 
8.010894e-003 
3.394939e-002 
5.944498e-002 
8.254836e-002 
9.315217e-002 
9.859335e-002 
1.081520e-001 
1.147265e-001 
1.162011e-001 
1.154508e-001 
1.127004e-001 
1.122734e-001 
1.066573e-001 
1.000896e-001 
1.037718e-001 
1.115343e-001 
1.144650e-001 
1.170873e-001 
1.200112e-001 
1.202453e-001 
1.136169e-001 
1.057270e-001 
1.082035e-001 
1.150231e-001 
1.149307e-001 
1.123354e-001 
1.108108e-001 
1.042450e-001 
9.278684e-002 
8.392550e-002 
8.574498e-002 
9.419914e-002 
1.087353e-001 
1.127954e-001 
8.561670e-002 
5.011181e-002 
2.795233e-002 
5.179990e-002 
9.602608e-002 
5.981318e-002 
4.836313e-003 
-1.953056e-003 
-3.037122e-002 
-7.180560e-002 
-7.225944e-002 
-3.298911e-002 
3.128486e-002 
-7.508872e-003 
-1.263535e-001 
-1.249128e-001 
-7.457958e-002 
-7.509317e-002 
-7.129676e-002 
-4.933080e-002 
-3.396704e-002 
-5.329855e-002 
-1.161216e-001 
-1.184673e-001 
-5.499786e-002 
-3.228646e-002 
-4.880404e-002 
-7.310735e-002 
-9.305044e-002 
-1.133245e-001 
-1.369572e-001 
-1.586175e-001 
-1.738931e-001 
-1.857491e-001 
-1.974429e-001 
-2.054071e-001 
-2.051581e-001 
-1.984043e-001 
-1.904522e-001 
-1.793045e-001 
-1.637065e-001 
-1.426616e-001 
-1.188700e-001 
-9.378243e-002 
-6.622015e-002 
-3.570940e-002 
-6.490549e-003 
2.073043e-002 
4.718239e-002 
7.204483e-002 
9.455394e-002 
1.115190e-001 
1.236005e-001 
1.347648e-001 
1.437768e-001 
1.463955e-001 
1.465377e-001 
1.457975e-001 
1.438089e-001 
1.409867e-001 
1.388303e-001 
1.418279e-001 
1.486756e-001 
1.537727e-001 
1.579446e-001 
1.597868e-001 
1.552400e-001 
1.485854e-001 
1.447553e-001 
1.463923e-001 
1.515441e-001 
1.528069e-001 
1.517019e-001 
1.478408e-001 
1.351901e-001 
1.231187e-001 
1.206207e-001 
1.239203e-001 
1.398680e-001 
1.522105e-001 
1.284336e-001 
8.771426e-002 
5.386761e-002 
6.482451e-002 
9.150288e-002 
4.268177e-002 
-1.188296e-002 
-9.508631e-003 
-2.658468e-002 
-6.961864e-002 
-8.317079e-002 
-4.922177e-002 
1.077336e-002 
-3.451831e-002 
-1.370712e-001 
-1.182751e-001 
-6.422091e-002 
-6.629930e-002 
-6.672621e-002 
-4.573652e-002 
-2.291023e-002 
-3.176725e-002 
-7.779615e-002 
-6.553993e-002 
-4.190487e-003 
1.502528e-002 
-5.291501e-004 
-2.336401e-002 
-4.474834e-002 
-6.506794e-002 
-8.641482e-002 
-1.083810e-001 
-1.255830e-001 
-1.356592e-001 
-1.443375e-001 
-1.505032e-001 
-1.508889e-001 
-1.459539e-001 
-1.383188e-001 
-1.279739e-001 
-1.128983e-001 
-9.038011e-002 
-6.621798e-002 
-4.358006e-002 
-1.703188e-002 
1.176091e-002 
3.809153e-002 
6.221578e-002 
8.728126e-002 
1.130666e-001 
1.353077e-001 
1.495271e-001 
1.605571e-001 
1.726366e-001 
1.792992e-001 
1.797893e-001 
1.799018e-001 
1.814704e-001 
1.798916e-001 
1.739374e-001 
1.697295e-001 
1.709263e-001 
1.734058e-001 
1.756116e-001 
1.804929e-001 
1.857572e-001 
1.856675e-001 
1.784252e-001 
1.720628e-001 
1.720491e-001 
1.737532e-001 
1.755995e-001 
1.779014e-001 
1.762017e-001 
1.681539e-001 
1.563572e-001 
1.494191e-001 
1.493550e-001 
1.516013e-001 
1.636680e-001 
1.746279e-001 
1.517323e-001 
9.053100e-002 
4.406329e-002 
6.735978e-002 
1.220810e-001 
9.093826e-002 
2.698272e-002 
1.944033e-002 
3.720282e-003 
-5.386969e-002 
-9.187835e-002 
-4.056300e-002 
5.206266e-002 
2.293522e-002 
-1.087495e-001 
-1.203058e-001 
-6.511368e-002 
-6.575699e-002 
-7.338312e-002 
-4.200633e-002 
-7.305631e-004 
-1.509220e-002 
-8.612786e-002 
-1.010145e-001 
-4.287743e-002 
-2.295282e-002 
-4.055018e-002 
-6.277416e-002 
-8.664822e-002 
-1.132732e-001 
-1.401466e-001 
-1.626389e-001 
-1.810110e-001 
-1.978945e-001 
-2.108306e-001 
-2.170927e-001 
-2.189878e-001 
-2.176321e-001 
-2.103134e-001 
-1.967741e-001 
-1.779255e-001 
-1.569020e-001 
-1.343710e-001 
-1.073891e-001 
-7.648106e-002 
-4.552958e-002 
-1.367819e-002 
1.924147e-002 
5.060282e-002 
7.853933e-002 
1.000933e-001 
1.203041e-001 
1.390162e-001 
1.514373e-001 
1.579735e-001 
1.621540e-001 
1.649371e-001 
1.643503e-001 
1.601268e-001 
1.577752e-001 
1.606558e-001 
1.623653e-001 
1.645567e-001 
1.688800e-001 
1.712859e-001 
1.677139e-001 
1.587266e-001 
1.529352e-001 
1.533083e-001 
1.564914e-001 
1.574562e-001 
1.576030e-001 
1.543108e-001 
1.431645e-001 
1.304968e-001 
1.255032e-001 
1.262184e-001 
1.314010e-001 
1.459844e-001 
1.434666e-001 
9.990400e-002 
5.453017e-002 
4.282849e-002 
9.175480e-002 
1.507396e-001 
1.145757e-001 
5.725114e-002 
4.075820e-002 
-4.607485e-003 
-5.540490e-002 
-4.305615e-002 
1.748601e-002 
8.238801e-002 
2.099572e-002 
-1.155739e-001 
-1.237488e-001 
-8.091005e-002 
-8.392914e-002 
-7.517483e-002 
-4.825921e-002 
-4.572834e-002 
-9.247027e-002 
-1.787286e-001 
-1.934944e-001 
-1.395778e-001 
-1.259143e-001 
-1.483331e-001 
-1.736473e-001 
-1.962769e-001 
-2.218903e-001 
-2.473092e-001 
-2.686343e-001 
-2.838210e-001 
-2.976274e-001 
-3.091309e-001 
-3.108153e-001 
-3.053405e-001 
-2.980429e-001 
-2.868928e-001 
-2.692425e-001 
-2.466451e-001 
-2.219833e-001 
-1.969918e-001 
-1.651024e-001 
-1.296907e-001 
-9.886133e-002 
-6.931635e-002 
-3.757216e-002 
-7.423704e-003 
1.892743e-002 
4.123100e-002 
6.239163e-002 
8.037373e-002 
8.673126e-002 
8.761621e-002 
9.134402e-002 
9.460610e-002 
9.321496e-002 
9.074859e-002 
9.211729e-002 
9.741182e-002 
9.950800e-002 
1.007770e-001 
1.084033e-001 
1.130883e-001 
1.071168e-001 
9.836647e-002 
9.670128e-002 
1.003375e-001 
1.033920e-001 
1.018616e-001 
1.021464e-001 
1.005119e-001 
8.931902e-002 
7.944220e-002 
8.107272e-002 
8.662805e-002 
9.736808e-002 
1.105205e-001 
1.038535e-001 
6.577425e-002 
2.617257e-002 
2.154774e-002 
6.305925e-002 
5.093039e-002 
-2.026122e-002 
-4.677019e-002 
-5.239559e-002 
-9.027985e-002 
-1.275269e-001 
-1.102825e-001 
-4.659940e-002 
-3.485817e-002 
-1.450823e-001 
-1.906009e-001 
-1.341722e-001 
-1.103809e-001 
-1.203501e-001 
-1.082968e-001 
-7.901064e-002 
-7.146347e-002 
-1.127845e-001 
-1.367354e-001 
-7.803052e-002 
-3.194291e-002 
-3.564125e-002 
-5.506953e-002 
-7.376436e-002 
-9.102765e-002 
-1.118289e-001 
-1.341034e-001 
-1.519366e-001 
-1.668052e-001 
-1.820235e-001 
-1.911783e-001 
-1.931009e-001 
-1.920264e-001 
-1.894741e-001 
-1.850130e-001 
-1.738258e-001 
-1.569993e-001 
-1.404560e-001 
-1.230927e-001 
-9.990751e-002 
-7.619949e-002 
-5.566697e-002 
-3.529049e-002 
-1.170635e-002 
1.340854e-002 
3.341062e-002 
4.722611e-002 
6.043547e-002 
7.219414e-002 
7.672783e-002 
7.689931e-002 
7.779451e-002 
7.990469e-002 
7.886417e-002 
7.330277e-002 
7.205336e-002 
7.573160e-002 
7.730117e-002 
7.803915e-002 
7.792067e-002 
7.581247e-002 
7.153495e-002 
6.445359e-002 
6.153591e-002 
6.549815e-002 
6.487231e-002 
6.048879e-002 
5.779383e-002 
5.134566e-002 
4.441891e-002 
4.030604e-002 
4.125673e-002 
5.636017e-002 
6.953483e-002 
4.652571e-002 
1.617668e-003 
-2.832738e-002 
-1.084140e-002 
1.150896e-002 
-3.742898e-002 
-9.153051e-002 
-9.284653e-002 
-1.073678e-001 
-1.528891e-001 
-1.699162e-001 
-1.258431e-001 
-6.576730e-002 
-1.143225e-001 
-2.129426e-001 
-1.989142e-001 
-1.453281e-001 
-1.422703e-001 
-1.427063e-001 
-1.191710e-001 
-9.244732e-002 
-1.035840e-001 
-1.488862e-001 
-1.366630e-001 
-7.594047e-002 
-5.197712e-002 
-6.581669e-002 
-9.148351e-002 
-1.152767e-001 
-1.341315e-001 
-1.537492e-001 
-1.763624e-001 
-1.949747e-001 
-2.037676e-001 
-2.114930e-001 
-2.211595e-001 
-2.234288e-001 
-2.183829e-001 
-2.099801e-001 
-2.009894e-001 
-1.883820e-001 
-1.663676e-001 
-1.424976e-001 
-1.221932e-001 
-9.841670e-002 
-7.038447e-002 
-4.292312e-002 
-1.856556e-002 
4.680185e-003 
3.207334e-002 
5.450559e-002 
6.846509e-002 
8.168954e-002 
9.315651e-002 
1.006045e-001 
1.024895e-001 
1.015309e-001 
1.038131e-001 
1.058266e-001 
9.993626e-002 
9.752276e-002 
1.025443e-001 
1.071936e-001 
1.091437e-001 
1.121482e-001 
1.139345e-001 
1.117681e-001 
1.048502e-001 
9.817746e-002 
1.014704e-001 
1.069988e-001 
1.058721e-001 
1.035280e-001 
9.939473e-002 
8.969247e-002 
8.202995e-002 
7.740693e-002 
7.811316e-002 
8.957516e-002 
1.007483e-001 
8.756709e-002 
3.466152e-002 
-7.965154e-003 
1.150350e-002 
6.907292e-002 
4.640496e-002 
-1.921530e-002 
-3.209837e-002 
-3.937958e-002 
-9.056452e-002 
-1.339914e-001 
-8.935746e-002 
-1.825581e-003 
-1.711181e-002 
-1.500422e-001 
-1.753983e-001 
-1.213871e-001 
-1.166885e-001 
-1.314368e-001 
-1.101401e-001 
-7.748747e-002 
-9.248088e-002 
-1.639559e-001 
-1.960986e-001 
-1.464161e-001 
-1.249919e-001 
-1.407487e-001 
-1.662909e-001 
-1.917614e-001 
-2.154592e-001 
-2.376898e-001 
-2.609523e-001 
-2.812334e-001 
-2.927500e-001 
-2.968138e-001 
-2.968932e-001 
-2.933686e-001 
-2.814403e-001 
-2.660115e-001 
-2.483363e-001 
-2.268579e-001 
-1.996492e-001 
-1.657595e-001 
-1.320812e-001 
-1.005649e-001 
-6.548262e-002 
-3.025406e-002 
-5.555576e-004 
2.925819e-002 
5.775619e-002 
8.292307e-002 
1.027763e-001 
1.153511e-001 
1.254492e-001 
1.338947e-001 
1.370240e-001 
1.374178e-001 
1.390239e-001 
1.384686e-001 
1.368441e-001 
1.371592e-001 
1.411151e-001 
1.466352e-001 
1.476915e-001 
1.421100e-001 
1.353902e-001 
1.302313e-001 
1.250350e-001 
1.248277e-001 
1.276524e-001 
1.283625e-001 
1.228003e-001 
1.102553e-001 
9.941504e-002 
9.500465e-002 
9.197581e-002 
9.513598e-002 
1.099451e-001 
1.099982e-001 
6.909355e-002 
2.768933e-002 
1.673413e-002 
6.031180e-002 
1.044238e-001 
6.382449e-002 
1.740272e-002 
9.462240e-003 
-2.927106e-002 
-7.328670e-002 
-5.750500e-002 
-1.570792e-003 
5.598300e-002 
-7.441556e-003 
-1.207871e-001 
-1.119166e-001 
-7.243445e-002 
-7.627846e-002 
-6.160619e-002 
-3.324549e-002 
-3.223867e-002 
-7.333842e-002 
-1.421241e-001 
-1.399281e-001 
-9.157783e-002 
-8.408523e-002 
-1.018160e-001 
-1.235790e-001 
-1.489511e-001 
-1.729019e-001 
-1.916967e-001 
-2.080745e-001 
-2.247028e-001 
-2.365966e-001 
-2.403138e-001 
-2.382824e-001 
-2.337656e-001 
-2.223524e-001 
-2.041543e-001 
-1.869076e-001 
-1.673498e-001 
-1.417406e-001 
-1.100370e-001 
-7.807944e-002 
-4.531727e-002 
-1.245786e-002 
2.158058e-002 
4.964425e-002 
7.226097e-002 
9.699403e-002 
1.224826e-001 
1.432303e-001 
1.558101e-001 
1.630066e-001 
1.675940e-001 
1.691236e-001 
1.657104e-001 
1.642005e-001 
1.693334e-001 
1.774523e-001 
1.831046e-001 
1.863118e-001 
1.874077e-001 
1.878467e-001 
1.829434e-001 
1.776564e-001 
1.798112e-001 
1.859674e-001 
1.874591e-001 
1.874913e-001 
1.848278e-001 
1.756270e-001 
1.672248e-001 
1.611463e-001 
1.618185e-001 
1.722209e-001 
1.874592e-001 
1.853459e-001 
1.503900e-001 
1.087649e-001 
9.303865e-002 
1.273394e-001 
1.237725e-001 
6.150573e-002 
3.309915e-002 
3.014433e-002 
-4.536069e-003 
-4.323339e-002 
-3.452336e-002 
2.025794e-002 
4.694807e-002 
-4.522502e-002 
-1.005773e-001 
-5.694070e-002 
-2.959465e-002 
-3.698044e-002 
-2.733479e-002 
-1.752932e-003 
1.025164e-002 
-1.981149e-002 
-5.128879e-002 
-1.085000e-002 
3.561961e-002 
3.944431e-002 
1.804170e-002 
-4.305865e-003 
-2.275965e-002 
-4.112864e-002 
-6.357327e-002 
-8.865471e-002 
-1.048892e-001 
-1.145253e-001 
-1.261487e-001 
-1.319497e-001 
-1.285118e-001 
-1.226329e-001 
-1.168672e-001 
-1.098057e-001 
-9.498591e-002 
-7.195766e-002 
-5.034101e-002 
-2.836991e-002 
6.237133e-004 
3.154369e-002 
5.524961e-002 
7.633526e-002 
1.017154e-001 
1.285433e-001 
1.480819e-001 
1.600829e-001 
1.736968e-001 
1.877810e-001 
1.931012e-001 
1.925631e-001 
1.938986e-001 
1.961781e-001 
1.962088e-001 
1.942192e-001 
1.967904e-001 
2.055532e-001 
2.083572e-001 
2.048244e-001 
1.982070e-001 
1.897106e-001 
1.875353e-001 
1.902605e-001 
1.928223e-001 
1.953064e-001 
1.953501e-001 
1.863583e-001 
1.752508e-001 
1.653621e-001 
1.628447e-001 
1.690076e-001 
1.859247e-001 
1.901552e-001 
1.464276e-001 
9.604910e-002 
8.460546e-002 
1.348965e-001 
1.539473e-001 
9.061612e-002 
5.264025e-002 
5.885824e-002 
1.697363e-002 
-4.184830e-002 
-2.724145e-002 
4.902952e-002 
9.212871e-002 
-1.239787e-002 
-1.019420e-001 
-5.906936e-002 
-2.674160e-002 
-4.507592e-002 
-3.092226e-002 
4.688712e-003 
1.042058e-002 
-4.041756e-002 
-9.962943e-002 
-7.051742e-002 
-2.340314e-002 
-2.757031e-002 
-4.910528e-002 
-7.201387e-002 
-9.648801e-002 
-1.222489e-001 
-1.479145e-001 
-1.691792e-001 
-1.879555e-001 
-2.044208e-001 
-2.109879e-001 
-2.123176e-001 
-2.119549e-001 
-2.070439e-001 
-2.004507e-001 
-1.835317e-001 
-1.624627e-001 
-1.427799e-001 
-1.111218e-001 
-7.649198e-002 
-5.187650e-002 
-2.542360e-002 
6.340724e-003 
3.799131e-002 
6.708176e-002 
8.937538e-002 
1.144672e-001 
1.398224e-001 
1.482692e-001 
1.511221e-001 
1.619952e-001 
1.710729e-001 
1.690912e-001 
1.646171e-001 
1.655921e-001 
1.684361e-001 
1.664714e-001 
1.628234e-001 
1.672626e-001 
1.768591e-001 
1.797563e-001 
1.753218e-001 
1.731345e-001 
1.697339e-001 
1.629334e-001 
1.613795e-001 
1.617614e-001 
1.618832e-001 
1.595289e-001 
1.509807e-001 
1.404180e-001 
1.321353e-001 
1.235502e-001 
1.214589e-001 
1.341800e-001 
1.405784e-001 
1.106888e-001 
4.659387e-002 
7.634317e-003 
4.160023e-002 
1.061396e-001 
8.536996e-002 
2.655778e-002 
1.367377e-002 
-1.388517e-002 
-8.011789e-002 
-1.080281e-001 
-4.389347e-002 
4.890604e-002 
2.082511e-002 
-1.194711e-001 
-1.493950e-001 
-1.039537e-001 
-1.029576e-001 
-1.019486e-001 
-6.376994e-002 
-3.248969e-002 
-5.768415e-002 
-1.371736e-001 
-1.684108e-001 
-1.173908e-001 
-8.957392e-002 
-9.599907e-002 
-1.129902e-001 
-1.327111e-001 
-1.494018e-001 
-1.630893e-001 
-1.784841e-001 
-1.928581e-001 
-2.033374e-001 
-2.064554e-001 
-2.051881e-001 
-2.048150e-001 
-1.972615e-001 
-1.837558e-001 
-1.699531e-001 
-1.550569e-001 
-1.372243e-001 
-1.138881e-001 
-8.477466e-002 
-5.849193e-002 
-3.465413e-002 
-6.247745e-003 
2.034299e-002 
4.128557e-002 
6.061720e-002 
8.220099e-002 
1.031458e-001 
1.162156e-001 
1.208952e-001 
1.257728e-001 
1.318017e-001 
1.309405e-001 
1.287817e-001 
1.305505e-001 
1.325970e-001 
1.295855e-001 
1.252675e-001 
1.256700e-001 
1.307555e-001 
1.350831e-001 
1.334712e-001 
1.301970e-001 
1.257651e-001 
1.194725e-001 
1.151799e-001 
1.183399e-001 
1.213646e-001 
1.195792e-001 
1.127435e-001 
1.024060e-001 
9.417664e-002 
8.907534e-002 
8.783934e-002 
9.492084e-002 
1.046774e-001 
9.695497e-002 
5.558092e-002 
2.176625e-002 
2.469303e-002 
7.041755e-002 
9.843593e-002 
6.375572e-002 
3.009650e-002 
1.351320e-002 
-2.641731e-002 
-6.461091e-002 
-4.295240e-002 
1.344561e-002 
4.546058e-002 
-2.909361e-002 
-1.118787e-001 
-1.064011e-001 
-9.056218e-002 
-9.576014e-002 
-8.261511e-002 
-6.247275e-002 
-7.361615e-002 
-1.235461e-001 
-1.857113e-001 
-1.851059e-001 
-1.610933e-001 
-1.633817e-001 
-1.807189e-001 
-2.053728e-001 
-2.322344e-001 
-2.566386e-001 
-2.781346e-001 
-3.018562e-001 
-3.210490e-001 
-3.364273e-001 
-3.432315e-001 
-3.455262e-001 
-3.423177e-001 
-3.315849e-001 
-3.188692e-001 
-3.046798e-001 
-2.852840e-001 
-2.604244e-001 
-2.323839e-001 
-1.988963e-001 
-1.673566e-001 
-1.340578e-001 
-1.017401e-001 
-7.557293e-002 
-4.986579e-002 
-2.246613e-002 
1.836922e-003 
2.171671e-002 
3.752284e-002 
4.686201e-002 
5.391828e-002 
5.525856e-002 
5.085558e-002 
5.113477e-002 
5.264010e-002 
5.125660e-002 
5.414136e-002 
6.114088e-002 
6.575787e-002 
7.057352e-002 
6.995172e-002 
6.565513e-002 
6.386172e-002 
5.954989e-002 
5.800685e-002 
6.411373e-002 
6.675067e-002 
6.291666e-002 
5.777864e-002 
4.738930e-002 
4.191614e-002 
4.107893e-002 
3.989747e-002 
4.781509e-002 
6.676854e-002 
6.665285e-002 
2.407549e-002 
-1.605885e-002 
-1.844858e-002 
3.215868e-002 
4.298581e-002 
-1.901485e-002 
-4.850112e-002 
-4.472964e-002 
-8.258320e-002 
-1.270611e-001 
-1.059408e-001 
-3.824218e-002 
-6.365884e-003 
-1.087829e-001 
-1.820249e-001 
-1.379299e-001 
-1.085278e-001 
-1.211765e-001 
-1.086124e-001 
-7.975694e-002 
-7.548533e-002 
-1.204981e-001 
-1.689784e-001 
-1.327923e-001 
-8.842938e-002 
-8.843940e-002 
-1.083192e-001 
-1.340274e-001 
-1.578790e-001 
-1.767216e-001 
-1.979784e-001 
-2.184586e-001 
-2.351087e-001 
-2.442304e-001 
-2.470062e-001 
-2.490726e-001 
-2.482047e-001 
-2.385001e-001 
-2.233974e-001 
-2.091386e-001 
-1.908748e-001 
-1.653090e-001 
-1.346497e-001 
-1.060677e-001 
-7.488211e-002 
-4.295329e-002 
-1.040994e-002 
1.841268e-002 
4.235244e-002 
6.798945e-002 
9.216961e-002 
1.074043e-001 
1.197808e-001 
1.332305e-001 
1.386688e-001 
1.382988e-001 
1.366618e-001 
1.392138e-001 
1.411230e-001 
1.361584e-001 
1.318264e-001 
1.371332e-001 
1.451841e-001 
1.464005e-001 
1.480471e-001 
1.534163e-001 
1.550243e-001 
1.458429e-001 
1.374276e-001 
1.395149e-001 
1.480053e-001 
1.500459e-001 
1.441603e-001 
1.402626e-001 
1.354040e-001 
1.253177e-001 
1.156561e-001 
1.171043e-001 
1.283437e-001 
1.450670e-001 
1.435684e-001 
9.655982e-002 
4.855323e-002 
3.924812e-002 
8.525966e-002 
8.635277e-002 
2.300958e-002 
-1.280628e-003 
5.842783e-003 
-3.357436e-002 
-8.993976e-002 
-7.417504e-002 
4.330095e-003 
3.697348e-002 
-7.480121e-002 
-1.321722e-001 
-7.784854e-002 
-5.342269e-002 
-7.272146e-002 
-6.060743e-002 
-2.065312e-002 
-7.419180e-003 
-5.593001e-002 
-9.785166e-002 
-5.112091e-002 
-1.276874e-002 
-1.980864e-002 
-4.367967e-002 
-6.771135e-002 
-8.933100e-002 
-1.136179e-001 
-1.393851e-001 
-1.599365e-001 
-1.776522e-001 
-1.927056e-001 
-2.014413e-001 
-2.036844e-001 
-1.988164e-001 
-1.918014e-001 
-1.834695e-001 
-1.682510e-001 
-1.464629e-001 
-1.242923e-001 
-1.001698e-001 
-6.995985e-002 
-3.465204e-002 
-1.973548e-003 
2.596669e-002 
5.520634e-002 
8.529330e-002 
1.119907e-001 
1.348024e-001 
1.530006e-001 
1.674185e-001 
1.811832e-001 
1.850690e-001 
1.822968e-001 
1.827228e-001 
1.843165e-001 
1.853498e-001 
1.842955e-001 
1.788707e-001 
1.786772e-001 
1.798939e-001 
1.745710e-001 
1.754471e-001 
1.820571e-001 
1.874954e-001 
1.887722e-001 
1.834627e-001 
1.751980e-001 
1.693812e-001 
1.641151e-001 
1.652239e-001 
1.705015e-001 
1.704119e-001 
1.650046e-001 
1.544064e-001 
1.436375e-001 
1.332548e-001 
1.284739e-001 
1.343719e-001 
1.534223e-001 
1.528409e-001 
9.647336e-002 
3.880675e-002 
3.066758e-002 
8.687803e-002 
1.102473e-001 
5.483744e-002 
1.962999e-002 
1.958620e-002 
-3.099073e-002 
-9.519229e-002 
-7.558426e-002 
8.583392e-003 
6.016850e-002 
-4.067438e-002 
-1.343689e-001 
-1.023096e-001 
-7.074847e-002 
-8.558236e-002 
-6.959375e-002 
-2.988508e-002 
-2.059850e-002 
-7.277840e-002 
-1.421462e-001 
-1.227343e-001 
-7.619225e-002 
-7.578026e-002 
-1.024705e-001 
-1.290866e-001 
-1.535555e-001 
-1.769799e-001 
-2.046402e-001 
-2.327003e-001 
-2.537131e-001 
-2.676282e-001 
-2.798950e-001 
-2.860017e-001 
-2.821330e-001 
-2.721225e-001 
-2.585054e-001 
-2.441888e-001 
-2.229982e-001 
-1.943038e-001 
-1.626881e-001 
-1.311087e-001 
-9.623569e-002 
-5.963282e-002 
-2.178932e-002 
1.108382e-002 
4.338271e-002 
7.783922e-002 
1.088255e-001 
1.330578e-001 
1.498175e-001 
1.636070e-001 
1.751237e-001 
1.791705e-001 
1.790671e-001 
1.837893e-001 
1.836798e-001 
1.816334e-001 
1.788283e-001 
1.762939e-001 
1.763149e-001 
1.760703e-001 
1.753920e-001 
1.812388e-001 
1.862468e-001 
1.851499e-001 
1.835138e-001 
1.782710e-001 
1.736264e-001 
1.682430e-001 
1.653407e-001 
1.688373e-001 
1.705367e-001 
1.662157e-001 
1.594293e-001 
1.501198e-001 
1.433913e-001 
1.383752e-001 
1.354236e-001 
1.420650e-001 
1.574015e-001 
1.498632e-001 
9.143326e-002 
3.537709e-002 
3.192051e-002 
9.701397e-002 
1.505622e-001 
1.106534e-001 
6.392517e-002 
5.264474e-002 
-2.904863e-003 
-6.492735e-002 
-3.899303e-002 
4.992014e-002 
1.144312e-001 
2.753608e-002 
-9.984598e-002 
-9.416431e-002 
-6.011583e-002 
-6.752528e-002 
-4.598396e-002 
-7.311549e-003 
-8.340228e-003 
-7.109763e-002 
-1.595799e-001 
-1.666960e-001 
-1.253657e-001 
-1.241103e-001 
-1.504156e-001 
-1.854904e-001 
-2.187415e-001 
-2.454234e-001 
-2.683240e-001 
-2.931128e-001 
-3.179366e-001 
-3.365025e-001 
-3.491288e-001 
-3.546632e-001 
-3.501409e-001 
-3.350687e-001 
-3.153532e-001 
-2.925751e-001 
-2.681976e-001 
-2.385893e-001 
-2.025987e-001 
-1.628003e-001 
-1.178430e-001 
-7.118033e-002 
-2.731081e-002 
1.347283e-002 
4.960197e-002 
8.300753e-002 
1.167920e-001 
1.438495e-001 
1.645176e-001 
1.846956e-001 
1.969902e-001 
2.007581e-001 
2.009337e-001 
2.014481e-001 
2.057747e-001 
2.064313e-001 
2.029370e-001 
2.040348e-001 
2.040050e-001 
1.978261e-001 
1.930222e-001 
1.955934e-001 
2.015419e-001 
2.035536e-001 
2.040220e-001 
2.037981e-001 
2.008187e-001 
1.936061e-001 
1.864990e-001 
1.847544e-001 
1.895549e-001 
1.877029e-001 
1.811786e-001 
1.765187e-001 
1.670288e-001 
1.562536e-001 
1.479727e-001 
1.435879e-001 
1.481710e-001 
1.582037e-001 
1.482115e-001 
1.013684e-001 
6.032329e-002 
5.657399e-002 
1.112390e-001 
1.525392e-001 
1.096239e-001 
6.595019e-002 
5.261426e-002 
7.958768e-003 
-3.889798e-002 
-1.872354e-002 
4.998793e-002 
1.018316e-001 
1.433856e-002 
-9.688775e-002 
-8.740082e-002 
-5.749229e-002 
-6.426368e-002 
-5.305628e-002 
-2.820666e-002 
-3.115969e-002 
-8.959511e-002 
-1.721361e-001 
-1.713719e-001 
-1.306798e-001 
-1.272917e-001 
-1.529597e-001 
-1.822467e-001 
-2.040970e-001 
-2.245504e-001 
-2.488014e-001 
-2.692703e-001 
-2.812850e-001 
-2.887664e-001 
-2.956024e-001 
-2.979167e-001 
-2.865231e-001 
-2.705675e-001 
-2.547903e-001 
-2.363261e-001 
-2.104384e-001 
-1.774284e-001 
-1.468212e-001 
-1.158247e-001 
-7.765218e-002 
-3.900277e-002 
-5.590699e-003 
2.523815e-002 
5.463186e-002 
8.396279e-002 
1.080430e-001 
1.226758e-001 
1.384381e-001 
1.500283e-001 
1.527247e-001 
1.514901e-001 
1.526824e-001 
1.552814e-001 
1.552284e-001 
1.509862e-001 
1.515771e-001 
1.533103e-001 
1.449246e-001 
1.412091e-001 
1.460423e-001 
1.579006e-001 
1.661581e-001 
1.631783e-001 
1.567701e-001 
1.534828e-001 
1.435092e-001 
1.401065e-001 
1.492973e-001 
1.545148e-001 
1.544366e-001 
1.430965e-001 
1.257445e-001 
1.177177e-001 
1.141034e-001 
1.115357e-001 
1.230988e-001 
1.368539e-001 
1.271806e-001 
7.810762e-002 
3.312316e-002 
3.121869e-002 
8.343128e-002 
9.996544e-002 
4.238252e-002 
4.574102e-003 
-7.868020e-003 
-5.333681e-002 
-9.617636e-002 
-7.047543e-002 
-1.759560e-003 
3.212635e-002 
-6.681284e-002 
-1.515411e-001 
-1.209427e-001 
-9.179606e-002 
-9.783623e-002 
-7.876101e-002 
-4.672033e-002 
-4.795445e-002 
-9.749633e-002 
-1.522304e-001 
-1.227853e-001 
-7.544923e-002 
-7.075717e-002 
-8.882034e-002 
-1.126080e-001 
-1.399827e-001 
-1.653650e-001 
-1.857515e-001 
-2.090821e-001 
-2.293140e-001 
-2.434506e-001 
-2.496161e-001 
-2.554964e-001 
-2.579082e-001 
-2.530406e-001 
-2.394672e-001 
-2.252957e-001 
-2.107757e-001 
-1.855301e-001 
-1.563580e-001 
-1.287327e-001 
-9.929088e-002 
-6.518116e-002 
-3.239152e-002 
-1.622280e-004 
2.926133e-002 
5.783612e-002 
8.554714e-002 
1.051073e-001 
1.207450e-001 
1.350133e-001 
1.421670e-001 
1.443457e-001 
1.473742e-001 
1.472099e-001 
1.470870e-001 
1.481357e-001 
1.457175e-001 
1.442757e-001 
1.438918e-001 
1.433324e-001 
1.445722e-001 
1.484629e-001 
1.558859e-001 
1.615409e-001 
1.558976e-001 
1.473671e-001 
1.437816e-001 
1.428328e-001 
1.448921e-001 
1.458102e-001 
1.467377e-001 
1.456930e-001 
1.338368e-001 
1.217990e-001 
1.189912e-001 
1.169408e-001 
1.206589e-001 
1.361451e-001 
1.326961e-001 
7.992458e-002 
2.607867e-002 
2.223855e-002 
7.585325e-002 
7.490740e-002 
4.297248e-003 
-2.348693e-002 
-1.955015e-002 
-6.767125e-002 
-1.265236e-001 
-1.023112e-001 
-1.855241e-002 
3.656364e-003 
-1.165717e-001 
-1.798498e-001 
-1.301000e-001 
-1.061543e-001 
-1.244552e-001 
-1.090887e-001 
-6.878648e-002 
-6.209941e-002 
-1.203165e-001 
-1.692383e-001 
-1.289997e-001 
-9.025025e-002 
-9.557167e-002 
-1.214578e-001 
-1.474655e-001 
-1.708086e-001 
-1.969177e-001 
-2.249272e-001 
-2.470516e-001 
-2.660970e-001 
-2.774819e-001 
-2.845122e-001 
-2.884371e-001 
-2.872583e-001 
-2.821888e-001 
-2.695428e-001 
-2.498161e-001 
-2.298888e-001 
-2.047428e-001 
-1.728308e-001 
-1.420258e-001 
-1.094346e-001 
-7.714998e-002 
-4.290308e-002 
-7.418443e-003 
2.346942e-002 
4.850170e-002 
7.352992e-002 
9.559688e-002 
1.113178e-001 
1.234969e-001 
1.326194e-001 
1.356724e-001 
1.364775e-001 
1.352389e-001 
1.322613e-001 
1.338445e-001 
1.339601e-001 
1.300485e-001 
1.295722e-001 
1.290906e-001 
1.272240e-001 
1.281423e-001 
1.316829e-001 
1.409238e-001 
1.434100e-001 
1.340344e-001 
1.263648e-001 
1.222702e-001 
1.172179e-001 
1.170811e-001 
1.181664e-001 
1.201183e-001 
1.182286e-001 
1.042535e-001 
9.321266e-002 
8.986101e-002 
8.630617e-002 
8.667534e-002 
1.004745e-001 
1.048063e-001 
6.895511e-002 
5.346592e-003 
-2.840094e-002 
1.365418e-002 
7.914501e-002 
5.609991e-002 
-1.032158e-003 
-1.217054e-002 
-4.328116e-002 
-1.114824e-001 
-1.329606e-001 
-6.186338e-002 
3.023267e-002 
-7.980841e-003 
-1.461808e-001 
-1.707686e-001 
-1.256317e-001 
-1.274431e-001 
-1.261571e-001 
-8.279878e-002 
-5.080743e-002 
-8.668377e-002 
-1.738024e-001 
-2.022239e-001 
-1.533100e-001 
-1.349495e-001 
-1.522736e-001 
-1.760606e-001 
-2.017553e-001 
-2.309147e-001 
-2.591012e-001 
-2.836989e-001 
-3.053891e-001 
-3.244136e-001 
-3.375271e-001 
-3.415880e-001 
-3.427689e-001 
-3.362356e-001 
-3.239822e-001 
-3.081870e-001 
-2.892996e-001 
-2.655446e-001 
-2.337946e-001 
-1.963938e-001 
-1.609598e-001 
-1.243333e-001 
-8.376141e-002 
-4.717193e-002 
-1.468499e-002 
1.705507e-002 
5.116371e-002 
8.131028e-002 
1.013934e-001 
1.138689e-001 
1.260222e-001 
1.350125e-001 
1.363602e-001 
1.362553e-001 
1.389941e-001 
1.427630e-001 
1.423007e-001 
1.383159e-001 
1.349573e-001 
1.341445e-001 
1.328769e-001 
1.301403e-001 
1.295403e-001 
1.311869e-001 
1.333704e-001 
1.327569e-001 
1.351477e-001 
1.404137e-001 
1.397385e-001 
1.335432e-001 
1.266839e-001 
1.256625e-001 
1.267134e-001 
1.267967e-001 
1.269006e-001 
1.291005e-001 
1.224888e-001 
1.091126e-001 
1.022135e-001 
1.018167e-001 
1.035971e-001 
1.062511e-001 
1.180916e-001 
1.120131e-001 
5.152400e-002 
-5.495219e-003 
3.507109e-004 
7.483983e-002 
1.301696e-001 
8.948710e-002 
4.348116e-002 
3.103463e-002 
-2.440743e-002 
-8.491023e-002 
-5.213126e-002 
4.212032e-002 
1.026583e-001 
1.085228e-002 
-1.116118e-001 
-1.037000e-001 
-7.157559e-002 
-8.018579e-002 
-6.051285e-002 
-1.992220e-002 
-2.197022e-002 
-9.128491e-002 
-1.840445e-001 
-1.894947e-001 
-1.507974e-001 
-1.557864e-001 
-1.838152e-001 
-2.126902e-001 
-2.435492e-001 
-2.744794e-001 
-3.019661e-001 
-3.292671e-001 
-3.547605e-001 
-3.761032e-001 
-3.884392e-001 
-3.902262e-001 
-3.888378e-001 
-3.808300e-001 
-3.625010e-001 
-3.399282e-001 
-3.167634e-001 
-2.894839e-001 
-2.551178e-001 
-2.137890e-001 
-1.734080e-001 
-1.336871e-001 
-9.044943e-002 
-5.011838e-002 
-1.624984e-002 
1.303121e-002 
4.399947e-002 
7.467514e-002 
9.609258e-002 
1.066362e-001 
1.144868e-001 
1.224010e-001 
1.241233e-001 
1.225909e-001 
1.234232e-001 
1.257522e-001 
1.222259e-001 
1.165427e-001 
1.161993e-001 
1.183369e-001 
1.197999e-001 
1.204760e-001 
1.245423e-001 
1.309883e-001 
1.313314e-001 
1.243632e-001 
1.201112e-001 
1.178161e-001 
1.121938e-001 
1.098037e-001 
1.109986e-001 
1.129736e-001 
1.081812e-001 
9.468305e-002 
8.534520e-002 
8.395189e-002 
8.253991e-002 
8.416462e-002 
9.849252e-002 
9.921931e-002 
5.724242e-002 
9.573063e-003 
1.093876e-003 
5.870467e-002 
9.419049e-002 
4.099735e-002 
-3.171652e-004 
-4.133634e-003 
-4.490140e-002 
-9.132766e-002 
-7.573556e-002 
-5.734041e-003 
4.746022e-002 
-4.285260e-002 
-1.458393e-001 
-1.212654e-001 
-8.908276e-002 
-9.782508e-002 
-8.191141e-002 
-5.209457e-002 
-4.801655e-002 
-9.569546e-002 
-1.634384e-001 
-1.508459e-001 
-1.058599e-001 
-1.026087e-001 
-1.201260e-001 
-1.413125e-001 
-1.655043e-001 
-1.890826e-001 
-2.085432e-001 
-2.290161e-001 
-2.468006e-001 
-2.554911e-001 
-2.545098e-001 
-2.518852e-001 
-2.480046e-001 
-2.382027e-001 
-2.230516e-001 
-2.032796e-001 
-1.820839e-001 
-1.534128e-001 
-1.187737e-001 
-8.580944e-002 
-5.861331e-002 
-2.702359e-002 
8.866343e-003 
4.206770e-002 
6.875362e-002 
9.352446e-002 
1.179021e-001 
1.333176e-001 
1.422454e-001 
1.482007e-001 
1.563510e-001 
1.630971e-001 
1.624507e-001 
1.581250e-001 
1.578887e-001 
1.569465e-001 
1.542572e-001 
1.537058e-001 
1.568124e-001 
1.646113e-001 
1.704752e-001 
1.739863e-001 
1.780800e-001 
1.801502e-001 
1.788592e-001 
1.758432e-001 
1.745889e-001 
1.788453e-001 
1.817052e-001 
1.807229e-001 
1.786057e-001 
1.713846e-001 
1.629118e-001 
1.578643e-001 
1.537050e-001 
1.533572e-001 
1.600756e-001 
1.706286e-001 
1.691400e-001 
1.325189e-001 
8.866396e-002 
7.670952e-002 
1.085958e-001 
9.509381e-002 
2.653146e-002 
-2.210075e-003 
-1.913039e-003 
-3.291574e-002 
-7.523077e-002 
-6.882329e-002 
-9.920171e-003 
1.205522e-002 
-8.866242e-002 
-1.391905e-001 
-8.607358e-002 
-6.013089e-002 
-7.401747e-002 
-6.668100e-002 
-3.596505e-002 
-1.972946e-002 
-5.264468e-002 
-8.129527e-002 
-2.935234e-002 
1.870395e-002 
1.461422e-002 
-8.297552e-003 
-2.780539e-002 
-4.760063e-002 
-7.286736e-002 
-9.735570e-002 
-1.178303e-001 
-1.317401e-001 
-1.432387e-001 
-1.545057e-001 
-1.555956e-001 
-1.521531e-001 
-1.517364e-001 
-1.461295e-001 
-1.305224e-001 
-1.126760e-001 
-9.281965e-002 
-7.078338e-002 
-4.405570e-002 
-1.361048e-002 
1.016400e-002 
3.511089e-002 
6.712307e-002 
9.830705e-002 
1.199129e-001 
1.382178e-001 
1.575368e-001 
1.728554e-001 
1.790928e-001 
1.808996e-001 
1.888128e-001 
1.939927e-001 
1.893216e-001 
1.822691e-001 
1.828516e-001 
1.835521e-001 
1.797450e-001 
1.780825e-001 
1.844032e-001 
1.924645e-001 
1.914902e-001 
1.862590e-001 
1.855259e-001 
1.841387e-001 
1.758912e-001 
1.717968e-001 
1.759012e-001 
1.790255e-001 
1.746900e-001 
1.651279e-001 
1.571871e-001 
1.530356e-001 
1.474662e-001 
1.424483e-001 
1.530145e-001 
1.687812e-001 
1.518423e-001 
8.776743e-002 
3.723333e-002 
5.231071e-002 
1.158106e-001 
1.102220e-001 
4.605535e-002 
3.035176e-002 
2.159611e-002 
-3.857043e-002 
-8.846506e-002 
-4.202034e-002 
5.513630e-002 
5.942640e-002 
-7.212071e-002 
-1.217959e-001 
-7.285107e-002 
-6.337111e-002 
-7.508807e-002 
-4.627682e-002 
-5.254508e-003 
-1.783921e-002 
-9.072378e-002 
-1.336548e-001 
-9.185715e-002 
-6.429641e-002 
-7.720965e-002 
-1.031974e-001 
-1.317590e-001 
-1.638050e-001 
-1.922676e-001 
-2.147318e-001 
-2.399394e-001 
-2.627230e-001 
-2.754526e-001 
-2.830888e-001 
-2.869654e-001 
-2.859715e-001 
-2.796404e-001 
-2.627555e-001 
-2.415108e-001 
-2.198064e-001 
-1.922460e-001 
-1.597967e-001 
-1.272272e-001 
-9.380409e-002 
-5.884120e-002 
-2.211129e-002 
1.494870e-002 
4.719296e-002 
7.466033e-002 
1.000715e-001 
1.217467e-001 
1.371132e-001 
1.490246e-001 
1.560358e-001 
1.575306e-001 
1.578072e-001 
1.565510e-001 
1.549508e-001 
1.540368e-001 
1.527555e-001 
1.514798e-001 
1.516196e-001 
1.510596e-001 
1.543450e-001 
1.607286e-001 
1.601844e-001 
1.537326e-001 
1.472835e-001 
1.427585e-001 
1.408535e-001 
1.439082e-001 
1.469707e-001 
1.473612e-001 
1.424121e-001 
1.312145e-001 
1.211360e-001 
1.188713e-001 
1.194062e-001 
1.257120e-001 
1.423561e-001 
1.367468e-001 
7.724507e-002 
2.142233e-002 
1.823971e-002 
8.375480e-002 
1.259208e-001 
7.521964e-002 
3.341980e-002 
2.589828e-002 
-2.997036e-002 
-9.518430e-002 
-6.900863e-002 
2.172554e-002 
7.728225e-002 
-2.468461e-002 
-1.374136e-001 
-1.178019e-001 
-8.681199e-002 
-1.021342e-001 
-8.431244e-002 
-4.137806e-002 
-3.960698e-002 
-1.061432e-001 
-1.923160e-001 
-1.883701e-001 
-1.463325e-001 
-1.519423e-001 
-1.864220e-001 
-2.171170e-001 
-2.476638e-001 
-2.817864e-001 
-3.137801e-001 
-3.425848e-001 
-3.664736e-001 
-3.850981e-001 
-4.017440e-001 
-4.069815e-001 
-4.012889e-001 
-3.939160e-001 
-3.803280e-001 
-3.566804e-001 
-3.298908e-001 
-3.000605e-001 
-2.650977e-001 
-2.237523e-001 
-1.775187e-001 
-1.353698e-001 
-9.418339e-002 
-4.910778e-002 
-7.636808e-003 
2.783639e-002 
6.000254e-002 
8.921056e-002 
1.131114e-001 
1.283417e-001 
1.361196e-001 
1.459254e-001 
1.525235e-001 
1.531232e-001 
1.517438e-001 
1.500331e-001 
1.487725e-001 
1.472729e-001 
1.492496e-001 
1.539621e-001 
1.597359e-001 
1.593705e-001 
1.542356e-001 
1.459022e-001 
1.406266e-001 
1.382475e-001 
1.394430e-001 
1.426796e-001 
1.413399e-001 
1.375085e-001 
1.304890e-001 
1.204501e-001 
1.139052e-001 
1.144138e-001 
1.181538e-001 
1.320151e-001 
1.335259e-001 
9.334091e-002 
5.373735e-002 
5.424362e-002 
1.115755e-001 
1.459397e-001 
9.832882e-002 
5.660226e-002 
5.034139e-002 
8.912530e-003 
-4.278640e-002 
-2.494713e-002 
5.047147e-002 
9.444744e-002 
-2.023197e-003 
-1.031511e-001 
-8.720994e-002 
-6.239005e-002 
-7.615900e-002 
-6.536693e-002 
-3.541686e-002 
-4.101045e-002 
-1.063643e-001 
-1.810878e-001 
-1.730771e-001 
-1.385633e-001 
-1.406901e-001 
-1.609715e-001 
-1.840013e-001 
-2.105628e-001 
-2.401450e-001 
-2.635968e-001 
-2.833923e-001 
-3.027236e-001 
-3.161827e-001 
-3.190651e-001 
-3.168862e-001 
-3.092579e-001 
-2.975394e-001 
-2.822444e-001 
-2.602821e-001 
-2.357313e-001 
-2.070245e-001 
-1.722183e-001 
-1.364504e-001 
-9.957750e-002 
-6.099133e-002 
-2.619021e-002 
5.848168e-003 
3.578591e-002 
6.274703e-002 
8.695479e-002 
1.046730e-001 
1.166811e-001 
1.271445e-001 
1.337729e-001 
1.351727e-001 
1.336748e-001 
1.323121e-001 
1.308343e-001 
1.273556e-001 
1.249321e-001 
1.282934e-001 
1.355318e-001 
1.408602e-001 
1.414358e-001 
1.388250e-001 
1.356508e-001 
1.313256e-001 
1.293921e-001 
1.333106e-001 
1.416651e-001 
1.447019e-001 
1.393812e-001 
1.304705e-001 
1.231717e-001 
1.210326e-001 
1.205102e-001 
1.215650e-001 
1.323506e-001 
1.494230e-001 
1.446311e-001 
1.045848e-001 
7.086265e-002 
6.804479e-002 
1.108653e-001 
1.229170e-001 
6.743870e-002 
3.901901e-002 
3.493624e-002 
-6.119444e-003 
-4.550451e-002 
-2.897723e-002 
2.673793e-002 
6.176065e-002 
-2.556182e-002 
-9.877885e-002 
-6.279209e-002 
-3.992860e-002 
-5.125953e-002 
-3.537511e-002 
-7.669254e-003 
-4.920783e-003 
-4.457299e-002 
-9.203102e-002 
-6.240687e-002 
-2.083968e-002 
-2.233907e-002 
-3.776034e-002 
-5.853403e-002 
-8.662670e-002 
-1.134864e-001 
-1.342257e-001 
-1.535345e-001 
-1.704199e-001 
-1.825150e-001 
-1.867616e-001 
-1.877253e-001 
-1.897133e-001 
-1.846515e-001 
-1.692997e-001 
-1.528832e-001 
-1.347390e-001 
-1.084531e-001 
-7.833462e-002 
-4.930125e-002 
-2.020447e-002 
1.109885e-002 
4.351178e-002 
7.106031e-002 
9.472406e-002 
1.220150e-001 
1.476828e-001 
1.619861e-001 
1.722638e-001 
1.848391e-001 
1.899010e-001 
1.871758e-001 
1.841173e-001 
1.840677e-001 
1.846818e-001 
1.826838e-001 
1.813700e-001 
1.884254e-001 
1.946225e-001 
1.886040e-001 
1.810042e-001 
1.761019e-001 
1.718655e-001 
1.686165e-001 
1.709558e-001 
1.748632e-001 
1.768876e-001 
1.702028e-001 
1.566263e-001 
1.490853e-001 
1.475635e-001 
1.476887e-001 
1.555818e-001 
1.776209e-001 
1.821821e-001 
1.360699e-001 
8.312567e-002 
7.125089e-002 
1.248845e-001 
1.465349e-001 
8.365625e-002 
4.761412e-002 
5.234234e-002 
9.180775e-003 
-5.062802e-002 
-3.613598e-002 
4.054226e-002 
8.882793e-002 
-1.362449e-002 
-1.041370e-001 
-6.221663e-002 
-2.825807e-002 
-4.740546e-002 
-3.544923e-002 
3.951659e-003 
1.398587e-002 
-3.302980e-002 
-9.055862e-002 
-5.646832e-002 
-5.167421e-003 
-8.542482e-003 
-3.235613e-002 
-5.364901e-002 
-7.854625e-002 
-1.051077e-001 
-1.289047e-001 
-1.510787e-001 
-1.713122e-001 
-1.897022e-001 
-1.971632e-001 
-1.971755e-001 
-1.973393e-001 
-1.942825e-001 
-1.831254e-001 
-1.676554e-001 
-1.502764e-001 
-1.267266e-001 
-9.602998e-002 
-6.354814e-002 
-3.742451e-002 
-9.332950e-003 
2.584728e-002 
6.106987e-002 
8.912322e-002 
1.163763e-001 
1.462389e-001 
1.668514e-001 
1.769942e-001 
1.834473e-001 
1.930770e-001 
2.016716e-001 
2.013103e-001 
1.957654e-001 
1.956937e-001 
1.951148e-001 
1.892181e-001 
1.885650e-001 
1.932297e-001 
2.017092e-001 
2.020223e-001 
1.921866e-001 
1.846033e-001 
1.808241e-001 
1.769171e-001 
1.762766e-001 
1.821698e-001 
1.864612e-001 
1.830209e-001 
1.706421e-001 
1.640162e-001 
1.619260e-001 
1.616571e-001 
1.649523e-001 
1.789648e-001 
1.904664e-001 
1.654887e-001 
9.787781e-002 
5.539192e-002 
8.700473e-002 
1.610159e-001 
1.634327e-001 
1.013958e-001 
7.487550e-002 
5.088346e-002 
-1.279040e-002 
-5.548186e-002 
1.235147e-003 
1.037672e-001 
1.035048e-001 
-3.546514e-002 
-9.643495e-002 
-5.647936e-002 
-4.345003e-002 
-4.698959e-002 
-1.639035e-002 
2.167504e-002 
2.359485e-003 
-8.214967e-002 
-1.359705e-001 
-1.024654e-001 
-7.665278e-002 
-8.702782e-002 
-1.143396e-001 
-1.475951e-001 
-1.784067e-001 
-2.051820e-001 
-2.355257e-001 
-2.681263e-001 
-2.937172e-001 
-3.048895e-001 
-3.082566e-001 
-3.133945e-001 
-3.120704e-001 
-2.993878e-001 
-2.827696e-001 
-2.665439e-001 
-2.412519e-001 
-2.039370e-001 
-1.640848e-001 
-1.308761e-001 
-9.631841e-002 
-5.363462e-002 
-1.102540e-002 
2.756628e-002 
6.109079e-002 
9.577975e-002 
1.293482e-001 
1.486712e-001 
1.593515e-001 
1.741542e-001 
1.876156e-001 
1.925232e-001 
1.921836e-001 
1.901275e-001 
1.908755e-001 
1.909976e-001 
1.876014e-001 
1.906020e-001 
1.987451e-001 
1.987363e-001 
1.902217e-001 
1.828295e-001 
1.760715e-001 
1.695056e-001 
1.666761e-001 
1.678001e-001 
1.690198e-001 
1.658897e-001 
1.559807e-001 
1.477166e-001 
1.438998e-001 
1.383470e-001 
1.362658e-001 
1.509642e-001 
1.616111e-001 
1.371209e-001 
8.291721e-002 
5.406412e-002 
8.622183e-002 
1.650537e-001 
1.744178e-001 
1.196447e-001 
9.827339e-002 
7.232696e-002 
1.327386e-002 
-1.323780e-002 
3.987717e-002 
1.259840e-001 
1.303571e-001 
-6.835047e-003 
-7.486840e-002 
-4.117376e-002 
-3.247483e-002 
-3.606367e-002 
-8.159964e-003 
1.387066e-002 
-1.594313e-002 
-1.038299e-001 
-1.695937e-001 
-1.417865e-001 
-1.195181e-001 
-1.331165e-001 
-1.585320e-001 
-1.864395e-001 
-2.155892e-001 
-2.429051e-001 
-2.686128e-001 
-2.919298e-001 
-3.118235e-001 
-3.246883e-001 
-3.266905e-001 
-3.260006e-001 
-3.212600e-001 
-3.089542e-001 
-2.888120e-001 
-2.654306e-001 
-2.407471e-001 
-2.116952e-001 
-1.749376e-001 
-1.382232e-001 
-1.042064e-001 
-6.874341e-002 
-3.037466e-002 
2.951379e-003 
2.783398e-002 
5.336054e-002 
8.000875e-002 
1.000067e-001 
1.101447e-001 
1.168630e-001 
1.227333e-001 
1.258699e-001 
1.211890e-001 
1.206439e-001 
1.249067e-001 
1.260338e-001 
1.281101e-001 
1.347149e-001 
1.376248e-001 
1.346106e-001 
1.291031e-001 
1.253788e-001 
1.255146e-001 
1.230538e-001 
1.245017e-001 
1.306818e-001 
1.295185e-001 
1.157352e-001 
1.036543e-001 
1.013901e-001 
1.041068e-001 
1.047691e-001 
1.151480e-001 
1.295571e-001 
1.074681e-001 
4.428869e-002 
2.006594e-003 
3.715556e-002 
1.007615e-001 
7.349331e-002 
1.164465e-002 
3.267421e-003 
-1.300996e-002 
-7.076476e-002 
-1.017879e-001 
-4.045223e-002 
5.449058e-002 
2.092915e-002 
-1.104169e-001 
-1.228897e-001 
-7.242462e-002 
-7.060145e-002 
-7.394690e-002 
-4.061227e-002 
-4.345272e-003 
-2.704823e-002 
-1.010984e-001 
-1.156094e-001 
-6.124472e-002 
-4.251495e-002 
-6.002806e-002 
-8.501371e-002 
-1.081166e-001 
-1.347664e-001 
-1.619697e-001 
-1.851688e-001 
-2.064164e-001 
-2.265052e-001 
-2.406359e-001 
-2.464077e-001 
-2.438899e-001 
-2.387719e-001 
-2.320058e-001 
-2.176698e-001 
-1.988993e-001 
-1.780074e-001 
-1.543269e-001 
-1.240901e-001 
-9.049451e-002 
-5.796982e-002 
-2.658411e-002 
8.295042e-003 
4.164808e-002 
6.899725e-002 
9.496368e-002 
1.191055e-001 
1.377330e-001 
1.486390e-001 
1.559349e-001 
1.618216e-001 
1.642643e-001 
1.599351e-001 
1.560329e-001 
1.567460e-001 
1.573407e-001 
1.566966e-001 
1.586396e-001 
1.632162e-001 
1.602304e-001 
1.517153e-001 
1.429551e-001 
1.383334e-001 
1.368677e-001 
1.360475e-001 
1.354189e-001 
1.358678e-001 
1.307846e-001 
1.179656e-001 
1.107520e-001 
1.075625e-001 
1.069804e-001 
1.125259e-001 
1.270717e-001 
1.239448e-001 
6.281491e-002 
5.910716e-003 
1.396316e-002 
8.961923e-002 
1.264406e-001 
7.106002e-002 
2.807689e-002 
2.143367e-002 
-3.329844e-002 
-1.003321e-001 
-6.346979e-002 
3.667001e-002 
8.124416e-002 
-3.433483e-002 
-1.438704e-001 
-1.189790e-001 
-8.400741e-002 
-9.566428e-002 
-7.703923e-002 
-3.351488e-002 
-3.971927e-002 
-1.158827e-001 
-1.988161e-001 
-1.850503e-001 
-1.402231e-001 
-1.431801e-001 
-1.729236e-001 
-2.027082e-001 
-2.340416e-001 
-2.672083e-001 
-2.982515e-001 
-3.265471e-001 
-3.510105e-001 
-3.704588e-001 
-3.829359e-001 
-3.841062e-001 
-3.831272e-001 
-3.792665e-001 
-3.649067e-001 
-3.405629e-001 
-3.106778e-001 
-2.801467e-001 
-2.449057e-001 
-2.025382e-001 
-1.608543e-001 
-1.243687e-001 
-8.425599e-002 
-4.013685e-002 
2.409468e-003 
3.484430e-002 
6.198879e-002 
9.172363e-002 
1.146956e-001 
1.251684e-001 
1.297064e-001 
1.351659e-001 
1.378545e-001 
1.335573e-001 
1.275440e-001 
1.290112e-001 
1.332910e-001 
1.320830e-001 
1.287273e-001 
1.270296e-001 
1.232907e-001 
1.149655e-001 
1.070854e-001 
1.038510e-001 
1.045654e-001 
1.049274e-001 
9.994855e-002 
9.559923e-002 
8.900213e-002 
7.763253e-002 
7.107469e-002 
7.001388e-002 
7.089374e-002 
7.794007e-002 
8.107246e-002 
6.301812e-002 
2.133365e-002 
-6.461193e-003 
1.755824e-002 
9.128302e-002 
1.132935e-001 
6.718134e-002 
3.645949e-002 
1.480258e-002 
-2.742754e-002 
-5.589220e-002 
-1.986221e-002 
5.675441e-002 
7.155143e-002 
-4.328253e-002 
-1.184844e-001 
-9.791480e-002 
-8.270393e-002 
-8.648123e-002 
-7.393471e-002 
-5.722957e-002 
-7.883290e-002 
-1.569776e-001 
-2.235286e-001 
-2.070670e-001 
-1.837032e-001 
-1.950450e-001 
-2.210880e-001 
-2.450239e-001 
-2.662603e-001 
-2.908863e-001 
-3.159638e-001 
-3.371821e-001 
-3.538682e-001 
-3.667895e-001 
-3.724043e-001 
-3.661801e-001 
-3.530250e-001 
-3.398248e-001 
-3.254646e-001 
-3.044247e-001 
-2.764515e-001 
-2.447968e-001 
-2.104676e-001 
-1.699978e-001 
-1.264367e-001 
-8.875261e-002 
-5.677209e-002 
-2.453810e-002 
8.996560e-003 
3.986410e-002 
6.619974e-002 
8.818744e-002 
1.042869e-001 
1.124442e-001 
1.138028e-001 
1.151348e-001 
1.167488e-001 
1.154415e-001 
1.146967e-001 
1.163216e-001 
1.172758e-001 
1.192950e-001 
1.233559e-001 
1.281839e-001 
1.292122e-001 
1.222177e-001 
1.154084e-001 
1.133908e-001 
1.136224e-001 
1.159248e-001 
1.168126e-001 
1.152487e-001 
1.119473e-001 
1.000405e-001 
8.882536e-002 
8.755898e-002 
8.900259e-002 
1.035328e-001 
1.176249e-001 
9.766425e-002 
5.216636e-002 
9.830811e-003 
1.716011e-002 
5.299052e-002 
1.291819e-002 
-4.148087e-002 
-3.581202e-002 
-4.710458e-002 
-9.371464e-002 
-1.244885e-001 
-9.395719e-002 
-1.835574e-002 
-4.803254e-002 
-1.560091e-001 
-1.408874e-001 
-8.529472e-002 
-9.094955e-002 
-9.594497e-002 
-7.381468e-002 
-4.066725e-002 
-4.131648e-002 
-8.939030e-002 
-8.206724e-002 
-2.085879e-002 
-6.607568e-003 
-2.171029e-002 
-4.044244e-002 
-6.295015e-002 
-8.235101e-002 
-9.740808e-002 
-1.157123e-001 
-1.356849e-001 
-1.527595e-001 
-1.623260e-001 
-1.651745e-001 
-1.669659e-001 
-1.651700e-001 
-1.554182e-001 
-1.425171e-001 
-1.319896e-001 
-1.162181e-001 
-9.378548e-002 
-6.760383e-002 
-4.053205e-002 
-1.439682e-002 
1.307397e-002 
4.143084e-002 
6.534080e-002 
8.626576e-002 
1.079183e-001 
1.273922e-001 
1.457532e-001 
1.570758e-001 
1.615340e-001 
1.652344e-001 
1.671746e-001 
1.659141e-001 
1.646871e-001 
1.670702e-001 
1.747630e-001 
1.833094e-001 
1.868448e-001 
1.886480e-001 
1.895269e-001 
1.864582e-001 
1.801713e-001 
1.782507e-001 
1.827083e-001 
1.897593e-001 
1.920824e-001 
1.870568e-001 
1.782867e-001 
1.703464e-001 
1.622116e-001 
1.566417e-001 
1.583109e-001 
1.611440e-001 
1.735466e-001 
1.751719e-001 
1.333383e-001 
7.810841e-002 
5.330002e-002 
8.915242e-002 
1.411523e-001 
1.027578e-001 
4.137803e-002 
3.664630e-002 
3.607609e-003 
-5.690938e-002 
-6.480892e-002 
-3.203982e-003 
7.460905e-002 
2.673904e-002 
-1.011577e-001 
-1.010922e-001 
-4.871318e-002 
-5.382832e-002 
-4.682202e-002 
-1.039005e-002 
1.454399e-002 
-1.255755e-002 
-8.384025e-002 
-9.077846e-002 
-3.265534e-002 
-1.375106e-002 
-3.168650e-002 
-5.698532e-002 
-8.178977e-002 
-1.047492e-001 
-1.303582e-001 
-1.546251e-001 
-1.740841e-001 
-1.874309e-001 
-1.967329e-001 
-2.030684e-001 
-2.000845e-001 
-1.904105e-001 
-1.819270e-001 
-1.687576e-001 
-1.466606e-001 
-1.187158e-001 
-8.961569e-002 
-6.119026e-002 
-2.726206e-002 
1.117410e-002 
4.151154e-002 
6.900324e-002 
1.010449e-001 
1.319995e-001 
1.576196e-001 
1.755472e-001 
1.893067e-001 
2.025694e-001 
2.080637e-001 
2.058315e-001 
2.064458e-001 
2.066762e-001 
2.037383e-001 
1.992062e-001 
1.959068e-001 
1.943118e-001 
1.953591e-001 
1.951671e-001 
1.974694e-001 
2.010090e-001 
1.962328e-001 
1.873564e-001 
1.823318e-001 
1.811612e-001 
1.810266e-001 
1.815095e-001 
1.791805e-001 
1.776591e-001 
1.691550e-001 
1.561078e-001 
1.520544e-001 
1.537699e-001 
1.544508e-001 
1.649041e-001 
1.676437e-001 
1.286961e-001 
6.760280e-002 
3.717171e-002 
8.458765e-002 
1.605292e-001 
1.434922e-001 
8.485977e-002 
6.526071e-002 
2.456722e-002 
-4.087462e-002 
-5.311902e-002 
2.108413e-002 
1.176739e-001 
8.044390e-002 
-6.442545e-002 
-1.003167e-001 
-6.290498e-002 
-5.910128e-002 
-4.882582e-002 
-6.466580e-003 
2.208924e-002 
-1.759138e-002 
-1.155971e-001 
-1.532521e-001 
-1.070123e-001 
-8.363399e-002 
-9.887816e-002 
-1.214094e-001 
-1.462554e-001 
-1.784514e-001 
-2.119912e-001 
-2.395726e-001 
-2.619806e-001 
-2.836824e-001 
-3.045963e-001 
-3.155239e-001 
-3.177647e-001 
-3.196627e-001 
-3.125104e-001 
-2.965798e-001 
-2.755293e-001 
-2.525715e-001 
-2.274764e-001 
-1.955244e-001 
-1.558369e-001 
-1.182943e-001 
-7.926491e-002 
-3.831457e-002 
-2.782448e-003 
3.089411e-002 
6.182073e-002 
9.245916e-002 
1.221477e-001 
1.451714e-001 
1.575988e-001 
1.655308e-001 
1.696432e-001 
1.696069e-001 
1.675171e-001 
1.696116e-001 
1.737397e-001 
1.717047e-001 
1.669626e-001 
1.649103e-001 
1.697407e-001 
1.745985e-001 
1.758546e-001 
1.780228e-001 
1.790608e-001 
1.698767e-001 
1.596422e-001 
1.572830e-001 
1.617505e-001 
1.638581e-001 
1.588133e-001 
1.549181e-001 
1.492358e-001 
1.381893e-001 
1.299630e-001 
1.303018e-001 
1.366408e-001 
1.479915e-001 
1.386738e-001 
8.437743e-002 
3.608911e-002 
4.183236e-002 
1.163374e-001 
1.727242e-001 
1.368578e-001 
9.416542e-002 
8.008482e-002 
2.952888e-002 
-2.730864e-002 
1.576832e-003 
9.553713e-002 
1.541417e-001 
5.544774e-002 
-6.729923e-002 
-6.565610e-002 
-4.079645e-002 
-4.819556e-002 
-3.189243e-002 
1.065930e-003 
-6.713664e-003 
-8.420528e-002 
-1.865569e-001 
-1.980980e-001 
-1.641071e-001 
-1.662170e-001 
-1.928085e-001 
-2.253274e-001 
-2.553828e-001 
-2.834309e-001 
-3.132300e-001 
-3.411227e-001 
-3.596396e-001 
-3.741550e-001 
-3.849596e-001 
-3.869584e-001 
-3.803181e-001 
-3.679139e-001 
-3.517610e-001 
-3.298475e-001 
-3.004763e-001 
-2.672094e-001 
-2.325990e-001 
-1.920439e-001 
-1.492669e-001 
-1.106815e-001 
-7.180692e-002 
-3.269397e-002 
5.094740e-003 
4.092203e-002 
6.843603e-002 
9.153624e-002 
1.119284e-001 
1.233263e-001 
1.297893e-001 
1.351708e-001 
1.382207e-001 
1.393581e-001 
1.365860e-001 
1.312451e-001 
1.305280e-001 
1.288834e-001 
1.262453e-001 
1.259860e-001 
1.293899e-001 
1.344602e-001 
1.368221e-001 
1.369196e-001 
1.369996e-001 
1.350094e-001 
1.281021e-001 
1.231784e-001 
1.246367e-001 
1.280182e-001 
1.273002e-001 
1.258498e-001 
1.208185e-001 
1.126478e-001 
1.056940e-001 
1.000819e-001 
1.045028e-001 
1.230173e-001 
1.251704e-001 
8.862322e-002 
4.808723e-002 
3.239273e-002 
7.292713e-002 
1.231668e-001 
8.611923e-002 
3.521741e-002 
2.344561e-002 
-1.601625e-002 
-6.276849e-002 
-5.801106e-002 
-4.554676e-004 
6.591060e-002 
6.852967e-003 
-1.199903e-001 
-1.242605e-001 
-8.397471e-002 
-8.224002e-002 
-7.074034e-002 
-4.451252e-002 
-3.637565e-002 
-7.953931e-002 
-1.567493e-001 
-1.639874e-001 
-1.106237e-001 
-9.088196e-002 
-1.057650e-001 
-1.336256e-001 
-1.613008e-001 
-1.862864e-001 
-2.049772e-001 
-2.219755e-001 
-2.412530e-001 
-2.521326e-001 
-2.604044e-001 
-2.706938e-001 
-2.725535e-001 
-2.618952e-001 
-2.416963e-001 
-2.231220e-001 
-2.080467e-001 
-1.831954e-001 
-1.536001e-001 
-1.270148e-001 
-9.672844e-002 
-5.825557e-002 
-1.794365e-002 
1.289769e-002 
3.529954e-002 
6.267217e-002 
8.892060e-002 
1.051648e-001 
1.196661e-001 
1.340313e-001 
1.437756e-001 
1.459146e-001 
1.415689e-001 
1.387292e-001 
1.374744e-001 
1.330648e-001 
1.296841e-001 
1.309759e-001 
1.336572e-001 
1.353645e-001 
1.374995e-001 
1.394094e-001 
1.383067e-001 
1.343603e-001 
1.288821e-001 
1.244499e-001 
1.268194e-001 
1.301137e-001 
1.291870e-001 
1.268199e-001 
1.215256e-001 
1.112677e-001 
1.030085e-001 
9.926367e-002 
1.034829e-001 
1.252516e-001 
1.351567e-001 
1.004017e-001 
5.101187e-002 
1.943561e-002 
4.800736e-002 
9.598628e-002 
5.826126e-002 
6.791199e-003 
6.793353e-003 
-2.455742e-002 
-8.044162e-002 
-8.868071e-002 
-3.297845e-002 
4.643612e-002 
-4.140169e-004 
-1.222670e-001 
-1.193699e-001 
-6.994112e-002 
-7.621086e-002 
-7.430193e-002 
-4.306399e-002 
-1.814632e-002 
-4.290956e-002 
-1.128188e-001 
-1.164988e-001 
-5.965595e-002 
-4.312864e-002 
-6.617904e-002 
-9.373452e-002 
-1.175715e-001 
-1.406315e-001 
-1.658207e-001 
-1.903729e-001 
-2.091890e-001 
-2.241232e-001 
-2.354581e-001 
-2.412550e-001 
-2.367135e-001 
-2.276305e-001 
-2.175837e-001 
-2.055633e-001 
-1.871412e-001 
-1.636276e-001 
-1.370511e-001 
-1.058183e-001 
-7.271580e-002 
-3.885297e-002 
-1.034300e-002 
1.838613e-002 
4.931504e-002 
7.890198e-002 
1.021488e-001 
1.219856e-001 
1.391128e-001 
1.488703e-001 
1.540039e-001 
1.541357e-001 
1.567817e-001 
1.596680e-001 
1.568766e-001 
1.502937e-001 
1.489623e-001 
1.484600e-001 
1.467088e-001 
1.471282e-001 
1.503648e-001 
1.573090e-001 
1.571168e-001 
1.498313e-001 
1.442992e-001 
1.410378e-001 
1.357641e-001 
1.361875e-001 
1.396692e-001 
1.394667e-001 
1.326803e-001 
1.213102e-001 
1.131451e-001 
1.086858e-001 
1.038626e-001 
1.036842e-001 
1.208413e-001 
1.254174e-001 
8.185895e-002 
2.039888e-002 
-2.957477e-003 
4.836394e-002 
1.100649e-001 
7.634706e-002 
2.094887e-002 
1.292921e-002 
-2.330132e-002 
-8.719150e-002 
-9.421330e-002 
-1.654402e-002 
7.071735e-002 
1.549892e-002 
-1.171823e-001 
-1.268793e-001 
-8.202280e-002 
-8.430635e-002 
-7.565948e-002 
-3.411879e-002 
-1.003468e-002 
-5.033623e-002 
-1.332533e-001 
-1.492591e-001 
-9.897682e-002 
-8.155655e-002 
-9.750638e-002 
-1.162903e-001 
-1.425125e-001 
-1.715936e-001 
-1.969085e-001 
-2.230536e-001 
-2.476862e-001 
-2.667747e-001 
-2.833081e-001 
-2.888409e-001 
-2.896315e-001 
-2.907806e-001 
-2.805392e-001 
-2.664272e-001 
-2.482829e-001 
-2.233149e-001 
-1.953286e-001 
-1.640852e-001 
-1.302040e-001 
-9.495208e-002 
-5.580979e-002 
-1.637633e-002 
1.572251e-002 
4.830864e-002 
8.173383e-002 
1.118940e-001 
1.306639e-001 
1.437031e-001 
1.595311e-001 
1.697501e-001 
1.719710e-001 
1.677119e-001 
1.677928e-001 
1.708726e-001 
1.704281e-001 
1.633359e-001 
1.628154e-001 
1.676044e-001 
1.701768e-001 
1.723279e-001 
1.746728e-001 
1.778990e-001 
1.751903e-001 
1.679060e-001 
1.606386e-001 
1.630259e-001 
1.696912e-001 
1.708685e-001 
1.686458e-001 
1.632526e-001 
1.529202e-001 
1.438428e-001 
1.409372e-001 
1.421721e-001 
1.582083e-001 
1.646207e-001 
1.251095e-001 
5.750650e-002 
2.562016e-002 
7.708807e-002 
1.550635e-001 
1.367850e-001 
7.584539e-002 
6.023753e-002 
2.534642e-002 
-4.120954e-002 
-6.012709e-002 
2.152956e-002 
1.230344e-001 
7.577103e-002 
-7.787865e-002 
-1.093202e-001 
-6.643413e-002 
-6.432440e-002 
-6.011779e-002 
-2.390777e-002 
2.878299e-003 
-4.605729e-002 
-1.517971e-001 
-1.902701e-001 
-1.457517e-001 
-1.275380e-001 
-1.486204e-001 
-1.806051e-001 
-2.106392e-001 
-2.406536e-001 
-2.714625e-001 
-2.970307e-001 
-3.194101e-001 
-3.367444e-001 
-3.504024e-001 
-3.602366e-001 
-3.571061e-001 
-3.462813e-001 
-3.350892e-001 
-3.171396e-001 
-2.904225e-001 
-2.600992e-001 
-2.266520e-001 
-1.907718e-001 
-1.473839e-001 
-1.010199e-001 
-6.292164e-002 
-2.797252e-002 
1.230310e-002 
5.227082e-002 
8.435999e-002 
1.117883e-001 
1.377714e-001 
1.562946e-001 
1.637390e-001 
1.674130e-001 
1.733586e-001 
1.790494e-001 
1.789048e-001 
1.746272e-001 
1.738878e-001 
1.740021e-001 
1.712987e-001 
1.726428e-001 
1.800104e-001 
1.868956e-001 
1.880387e-001 
1.788117e-001 
1.696242e-001 
1.681578e-001 
1.672519e-001 
1.680247e-001 
1.737138e-001 
1.753799e-001 
1.683670e-001 
1.538140e-001 
1.409738e-001 
1.440403e-001 
1.486279e-001 
1.539428e-001 
1.637436e-001 
1.520120e-001 
9.166368e-002 
4.770741e-002 
6.650049e-002 
1.508271e-001 
1.950079e-001 
1.413735e-001 
9.998681e-002 
8.283091e-002 
2.670434e-002 
-2.025971e-002 
2.693815e-002 
1.217216e-001 
1.582920e-001 
3.365696e-002 
-7.805447e-002 
-5.654849e-002 
-3.231941e-002 
-4.220250e-002 
-1.917942e-002 
1.441443e-002 
-6.842874e-003 
-9.534083e-002 
-1.864711e-001 
-1.772641e-001 
-1.405646e-001 
-1.481791e-001 
-1.738904e-001 
-1.974592e-001 
-2.254660e-001 
-2.557774e-001 
-2.799196e-001 
-3.013807e-001 
-3.183288e-001 
-3.281145e-001 
-3.312930e-001 
-3.261817e-001 
-3.164901e-001 
-3.062053e-001 
-2.858854e-001 
-2.582132e-001 
-2.315041e-001 
-1.977239e-001 
-1.573325e-001 
-1.157703e-001 
-7.551348e-002 
-4.016115e-002 
-4.176907e-003 
3.616288e-002 
6.875872e-002 
9.732506e-002 
1.276039e-001 
1.508124e-001 
1.634072e-001 
1.698089e-001 
1.765511e-001 
1.832629e-001 
1.841207e-001 
1.816912e-001 
1.839656e-001 
1.828820e-001 
1.808268e-001 
1.841387e-001 
1.928149e-001 
2.021323e-001 
2.040363e-001 
2.007455e-001 
1.990227e-001 
1.971080e-001 
1.945825e-001 
2.018529e-001 
2.090012e-001 
2.092723e-001 
2.058683e-001 
1.980492e-001 
1.922961e-001 
1.916868e-001 
1.924249e-001 
1.934024e-001 
2.074396e-001 
2.108826e-001 
1.778285e-001 
1.292026e-001 
1.070213e-001 
1.456611e-001 
2.099242e-001 
1.836989e-001 
1.185760e-001 
1.047798e-001 
7.399223e-002 
1.897588e-002 
7.584246e-003 
6.276777e-002 
1.389939e-001 
1.028760e-001 
-3.676689e-002 
-6.275423e-002 
-1.674100e-002 
-1.580343e-002 
-1.394925e-002 
1.328598e-002 
3.103601e-002 
-1.620918e-003 
-8.165860e-002 
-1.068103e-001 
-5.773800e-002 
-3.817390e-002 
-5.257774e-002 
-7.607206e-002 
-1.031782e-001 
-1.279849e-001 
-1.523790e-001 
-1.747487e-001 
-1.961597e-001 
-2.191494e-001 
-2.321691e-001 
-2.348342e-001 
-2.389326e-001 
-2.385116e-001 
-2.262078e-001 
-2.118248e-001 
-1.956808e-001 
-1.776454e-001 
-1.538258e-001 
-1.178228e-001 
-8.483775e-002 
-5.717246e-002 
-2.198456e-002 
1.591380e-002 
4.594385e-002 
7.200291e-002 
9.847342e-002 
1.256607e-001 
1.458302e-001 
1.527421e-001 
1.595442e-001 
1.683706e-001 
1.704702e-001 
1.657353e-001 
1.628670e-001 
1.623349e-001 
1.578576e-001 
1.509787e-001 
1.493109e-001 
1.531875e-001 
1.557612e-001 
1.575990e-001 
1.598490e-001 
1.601003e-001 
1.523388e-001 
1.430438e-001 
1.419061e-001 
1.460310e-001 
1.484634e-001 
1.486607e-001 
1.490665e-001 
1.428996e-001 
1.322414e-001 
1.235188e-001 
1.237696e-001 
1.298398e-001 
1.456485e-001 
1.518153e-001 
1.166517e-001 
6.243273e-002 
3.509922e-002 
7.948442e-002 
1.239149e-001 
8.338094e-002 
3.451555e-002 
3.081131e-002 
8.967505e-004 
-5.411212e-002 
-6.119797e-002 
8.718892e-003 
8.476068e-002 
1.878307e-002 
-9.344083e-002 
-8.360883e-002 
-3.773014e-002 
-3.905870e-002 
-3.370081e-002 
-1.132605e-003 
2.309480e-002 
-9.891793e-003 
-8.026797e-002 
-7.832389e-002 
-2.618015e-002 
-1.049374e-002 
-2.866531e-002 
-5.333156e-002 
-7.713861e-002 
-1.005846e-001 
-1.261665e-001 
-1.522987e-001 
-1.725255e-001 
-1.882955e-001 
-2.010252e-001 
-2.087940e-001 
-2.089505e-001 
-2.062539e-001 
-1.989885e-001 
-1.845803e-001 
-1.647592e-001 
-1.443823e-001 
-1.231448e-001 
-9.648269e-002 
-6.303868e-002 
-3.137825e-002 
-3.553827e-003 
2.817476e-002 
6.137434e-002 
8.871405e-002 
1.109393e-001 
1.304933e-001 
1.508324e-001 
1.661793e-001 
1.707515e-001 
1.739805e-001 
1.766252e-001 
1.753026e-001 
1.720471e-001 
1.685010e-001 
1.652360e-001 
1.656768e-001 
1.616174e-001 
1.579786e-001 
1.598991e-001 
1.627346e-001 
1.665688e-001 
1.705684e-001 
1.674750e-001 
1.609387e-001 
1.558572e-001 
1.491455e-001 
1.501137e-001 
1.552818e-001 
1.566515e-001 
1.536600e-001 
1.450518e-001 
1.312116e-001 
1.245298e-001 
1.254734e-001 
1.280714e-001 
1.382282e-001 
1.462275e-001 
1.279502e-001 
6.253884e-002 
1.090266e-002 
2.515697e-002 
9.950201e-002 
1.158981e-001 
5.377463e-002 
1.762696e-002 
1.157876e-003 
-5.553589e-002 
-1.089157e-001 
-6.659354e-002 
2.977614e-002 
5.108671e-002 
-7.814109e-002 
-1.598334e-001 
-1.257212e-001 
-1.048520e-001 
-1.139876e-001 
-9.004388e-002 
-5.217022e-002 
-6.298348e-002 
-1.388654e-001 
-2.031283e-001 
-1.743223e-001 
-1.395802e-001 
-1.507784e-001 
-1.803102e-001 
-2.096053e-001 
-2.361899e-001 
-2.623794e-001 
-2.900678e-001 
-3.158187e-001 
-3.359475e-001 
-3.530339e-001 
-3.647621e-001 
-3.674618e-001 
-3.625294e-001 
-3.523289e-001 
-3.423251e-001 
-3.260315e-001 
-2.996805e-001 
-2.719717e-001 
-2.427218e-001 
-2.056843e-001 
-1.683878e-001 
-1.324219e-001 
-9.801021e-002 
-6.394909e-002 
-2.612181e-002 
7.959723e-003 
2.973588e-002 
5.039658e-002 
7.093762e-002 
8.093924e-002 
8.593444e-002 
8.953220e-002 
9.390928e-002 
9.735325e-002 
9.297940e-002 
8.553685e-002 
8.779784e-002 
8.992563e-002 
8.445007e-002 
7.998932e-002 
8.340224e-002 
9.209276e-002 
9.618352e-002 
9.233133e-002 
8.966777e-002 
8.953525e-002 
8.403241e-002 
7.652885e-002 
7.921085e-002 
8.762796e-002 
8.916229e-002 
8.203189e-002 
7.266532e-002 
6.581571e-002 
6.196434e-002 
5.999866e-002 
6.092500e-002 
7.718526e-002 
8.016602e-002 
4.508050e-002 
-1.722610e-002 
-5.105528e-002 
-1.338275e-002 
6.695888e-002 
6.257690e-002 
7.969055e-003 
-9.579818e-003 
-4.460673e-002 
-1.044308e-001 
-1.291075e-001 
-6.825571e-002 
2.877984e-002 
1.362197e-002 
-1.292014e-001 
-1.738193e-001 
-1.398563e-001 
-1.349550e-001 
-1.296721e-001 
-9.954223e-002 
-7.202737e-002 
-1.015592e-001 
-1.961318e-001 
-2.499664e-001 
-2.184055e-001 
-2.009165e-001 
-2.143224e-001 
-2.457373e-001 
-2.802687e-001 
-3.082199e-001 
-3.369639e-001 
-3.669715e-001 
-3.923095e-001 
-4.083384e-001 
-4.157540e-001 
-4.232122e-001 
-4.299913e-001 
-4.220381e-001 
-4.044496e-001 
-3.844572e-001 
-3.569856e-001 
-3.225786e-001 
-2.841389e-001 
-2.472611e-001 
-2.112174e-001 
-1.660574e-001 
-1.148447e-001 
-7.234706e-002 
-3.294113e-002 
5.502776e-003 
3.662629e-002 
6.260724e-002 
8.408852e-002 
1.038583e-001 
1.204195e-001 
1.263869e-001 
1.258773e-001 
1.284924e-001 
1.296711e-001 
1.272325e-001 
1.263152e-001 
1.268680e-001 
1.282272e-001 
1.284807e-001 
1.303594e-001 
1.365444e-001 
1.414945e-001 
1.385799e-001 
1.311471e-001 
1.273169e-001 
1.274903e-001 
1.278783e-001 
1.291447e-001 
1.305336e-001 
1.271765e-001 
1.167946e-001 
1.038646e-001 
9.920427e-002 
1.025882e-001 
1.042997e-001 
1.126394e-001 
1.190898e-001 
9.532324e-002 
4.045411e-002 
7.983007e-003 
4.322279e-002 
1.238285e-001 
1.246563e-001 
6.482730e-002 
4.166296e-002 
1.662033e-002 
-3.733210e-002 
-6.363830e-002 
-8.940860e-003 
8.392669e-002 
7.605149e-002 
-6.420667e-002 
-1.198687e-001 
-8.577248e-002 
-7.896157e-002 
-8.114641e-002 
-5.224961e-002 
-2.650906e-002 
-5.666699e-002 
-1.467668e-001 
-2.012902e-001 
-1.687136e-001 
-1.469891e-001 
-1.602197e-001 
-1.810932e-001 
-2.033372e-001 
-2.347464e-001 
-2.631155e-001 
-2.852837e-001 
-3.065306e-001 
-3.229654e-001 
-3.316958e-001 
-3.328938e-001 
-3.281077e-001 
-3.224281e-001 
-3.123192e-001 
-2.909526e-001 
-2.651298e-001 
-2.356724e-001 
-2.013037e-001 
-1.643032e-001 
-1.246143e-001 
-8.654376e-002 
-4.883992e-002 
-1.237487e-002 
2.271104e-002 
5.632128e-002 
8.469613e-002 
1.070418e-001 
1.278750e-001 
1.419100e-001 
1.497147e-001 
1.568586e-001 
1.576350e-001 
1.559395e-001 
1.558604e-001 
1.539600e-001 
1.521347e-001 
1.533958e-001 
1.537022e-001 
1.586591e-001 
1.646259e-001 
1.662150e-001 
1.679584e-001 
1.682087e-001 
1.624794e-001 
1.573453e-001 
1.608106e-001 
1.663523e-001 
1.680562e-001 
1.642738e-001 
1.598605e-001 
1.546625e-001 
1.476215e-001 
1.412728e-001 
1.429719e-001 
1.588844e-001 
1.738215e-001 
1.607633e-001 
1.127231e-001 
7.556121e-002 
7.807099e-002 
1.245103e-001 
1.188609e-001 
5.579754e-002 
3.199307e-002 
1.994941e-002 
-2.846924e-002 
-6.556549e-002 
-3.574380e-002 
3.462963e-002 
4.873479e-002 
-6.384265e-002 
-1.152129e-001 
-6.451525e-002 
-4.479667e-002 
-5.067283e-002 
-2.726605e-002 
6.998855e-003 
8.378225e-003 
-4.022187e-002 
-7.286076e-002 
-2.085037e-002 
2.273208e-002 
2.139548e-002 
2.564014e-003 
-2.154596e-002 
-4.389300e-002 
-6.736949e-002 
-8.914845e-002 
-1.099390e-001 
-1.296610e-001 
-1.429315e-001 
-1.512700e-001 
-1.602697e-001 
-1.577805e-001 
-1.476927e-001 
-1.396503e-001 
-1.242827e-001 
-1.048750e-001 
-8.116459e-002 
-5.308166e-002 
-2.712598e-002 
1.390800e-003 
3.854006e-002 
7.091414e-002 
1.010851e-001 
1.339364e-001 
1.610875e-001 
1.832900e-001 
2.024435e-001 
2.160802e-001 
2.276121e-001 
2.379773e-001 
2.402337e-001 
2.386999e-001 
2.377941e-001 
2.357768e-001 
2.327121e-001 
2.298058e-001 
2.269564e-001 
2.262588e-001 
2.276826e-001 
2.264353e-001 
2.286096e-001 
2.361261e-001 
2.348290e-001 
2.224144e-001 
2.134703e-001 
2.100279e-001 
2.116520e-001 
2.160428e-001 
2.154225e-001 
2.140429e-001 
2.085190e-001 
1.917886e-001 
1.789357e-001 
1.825563e-001 
1.883261e-001 
2.032435e-001 
2.102388e-001 
1.787989e-001 
1.225560e-001 
8.784764e-002 
1.270775e-001 
1.702567e-001 
1.251338e-001 
7.503671e-002 
7.364407e-002 
4.707186e-002 
-9.879013e-003 
-3.288209e-002 
3.214716e-002 
1.126216e-001 
3.904616e-002 
-7.716832e-002 
-5.987285e-002 
-2.087414e-002 
-3.229396e-002 
-3.084301e-002 
-1.477125e-003 
2.645395e-002 
-7.711635e-003 
-8.273632e-002 
-7.640214e-002 
-2.481983e-002 
-2.058750e-002 
-4.227489e-002 
-6.622870e-002 
-9.606414e-002 
-1.243505e-001 
-1.519486e-001 
-1.770476e-001 
-1.963702e-001 
-2.140907e-001 
-2.279802e-001 
-2.315431e-001 
-2.312269e-001 
-2.309013e-001 
-2.205770e-001 
-2.043034e-001 
-1.831515e-001 
-1.614005e-001 
-1.333525e-001 
-9.709023e-002 
-6.379790e-002 
-3.208838e-002 
3.960339e-003 
4.107789e-002 
7.480338e-002 
1.044317e-001 
1.291455e-001 
1.573874e-001 
1.763889e-001 
1.837547e-001 
1.936686e-001 
2.002861e-001 
2.033138e-001 
2.026773e-001 
1.967680e-001 
1.966007e-001 
2.000174e-001 
1.965273e-001 
1.960383e-001 
2.012691e-001 
2.052409e-001 
2.030690e-001 
1.950401e-001 
1.910673e-001 
1.921874e-001 
1.901220e-001 
1.899280e-001 
1.946778e-001 
1.973054e-001 
1.919957e-001 
1.822207e-001 
1.791015e-001 
1.791792e-001 
1.777364e-001 
1.806079e-001 
1.914376e-001 
1.890419e-001 
1.498408e-001 
1.133294e-001 
1.171721e-001 
1.627592e-001 
1.856106e-001 
1.555410e-001 
1.311959e-001 
1.229218e-001 
8.373444e-002 
4.251477e-002 
6.261053e-002 
1.215216e-001 
1.494315e-001 
8.147578e-002 
1.469912e-002 
2.198074e-002 
3.480839e-002 
2.740043e-002 
4.154054e-002 
6.781992e-002 
6.281768e-002 
1.218718e-002 
-4.184403e-002 
-4.005057e-002 
-2.120782e-002 
-2.790837e-002 
-4.997770e-002 
-7.258457e-002 
-9.828499e-002 
-1.294215e-001 
-1.566712e-001 
-1.780480e-001 
-1.996756e-001 
-2.164113e-001 
-2.283449e-001 
-2.333035e-001 
-2.322103e-001 
-2.287851e-001 
-2.195197e-001 
-2.038424e-001 
-1.869573e-001 
-1.648163e-001 
-1.345487e-001 
-1.054866e-001 
-7.678106e-002 
-4.695426e-002 
-1.581126e-002 
1.428964e-002 
4.358767e-002 
6.980514e-002 
9.672843e-002 
1.196386e-001 
1.297227e-001 
1.346991e-001 
1.404369e-001 
1.445981e-001 
1.471700e-001 
1.493793e-001 
1.486314e-001 
1.488537e-001 
1.460078e-001 
1.397592e-001 
1.425591e-001 
1.479258e-001 
1.422906e-001 
1.334553e-001 
1.282493e-001 
1.212473e-001 
1.167633e-001 
1.140344e-001 
1.141969e-001 
1.156294e-001 
1.038126e-001 
8.630772e-002 
7.967997e-002 
7.821444e-002 
7.531414e-002 
8.247373e-002 
8.925467e-002 
7.464451e-002 
1.179847e-002 
-3.036257e-002 
9.721117e-003 
1.057422e-001 
1.318559e-001 
7.525659e-002 
3.854784e-002 
1.604587e-002 
-4.468802e-002 
-9.485920e-002 
-3.281752e-002 
7.590008e-002 
8.627280e-002 
-5.737163e-002 
-1.486958e-001 
-1.253117e-001 
-1.115598e-001 
-1.218303e-001 
-9.547925e-002 
-6.276136e-002 
-9.929204e-002 
-2.051865e-001 
-2.889762e-001 
-2.737401e-001 
-2.468598e-001 
-2.572310e-001 
-2.818590e-001 
-3.104999e-001 
-3.415368e-001 
-3.723246e-001 
-4.007797e-001 
-4.229686e-001 
-4.388596e-001 
-4.481464e-001 
-4.490533e-001 
-4.446517e-001 
-4.379660e-001 
-4.220963e-001 
-4.010867e-001 
-3.736567e-001 
-3.395885e-001 
-3.032337e-001 
-2.636635e-001 
-2.218701e-001 
-1.841244e-001 
-1.439457e-001 
-1.009023e-001 
-6.463705e-002 
-3.042629e-002 
2.527239e-003 
3.111041e-002 
5.183097e-002 
6.241750e-002 
6.998821e-002 
7.968096e-002 
8.270141e-002 
7.959114e-002 
8.004915e-002 
8.194795e-002 
8.141383e-002 
7.853055e-002 
7.715685e-002 
8.367151e-002 
9.008458e-002 
9.327625e-002 
9.479002e-002 
9.369153e-002 
8.928801e-002 
8.570511e-002 
8.151977e-002 
8.039277e-002 
8.366054e-002 
8.161779e-002 
7.882866e-002 
7.267102e-002 
6.432592e-002 
6.004569e-002 
5.842017e-002 
5.336747e-002 
6.429435e-002 
7.657408e-002 
5.950462e-002 
1.579443e-002 
-1.643197e-002 
-2.643576e-003 
5.204615e-002 
3.655141e-002 
-2.545070e-002 
-3.650689e-002 
-5.160495e-002 
-1.000456e-001 
-1.298210e-001 
-9.737376e-002 
-2.620330e-002 
-2.948146e-002 
-1.534892e-001 
-1.885517e-001 
-1.412863e-001 
-1.353628e-001 
-1.452793e-001 
-1.285805e-001 
-1.057480e-001 
-1.168252e-001 
-1.812636e-001 
-2.164113e-001 
-1.689952e-001 
-1.426589e-001 
-1.564667e-001 
-1.817779e-001 
-2.047446e-001 
-2.242779e-001 
-2.442522e-001 
-2.673372e-001 
-2.825942e-001 
-2.918238e-001 
-3.000546e-001 
-3.037122e-001 
-3.011277e-001 
-2.929151e-001 
-2.809963e-001 
-2.680631e-001 
-2.482470e-001 
-2.179176e-001 
-1.913053e-001 
-1.659303e-001 
-1.361615e-001 
-1.050220e-001 
-7.569394e-002 
-4.730669e-002 
-1.944462e-002 
8.043323e-003 
3.079971e-002 
4.424342e-002 
5.468106e-002 
6.427279e-002 
7.390035e-002 
7.867459e-002 
8.061229e-002 
7.615886e-002 
7.137627e-002 
7.047724e-002 
6.630830e-002 
6.249097e-002 
6.788914e-002 
7.550381e-002 
7.780260e-002 
7.656640e-002 
7.193190e-002 
7.269453e-002 
7.281006e-002 
6.773888e-002 
6.784916e-002 
7.307790e-002 
7.297465e-002 
6.895302e-002 
6.317813e-002 
5.694573e-002 
5.296963e-002 
5.170010e-002 
4.965815e-002 
5.858193e-002 
7.755576e-002 
7.838464e-002 
4.411301e-002 
6.772946e-003 
1.369804e-003 
3.313203e-002 
9.976846e-003 
-5.759144e-002 
-6.378747e-002 
-5.292480e-002 
-8.564441e-002 
-1.240177e-001 
-1.088968e-001 
-4.927416e-002 
-4.514689e-002 
-1.451280e-001 
-1.633406e-001 
-9.801094e-002 
-8.539290e-002 
-1.029519e-001 
-9.260639e-002 
-6.256051e-002 
-5.444282e-002 
-9.076442e-002 
-1.030972e-001 
-4.398604e-002 
-1.070396e-002 
-2.203329e-002 
-4.113639e-002 
-6.097180e-002 
-8.272989e-002 
-1.050706e-001 
-1.266157e-001 
-1.418254e-001 
-1.513848e-001 
-1.596641e-001 
-1.621594e-001 
-1.609459e-001 
-1.599628e-001 
-1.554323e-001 
-1.448336e-001 
-1.283711e-001 
-1.069851e-001 
-8.651101e-002 
-6.461940e-002 
-3.945161e-002 
-1.599979e-002 
8.083998e-003 
3.326323e-002 
5.790050e-002 
8.116661e-002 
9.916617e-002 
1.129204e-001 
1.264430e-001 
1.340323e-001 
1.370426e-001 
1.405896e-001 
1.397735e-001 
1.383655e-001 
1.385141e-001 
1.367821e-001 
1.358533e-001 
1.358462e-001 
1.355353e-001 
1.394919e-001 
1.461468e-001 
1.475414e-001 
1.479133e-001 
1.440946e-001 
1.372765e-001 
1.333318e-001 
1.335963e-001 
1.369749e-001 
1.424222e-001 
1.427875e-001 
1.330196e-001 
1.226325e-001 
1.146886e-001 
1.109961e-001 
1.113412e-001 
1.269809e-001 
1.465106e-001 
1.322743e-001 
9.037576e-002 
5.878881e-002 
7.448110e-002 
9.956536e-002 
4.864040e-002 
-7.146744e-003 
2.845798e-003 
-5.009927e-003 
-5.400034e-002 
-7.543607e-002 
-4.188303e-002 
1.323082e-002 
-2.896032e-002 
-1.279723e-001 
-1.046339e-001 
-4.549977e-002 
-5.598758e-002 
-6.664320e-002 
-4.440385e-002 
-2.095351e-002 
-3.015777e-002 
-7.115501e-002 
-5.419454e-002 
1.348152e-002 
2.893271e-002 
9.376378e-003 
-9.841875e-003 
-2.846459e-002 
-4.874032e-002 
-6.711228e-002 
-8.161223e-002 
-9.385145e-002 
-1.075453e-001 
-1.206528e-001 
-1.238109e-001 
-1.206610e-001 
-1.126090e-001 
-1.014791e-001 
-8.291588e-002 
-6.303706e-002 
-4.877315e-002 
-3.125936e-002 
-3.863660e-003 
2.717252e-002 
5.879147e-002 
8.814709e-002 
1.142799e-001 
1.424459e-001 
1.609275e-001 
1.744867e-001 
1.940078e-001 
2.125947e-001 
2.235984e-001 
2.297855e-001 
2.284012e-001 
2.270705e-001 
2.274680e-001 
2.220206e-001 
2.181940e-001 
2.185890e-001 
2.177447e-001 
2.129355e-001 
2.070501e-001 
2.028028e-001 
2.039404e-001 
2.052957e-001 
2.059973e-001 
2.082156e-001 
2.070953e-001 
2.022236e-001 
1.955243e-001 
1.906020e-001 
1.885944e-001 
1.877569e-001 
1.879185e-001 
1.899047e-001 
1.836114e-001 
1.721334e-001 
1.676600e-001 
1.637147e-001 
1.610855e-001 
1.628835e-001 
1.754156e-001 
1.850788e-001 
1.616921e-001 
1.235945e-001 
1.082987e-001 
1.352693e-001 
1.439820e-001 
1.036688e-001 
8.169653e-002 
9.040007e-002 
6.960622e-002 
3.000123e-002 
2.743577e-002 
7.053689e-002 
1.064467e-001 
4.933417e-002 
-2.157091e-003 
2.614965e-002 
4.793931e-002 
3.556904e-002 
3.889294e-002 
6.401029e-002 
8.000974e-002 
5.831273e-002 
2.736381e-002 
5.239627e-002 
8.468621e-002 
8.600732e-002 
7.422746e-002 
6.020545e-002 
4.441035e-002 
2.363189e-002 
4.789245e-003 
-9.239888e-003 
-2.261454e-002 
-3.630176e-002 
-4.322948e-002 
-4.686610e-002 
-5.116244e-002 
-5.241347e-002 
-4.873135e-002 
-3.942235e-002 
-3.013058e-002 
-1.898980e-002 
-3.806773e-003 
1.420757e-002 
2.991259e-002 
4.644493e-002 
6.766397e-002 
8.913633e-002 
1.059050e-001 
1.200713e-001 
1.379925e-001 
1.513705e-001 
1.591525e-001 
1.653432e-001 
1.697746e-001 
1.714562e-001 
1.698663e-001 
1.667751e-001 
1.673161e-001 
1.655229e-001 
1.586899e-001 
1.557574e-001 
1.539969e-001 
1.495199e-001 
1.488982e-001 
1.516845e-001 
1.560266e-001 
1.601528e-001 
1.580946e-001 
1.538577e-001 
1.506022e-001 
1.455254e-001 
1.413560e-001 
1.431292e-001 
1.449648e-001 
1.472286e-001 
1.450706e-001 
1.350893e-001 
1.274985e-001 
1.263707e-001 
1.269587e-001 
1.270747e-001 
1.384119e-001 
1.523780e-001 
1.395466e-001 
7.835533e-002 
2.965981e-002 
4.431720e-002 
1.066804e-001 
9.966087e-002 
3.546042e-002 
1.655853e-002 
5.032342e-003 
-5.077077e-002 
-9.819752e-002 
-5.609297e-002 
3.369423e-002 
4.039698e-002 
-8.520630e-002 
-1.343792e-001 
-8.758987e-002 
-7.149127e-002 
-7.945830e-002 
-5.373513e-002 
-1.470655e-002 
-2.014035e-002 
-8.138738e-002 
-1.191049e-001 
-7.175509e-002 
-3.668968e-002 
-4.567960e-002 
-7.339843e-002 
-1.017439e-001 
-1.264182e-001 
-1.455791e-001 
-1.676610e-001 
-1.927827e-001 
-2.119150e-001 
-2.291743e-001 
-2.408273e-001 
-2.469920e-001 
-2.455839e-001 
-2.328985e-001 
-2.176306e-001 
-2.068405e-001 
-1.893914e-001 
-1.636604e-001 
-1.349688e-001 
-1.035671e-001 
-7.133125e-002 
-3.695235e-002 
-1.806089e-003 
2.997062e-002 
5.821319e-002 
8.608172e-002 
1.134723e-001 
1.332536e-001 
1.481638e-001 
1.612276e-001 
1.690044e-001 
1.732771e-001 
1.728847e-001 
1.690118e-001 
1.661364e-001 
1.663436e-001 
1.625167e-001 
1.594677e-001 
1.575056e-001 
1.542808e-001 
1.505854e-001 
1.477165e-001 
1.474727e-001 
1.511923e-001 
1.544968e-001 
1.532193e-001 
1.506725e-001 
1.447934e-001 
1.368048e-001 
1.310681e-001 
1.311246e-001 
1.326834e-001 
1.310902e-001 
1.253460e-001 
1.177456e-001 
1.065825e-001 
9.718185e-002 
9.401843e-002 
9.467672e-002 
1.029102e-001 
1.093607e-001 
9.065640e-002 
3.505339e-002 
-4.589011e-003 
1.876331e-002 
9.207967e-002 
9.420770e-002 
3.147302e-002 
3.499495e-003 
-1.514035e-002 
-6.974026e-002 
-1.099518e-001 
-6.032559e-002 
3.346941e-002 
3.522645e-002 
-1.015349e-001 
-1.617385e-001 
-1.193073e-001 
-1.049697e-001 
-1.142884e-001 
-9.051974e-002 
-5.679113e-002 
-7.541341e-002 
-1.577269e-001 
-2.151111e-001 
-1.779198e-001 
-1.469234e-001 
-1.619849e-001 
-1.901431e-001 
-2.140187e-001 
-2.354670e-001 
-2.619786e-001 
-2.920842e-001 
-3.169984e-001 
-3.304038e-001 
-3.434921e-001 
-3.543769e-001 
-3.543833e-001 
-3.464213e-001 
-3.363884e-001 
-3.257182e-001 
-3.049469e-001 
-2.742323e-001 
-2.419573e-001 
-2.122793e-001 
-1.781865e-001 
-1.406540e-001 
-1.058647e-001 
-7.481215e-002 
-4.065605e-002 
-6.288377e-003 
1.797878e-002 
3.967751e-002 
5.955932e-002 
7.161075e-002 
7.861260e-002 
8.150183e-002 
8.310579e-002 
8.529914e-002 
8.048172e-002 
7.478076e-002 
7.724696e-002 
7.366142e-002 
6.561381e-002 
6.210509e-002 
6.198370e-002 
6.429532e-002 
6.585484e-002 
6.655250e-002 
7.457974e-002 
8.352435e-002 
8.158294e-002 
7.741732e-002 
7.437896e-002 
7.431958e-002 
7.622649e-002 
7.665124e-002 
7.772324e-002 
7.908136e-002 
7.229583e-002 
5.970173e-002 
5.064023e-002 
4.541546e-002 
4.577881e-002 
5.147799e-002 
6.412484e-002 
5.927504e-002 
1.578216e-002 
-2.273386e-002 
-1.989072e-002 
2.029362e-002 
5.348067e-003 
-5.972795e-002 
-7.980228e-002 
-7.907359e-002 
-1.210559e-001 
-1.595470e-001 
-1.314026e-001 
-6.525830e-002 
-6.213639e-002 
-1.693783e-001 
-2.057263e-001 
-1.515088e-001 
-1.352804e-001 
-1.492926e-001 
-1.348733e-001 
-1.083966e-001 
-1.121296e-001 
-1.620630e-001 
-1.881740e-001 
-1.400888e-001 
-1.084478e-001 
-1.202147e-001 
-1.445835e-001 
-1.680316e-001 
-1.877511e-001 
-2.077973e-001 
-2.285586e-001 
-2.459937e-001 
-2.598723e-001 
-2.697548e-001 
-2.740406e-001 
-2.707074e-001 
-2.608696e-001 
-2.474819e-001 
-2.335218e-001 
-2.157203e-001 
-1.916630e-001 
-1.649986e-001 
-1.366130e-001 
-1.040628e-001 
-7.194541e-002 
-4.167177e-002 
-1.554181e-002 
8.422378e-003 
3.296620e-002 
5.565045e-002 
7.384830e-002 
8.814270e-002 
9.793621e-002 
1.021727e-001 
1.038382e-001 
1.006714e-001 
9.809127e-002 
9.908330e-002 
9.985652e-002 
9.588691e-002 
9.009316e-002 
8.946504e-002 
9.331846e-002 
9.751671e-002 
1.007347e-001 
1.042000e-001 
1.046066e-001 
9.812670e-002 
8.871058e-002 
8.784389e-002 
9.683489e-002 
1.004533e-001 
9.736845e-002 
9.306206e-002 
8.645451e-002 
7.903989e-002 
7.273187e-002 
7.121031e-002 
8.304179e-002 
1.029271e-001 
1.022509e-001 
6.486473e-002 
2.760065e-002 
1.471731e-002 
4.342936e-002 
3.944015e-002 
-2.450987e-002 
-5.275490e-002 
-4.875437e-002 
-8.371399e-002 
-1.291407e-001 
-1.200477e-001 
-6.859531e-002 
-4.324286e-002 
-1.314814e-001 
-1.903111e-001 
-1.410994e-001 
-1.098994e-001 
-1.258852e-001 
-1.191698e-001 
-9.030410e-002 
-8.149826e-002 
-1.113957e-001 
-1.396207e-001 
-9.884656e-002 
-5.094964e-002 
-5.035544e-002 
-7.485877e-002 
-1.005008e-001 
-1.245862e-001 
-1.462714e-001 
-1.635787e-001 
-1.881373e-001 
-2.106632e-001 
-2.197494e-001 
-2.284834e-001 
-2.350078e-001 
-2.337160e-001 
-2.226889e-001 
-2.069003e-001 
-1.973689e-001 
-1.856304e-001 
-1.572298e-001 
-1.275293e-001 
-1.016774e-001 
-7.411658e-002 
-4.319687e-002 
-9.114154e-003 
1.640024e-002 
3.962937e-002 
7.034813e-002 
9.719100e-002 
1.125060e-001 
1.248086e-001 
1.324566e-001 
1.400247e-001 
1.433459e-001 
1.408632e-001 
1.417368e-001 
1.420388e-001 
1.394296e-001 
1.404577e-001 
1.460745e-001 
1.507799e-001 
1.555185e-001 
1.528454e-001 
1.504122e-001 
1.484421e-001 
1.417183e-001 
1.381753e-001 
1.436589e-001 
1.465908e-001 
1.422645e-001 
1.337343e-001 
1.252676e-001 
1.229090e-001 
1.165403e-001 
1.106125e-001 
1.138394e-001 
1.301040e-001 
1.304755e-001 
8.856856e-002 
3.184831e-002 
6.721290e-003 
4.037457e-002 
9.024461e-002 
6.267080e-002 
8.940984e-003 
-3.621028e-003 
-4.212163e-002 
-9.988738e-002 
-1.067832e-001 
-4.823328e-002 
2.591492e-002 
-1.180597e-002 
-1.332127e-001 
-1.486147e-001 
-1.087286e-001 
-1.076252e-001 
-9.630142e-002 
-6.318979e-002 
-4.390147e-002 
-7.143139e-002 
-1.389505e-001 
-1.547472e-001 
-1.092045e-001 
-9.223888e-002 
-1.048867e-001 
-1.287360e-001 
-1.582869e-001 
-1.839447e-001 
-2.037911e-001 
-2.243283e-001 
-2.464934e-001 
-2.616830e-001 
-2.680895e-001 
-2.698236e-001 
-2.723018e-001 
-2.684079e-001 
-2.543024e-001 
-2.368856e-001 
-2.155807e-001 
-1.880398e-001 
-1.575597e-001 
-1.290420e-001 
-1.005334e-001 
-6.746049e-002 
-2.881685e-002 
8.379505e-003 
4.051317e-002 
7.070542e-002 
9.456057e-002 
1.116063e-001 
1.266546e-001 
1.440531e-001 
1.570145e-001 
1.614176e-001 
1.605891e-001 
1.589397e-001 
1.583275e-001 
1.560229e-001 
1.550027e-001 
1.588990e-001 
1.621195e-001 
1.578118e-001 
1.553883e-001 
1.566333e-001 
1.544200e-001 
1.477618e-001 
1.439582e-001 
1.430717e-001 
1.432088e-001 
1.401450e-001 
1.364138e-001 
1.376102e-001 
1.347020e-001 
1.244448e-001 
1.197519e-001 
1.234155e-001 
1.208204e-001 
1.245950e-001 
1.307372e-001 
1.153398e-001 
6.224872e-002 
2.511384e-002 
5.532682e-002 
1.400308e-001 
1.519385e-001 
8.393887e-002 
5.026261e-002 
3.100332e-002 
-2.417544e-002 
-6.621615e-002 
-1.327859e-002 
8.454311e-002 
8.908399e-002 
-5.505270e-002 
-1.341802e-001 
-9.803761e-002 
-7.876139e-002 
-8.504179e-002 
-6.106087e-002 
-2.838210e-002 
-5.857555e-002 
-1.553837e-001 
-2.250254e-001 
-1.951080e-001 
-1.614887e-001 
-1.718098e-001 
-2.004329e-001 
-2.256478e-001 
-2.506342e-001 
-2.825088e-001 
-3.084609e-001 
-3.276394e-001 
-3.427725e-001 
-3.560278e-001 
-3.624594e-001 
-3.586060e-001 
-3.467373e-001 
-3.329220e-001 
-3.144245e-001 
-2.855626e-001 
-2.533292e-001 
-2.219731e-001 
-1.880749e-001 
-1.448930e-001 
-1.001844e-001 
-5.904085e-002 
-2.009477e-002 
1.849797e-002 
5.391810e-002 
8.394417e-002 
1.102920e-001 
1.364008e-001 
1.589023e-001 
1.692803e-001 
1.738075e-001 
1.770394e-001 
1.781715e-001 
1.757906e-001 
1.737766e-001 
1.735647e-001 
1.755761e-001 
1.779373e-001 
1.790674e-001 
1.819647e-001 
1.799393e-001 
1.722077e-001 
1.640273e-001 
1.588522e-001 
1.572730e-001 
1.588696e-001 
1.583000e-001 
1.550738e-001 
1.475042e-001 
1.341906e-001 
1.257523e-001 
1.245837e-001 
1.261682e-001 
1.386502e-001 
1.480073e-001 
1.292457e-001 
8.684177e-002 
5.746991e-002 
7.334565e-002 
1.286356e-001 
1.240835e-001 
6.704440e-002 
4.506619e-002 
2.206570e-002 
-2.310209e-002 
-4.369102e-002 
-8.989770e-003 
5.692032e-002 
5.567731e-002 
-5.831240e-002 
-1.068213e-001 
-7.096733e-002 
-5.901987e-002 
-5.799849e-002 
-3.925623e-002 
-2.149735e-002 
-3.649949e-002 
-9.642333e-002 
-1.310405e-001 
-8.980790e-002 
-5.610839e-002 
-5.835832e-002 
-7.811132e-002 
-9.792914e-002 
-1.144152e-001 
-1.335042e-001 
-1.509845e-001 
-1.644300e-001 
-1.760008e-001 
-1.829493e-001 
-1.850418e-001 
-1.831923e-001 
-1.751921e-001 
-1.671117e-001 
-1.561910e-001 
-1.372337e-001 
-1.155525e-001 
-9.442711e-002 
-6.934270e-002 
-4.101235e-002 
-1.214694e-002 
1.386322e-002 
3.755680e-002 
6.471884e-002 
8.934547e-002 
1.064882e-001 
1.222052e-001 
1.389026e-001 
1.524314e-001 
1.602087e-001 
1.612358e-001 
1.640499e-001 
1.665193e-001 
1.629921e-001 
1.608190e-001 
1.660649e-001 
1.730738e-001 
1.762689e-001 
1.775946e-001 
1.788388e-001 
1.779135e-001 
1.709642e-001 
1.669067e-001 
1.686470e-001 
1.723820e-001 
1.715721e-001 
1.664123e-001 
1.624446e-001 
1.543856e-001 
1.421376e-001 
1.355159e-001 
1.370784e-001 
1.384273e-001 
1.508205e-001 
1.583535e-001 
1.325854e-001 
9.857104e-002 
7.805893e-002 
1.043770e-001 
1.243828e-001 
6.779965e-002 
2.016668e-002 
2.531633e-002 
2.491290e-003 
-3.915349e-002 
-4.282545e-002 
-2.164639e-003 
4.437287e-002 
-2.267753e-002 
-1.100751e-001 
-7.776478e-002 
-3.467132e-002 
-4.443891e-002 
-4.287657e-002 
-2.334189e-002 
-8.337796e-003 
-2.870967e-002 
-7.135994e-002 
-4.492085e-002 
1.320461e-002 
2.504741e-002 
9.317286e-003 
-1.210576e-002 
-3.102059e-002 
-4.792644e-002 
-6.643503e-002 
-8.491263e-002 
-9.865086e-002 
-1.071600e-001 
-1.170253e-001 
-1.249513e-001 
-1.241159e-001 
-1.167593e-001 
-1.097550e-001 
-9.889568e-002 
-8.164330e-002 
-6.094341e-002 
-4.160179e-002 
-2.324046e-002 
2.453894e-003 
3.253369e-002 
5.861452e-002 
8.038868e-002 
1.038602e-001 
1.257797e-001 
1.401561e-001 
1.509548e-001 
1.631925e-001 
1.739923e-001 
1.779438e-001 
1.779318e-001 
1.747203e-001 
1.726541e-001 
1.701048e-001 
1.687579e-001 
1.730776e-001 
1.784400e-001 
1.748658e-001 
1.662441e-001 
1.601266e-001 
1.530284e-001 
1.498155e-001 
1.507437e-001 
1.545219e-001 
1.560508e-001 
1.485379e-001 
1.332073e-001 
1.270882e-001 
1.261244e-001 
1.218629e-001 
1.210217e-001 
1.350512e-001 
1.469139e-001 
1.234290e-001 
6.648265e-002 
2.842974e-002 
5.100988e-002 
1.077226e-001 
9.416545e-002 
3.711048e-002 
2.430597e-002 
1.681700e-003 
-5.464252e-002 
-8.468472e-002 
-4.289960e-002 
3.915580e-002 
3.569598e-002 
-8.711532e-002 
-1.268121e-001 
-8.438703e-002 
-8.020559e-002 
-8.025514e-002 
-5.048319e-002 
-2.105092e-002 
-3.180751e-002 
-9.481586e-002 
-1.286766e-001 
-8.534647e-002 
-5.716573e-002 
-6.529247e-002 
-8.483583e-002 
-1.122053e-001 
-1.392183e-001 
-1.600717e-001 
-1.795627e-001 
-2.043307e-001 
-2.253065e-001 
-2.345888e-001 
-2.404363e-001 
-2.472911e-001 
-2.471128e-001 
-2.367704e-001 
-2.238489e-001 
-2.119422e-001 
-1.969886e-001 
-1.721165e-001 
-1.422451e-001 
-1.144220e-001 
-8.527789e-002 
-5.227604e-002 
-2.217785e-002 
2.115181e-003 
2.719318e-002 
5.448854e-002 
7.837231e-002 
9.671351e-002 
1.086924e-001 
1.159546e-001 
1.200924e-001 
1.199741e-001 
1.177312e-001 
1.201469e-001 
1.217074e-001 
1.218756e-001 
1.233547e-001 
1.265124e-001 
1.296021e-001 
1.267455e-001 
1.202291e-001 
1.179178e-001 
1.182098e-001 
1.170786e-001 
1.176135e-001 
1.187253e-001 
1.182315e-001 
1.088402e-001 
9.806272e-002 
9.623824e-002 
9.706129e-002 
9.535145e-002 
9.808127e-002 
1.103972e-001 
1.064811e-001 
5.123266e-002 
6.495997e-003 
3.440945e-002 
1.113562e-001 
1.112956e-001 
4.119168e-002 
1.367420e-002 
1.371655e-002 
-3.708370e-002 
-9.372871e-002 
-4.885129e-002 
5.144205e-002 
5.470294e-002 
-8.988738e-002 
-1.543264e-001 
-1.075254e-001 
-9.307063e-002 
-1.135112e-001 
-9.460161e-002 
-5.906566e-002 
-7.890131e-002 
-1.657111e-001 
-2.221336e-001 
-1.830253e-001 
-1.559033e-001 
-1.710003e-001 
-1.971688e-001 
-2.250256e-001 
-2.573226e-001 
-2.881306e-001 
-3.124136e-001 
-3.359911e-001 
-3.612413e-001 
-3.769660e-001 
-3.813242e-001 
-3.811058e-001 
-3.783215e-001 
-3.692818e-001 
-3.511923e-001 
-3.268511e-001 
-3.043310e-001 
-2.770239e-001 
-2.391661e-001 
-1.999298e-001 
-1.625284e-001 
-1.243817e-001 
-8.247518e-002 
-4.145343e-002 
-5.243768e-003 
2.394475e-002 
5.192836e-002 
7.743550e-002 
9.344015e-002 
1.021391e-001 
1.119147e-001 
1.195698e-001 
1.201536e-001 
1.191381e-001 
1.183469e-001 
1.230580e-001 
1.276321e-001 
1.274036e-001 
1.275940e-001 
1.268419e-001 
1.199306e-001 
1.123078e-001 
1.070065e-001 
1.068093e-001 
1.086797e-001 
1.046294e-001 
9.778366e-002 
9.094651e-002 
8.329766e-002 
7.833923e-002 
7.714075e-002 
7.713918e-002 
8.741573e-002 
9.652359e-002 
8.425015e-002 
4.255877e-002 
1.196453e-002 
2.407858e-002 
8.390472e-002 
8.996888e-002 
3.151276e-002 
6.531651e-003 
-5.879162e-003 
-4.789924e-002 
-8.253875e-002 
-5.502910e-002 
1.645503e-002 
3.375180e-002 
-8.222174e-002 
-1.446225e-001 
-1.050703e-001 
-8.723519e-002 
-9.702924e-002 
-8.421192e-002 
-5.940812e-002 
-6.653262e-002 
-1.281687e-001 
-1.760278e-001 
-1.385819e-001 
-1.057554e-001 
-1.166058e-001 
-1.424171e-001 
-1.638689e-001 
-1.828838e-001 
-2.030245e-001 
-2.219438e-001 
-2.367681e-001 
-2.518171e-001 
-2.655033e-001 
-2.699064e-001 
-2.643523e-001 
-2.532975e-001 
-2.425809e-001 
-2.304625e-001 
-2.117699e-001 
-1.888274e-001 
-1.666047e-001 
-1.386491e-001 
-1.031670e-001 
-6.902604e-002 
-4.079303e-002 
-1.569829e-002 
1.096195e-002 
3.623123e-002 
5.471182e-002 
7.019946e-002 
8.718043e-002 
9.991071e-002 
1.034736e-001 
1.048763e-001 
1.083493e-001 
1.098382e-001 
1.114297e-001 
1.165567e-001 
1.260930e-001 
1.334230e-001 
1.307010e-001 
1.241859e-001 
1.224363e-001 
1.211856e-001 
1.221212e-001 
1.286640e-001 
1.358294e-001 
1.381964e-001 
1.295978e-001 
1.179403e-001 
1.150309e-001 
1.168168e-001 
1.192820e-001 
1.271105e-001 
1.457756e-001 
1.512001e-001 
1.136011e-001 
7.530403e-002 
7.033070e-002 
1.111566e-001 
1.167350e-001 
5.204189e-002 
1.756711e-002 
2.269564e-002 
-1.236148e-002 
-5.641748e-002 
-4.255694e-002 
1.143091e-002 
4.009345e-002 
-5.270731e-002 
-1.217269e-001 
-7.467804e-002 
-4.293437e-002 
-5.905127e-002 
-4.745068e-002 
-2.016824e-002 
-1.544026e-002 
-4.966102e-002 
-8.417770e-002 
-3.892878e-002 
1.246247e-002 
1.313273e-002 
-4.397375e-003 
-2.309110e-002 
-4.637634e-002 
-6.946077e-002 
-8.847576e-002 
-1.046767e-001 
-1.210824e-001 
-1.375955e-001 
-1.452917e-001 
-1.490016e-001 
-1.516541e-001 
-1.482537e-001 
-1.399075e-001 
-1.281265e-001 
-1.119655e-001 
-9.452974e-002 
-7.333799e-002 
-4.617659e-002 
-2.382421e-002 
-1.431720e-005 
2.742595e-002 
5.247596e-002 
7.466455e-002 
9.735896e-002 
1.163237e-001 
1.318019e-001 
1.438146e-001 
1.470117e-001 
1.514593e-001 
1.572658e-001 
1.570296e-001 
1.563796e-001 
1.604554e-001 
1.627139e-001 
1.676922e-001 
1.722963e-001 
1.698121e-001 
1.676877e-001 
1.639495e-001 
1.606989e-001 
1.649435e-001 
1.710768e-001 
1.716807e-001 
1.716092e-001 
1.687509e-001 
1.623626e-001 
1.576986e-001 
1.565321e-001 
1.606071e-001 
1.739213e-001 
1.880256e-001 
1.747583e-001 
1.241197e-001 
8.601271e-002 
1.086131e-001 
1.644468e-001 
1.425036e-001 
7.954513e-002 
6.664127e-002 
5.579724e-002 
1.763542e-003 
-4.093864e-002 
3.461562e-003 
9.016934e-002 
6.928468e-002 
-6.246324e-002 
-8.908898e-002 
-4.093451e-002 
-3.727826e-002 
-4.919302e-002 
-2.656680e-002 
7.674658e-003 
-8.142568e-003 
-7.769008e-002 
-1.044869e-001 
-5.656184e-002 
-3.057908e-002 
-3.976285e-002 
-6.317600e-002 
-9.005623e-002 
-1.172896e-001 
-1.418224e-001 
-1.649510e-001 
-1.917926e-001 
-2.113690e-001 
-2.205655e-001 
-2.293576e-001 
-2.344430e-001 
-2.343555e-001 
-2.258527e-001 
-2.093774e-001 
-1.946479e-001 
-1.776066e-001 
-1.503498e-001 
-1.245829e-001 
-9.755660e-002 
-6.442313e-002 
-3.181523e-002 
3.016362e-003 
3.316268e-002 
5.798789e-002 
8.528278e-002 
1.081448e-001 
1.235822e-001 
1.398576e-001 
1.521102e-001 
1.553721e-001 
1.547104e-001 
1.531418e-001 
1.539248e-001 
1.544958e-001 
1.562952e-001 
1.632077e-001 
1.673590e-001 
1.610328e-001 
1.496695e-001 
1.446602e-001 
1.447832e-001 
1.449734e-001 
1.467592e-001 
1.484817e-001 
1.461667e-001 
1.349072e-001 
1.220084e-001 
1.177507e-001 
1.210009e-001 
1.226839e-001 
1.347413e-001 
1.431519e-001 
1.143189e-001 
5.008630e-002 
1.507656e-002 
6.019320e-002 
1.394611e-001 
1.245000e-001 
6.204934e-002 
4.941001e-002 
2.233154e-002 
-4.427448e-002 
-7.648772e-002 
-7.579398e-003 
9.151725e-002 
5.813468e-002 
-9.619350e-002 
-1.300628e-001 
-8.734082e-002 
-9.429734e-002 
-1.032567e-001 
-7.173291e-002 
-4.215210e-002 
-8.451690e-002 
-1.909528e-001 
-2.393307e-001 
-1.981177e-001 
-1.881503e-001 
-2.139148e-001 
-2.438460e-001 
-2.711710e-001 
-2.999532e-001 
-3.362184e-001 
-3.676615e-001 
-3.884402e-001 
-4.070513e-001 
-4.197013e-001 
-4.216300e-001 
-4.157129e-001 
-4.038229e-001 
-3.900809e-001 
-3.759576e-001 
-3.488741e-001 
-3.150663e-001 
-2.787579e-001 
-2.359386e-001 
-1.913837e-001 
-1.489864e-001 
-1.077733e-001 
-6.910204e-002 
-3.410377e-002 
1.336179e-003 
3.473329e-002 
6.456451e-002 
8.819929e-002 
1.036573e-001 
1.126073e-001 
1.185520e-001 
1.216885e-001 
1.205939e-001 
1.207610e-001 
1.226410e-001 
1.261996e-001 
1.316308e-001 
1.351377e-001 
1.397070e-001 
1.430148e-001 
1.388973e-001 
1.315401e-001 
1.286572e-001 
1.294863e-001 
1.343649e-001 
1.375034e-001 
1.368006e-001 
1.337571e-001 
1.233363e-001 
1.125626e-001 
1.102688e-001 
1.128484e-001 
1.162908e-001 
1.299154e-001 
1.326730e-001 
1.000907e-001 
5.230181e-002 
3.045626e-002 
6.933839e-002 
1.320909e-001 
1.045307e-001 
4.630036e-002 
3.637808e-002 
6.851156e-003 
-4.097612e-002 
-4.619937e-002 
7.594524e-003 
8.211775e-002 
4.304811e-002 
-9.270339e-002 
-1.056590e-001 
-5.591667e-002 
-5.662352e-002 
-5.223836e-002 
-2.380759e-002 
-1.088406e-002 
-4.384051e-002 
-1.220948e-001 
-1.420508e-001 
-8.711844e-002 
-6.966669e-002 
-9.046858e-002 
-1.123062e-001 
-1.356526e-001 
-1.591542e-001 
-1.761941e-001 
-1.930498e-001 
-2.074068e-001 
-2.170134e-001 
-2.240511e-001 
-2.271276e-001 
-2.227738e-001 
-2.134993e-001 
-1.978897e-001 
-1.814192e-001 
-1.611636e-001 
-1.335222e-001 
-1.037291e-001 
-7.386891e-002 
-4.338615e-002 
-1.194049e-002 
1.880449e-002 
4.514459e-002 
7.200435e-002 
1.020043e-001 
1.238124e-001 
1.400823e-001 
1.539761e-001 
1.613492e-001 
1.655961e-001 
1.678796e-001 
1.709570e-001 
1.766131e-001 
1.766158e-001 
1.775224e-001 
1.840773e-001 
1.873383e-001 
1.905604e-001 
1.922268e-001 
1.898405e-001 
1.895024e-001 
1.861727e-001 
1.862715e-001 
1.939119e-001 
1.919327e-001 
1.878963e-001 
1.858589e-001 
1.766625e-001 
1.693938e-001 
1.678803e-001 
1.701155e-001 
1.899311e-001 
2.014259e-001 
1.790440e-001 
1.402326e-001 
1.118180e-001 
1.232124e-001 
1.715150e-001 
1.545333e-001 
1.006564e-001 
8.930161e-002 
6.639096e-002 
2.138280e-002 
1.543716e-003 
3.359256e-002 
9.863497e-002 
8.878738e-002 
-2.818344e-002 
-5.589110e-002 
-1.290102e-002 
-8.604299e-003 
-1.191539e-002 
6.804633e-003 
2.623744e-002 
1.309369e-002 
-4.470794e-002 
-6.953707e-002 
-1.961801e-002 
8.665714e-003 
-1.387590e-003 
-2.458534e-002 
-4.885563e-002 
-7.256866e-002 
-9.289589e-002 
-1.121026e-001 
-1.319288e-001 
-1.442223e-001 
-1.517532e-001 
-1.599015e-001 
-1.615358e-001 
-1.576651e-001 
-1.487203e-001 
-1.354286e-001 
-1.220807e-001 
-1.026110e-001 
-7.661301e-002 
-5.311244e-002 
-2.795271e-002 
3.263861e-003 
2.994500e-002 
5.309592e-002 
7.592550e-002 
1.003432e-001 
1.242898e-001 
1.393539e-001 
1.496953e-001 
1.618674e-001 
1.698184e-001 
1.688950e-001 
1.694555e-001 
1.751049e-001 
1.824385e-001 
1.865463e-001 
1.896119e-001 
1.976764e-001 
2.024900e-001 
1.996203e-001 
1.944115e-001 
1.948872e-001 
2.007431e-001 
2.077623e-001 
2.117133e-001 
2.135980e-001 
2.132643e-001 
2.044807e-001 
1.956730e-001 
1.925034e-001 
1.950700e-001 
2.054427e-001 
2.189559e-001 
2.078162e-001 
1.567917e-001 
1.107521e-001 
1.160899e-001 
1.741261e-001 
1.705902e-001 
1.005124e-001 
7.084754e-002 
6.241490e-002 
1.136247e-002 
-3.816287e-002 
-9.259236e-003 
7.417389e-002 
8.281858e-002 
-4.942733e-002 
-1.122266e-001 
-6.119801e-002 
-4.147137e-002 
-5.848397e-002 
-4.392741e-002 
-1.094767e-002 
-1.865592e-002 
-8.689681e-002 
-1.337817e-001 
-8.710544e-002 
-4.642682e-002 
-5.814331e-002 
-8.633599e-002 
-1.099123e-001 
-1.334561e-001 
-1.582046e-001 
-1.822254e-001 
-2.080310e-001 
-2.276139e-001 
-2.419379e-001 
-2.535382e-001 
-2.549719e-001 
-2.493579e-001 
-2.433033e-001 
-2.329691e-001 
-2.214071e-001 
-2.045081e-001 
-1.780932e-001 
-1.508747e-001 
-1.216295e-001 
-8.903177e-002 
-6.233085e-002 
-3.629939e-002 
-7.214753e-003 
2.190900e-002 
5.022729e-002 
7.318423e-002 
8.995237e-002 
1.018028e-001 
1.074995e-001 
1.102646e-001 
1.142412e-001 
1.163295e-001 
1.144234e-001 
1.106468e-001 
1.110448e-001 
1.121012e-001 
1.122059e-001 
1.161610e-001 
1.197439e-001 
1.168702e-001 
1.084847e-001 
1.027208e-001 
1.025997e-001 
1.060140e-001 
1.055284e-001 
1.040893e-001 
1.034666e-001 
9.670107e-002 
8.682185e-002 
8.484819e-002 
8.802076e-002 
9.341268e-002 
1.064826e-001 
9.763774e-002 
3.991364e-002 
-6.789468e-003 
1.493974e-002 
8.826774e-002 
8.739887e-002 
2.012826e-002 
9.149956e-004 
1.511518e-003 
-5.221075e-002 
-1.086888e-001 
-6.248616e-002 
4.074628e-002 
4.010693e-002 
-1.027201e-001 
-1.531015e-001 
-1.021799e-001 
-9.123726e-002 
-1.096503e-001 
-9.297716e-002 
-5.507537e-002 
-6.771381e-002 
-1.498028e-001 
-2.007208e-001 
-1.605954e-001 
-1.351453e-001 
-1.521238e-001 
-1.852291e-001 
-2.165278e-001 
-2.387788e-001 
-2.611208e-001 
-2.900357e-001 
-3.167980e-001 
-3.378266e-001 
-3.541640e-001 
-3.673089e-001 
-3.717480e-001 
-3.639650e-001 
-3.504496e-001 
-3.376461e-001 
-3.209765e-001 
-2.963786e-001 
-2.699140e-001 
-2.387744e-001 
-2.026737e-001 
-1.623180e-001 
-1.210057e-001 
-8.556430e-002 
-5.118506e-002 
-1.690450e-002 
1.411978e-002 
4.170903e-002 
6.635056e-002 
