     Time	   ECG1	   ECG2
(hh:mm:ss.mmm)	   (mV)	   (mV)
[09:56:00.000]	 -0.435	 -0.425
[09:56:00.008]	 -0.435	 -0.415
[09:56:00.016]	 -0.415	 -0.405
[09:56:00.023]	 -0.405	 -0.405
[09:56:00.031]	 -0.395	 -0.395
[09:56:00.039]	 -0.385	 -0.385
[09:56:00.047]	 -0.375	 -0.375
[09:56:00.055]	 -0.375	 -0.385
[09:56:00.063]	 -0.355	 -0.365
[09:56:00.070]	 -0.355	 -0.365
[09:56:00.078]	 -0.345	 -0.355
[09:56:00.086]	 -0.345	 -0.345
[09:56:00.094]	 -0.325	 -0.345
[09:56:00.102]	 -0.325	 -0.335
[09:56:00.109]	 -0.325	 -0.335
[09:56:00.117]	 -0.325	 -0.325
[09:56:00.125]	 -0.325	 -0.315
[09:56:00.133]	 -0.325	 -0.325
[09:56:00.141]	 -0.325	 -0.315
[09:56:00.148]	 -0.325	 -0.305
[09:56:00.156]	 -0.325	 -0.295
[09:56:00.164]	 -0.325	 -0.295
[09:56:00.172]	 -0.315	 -0.295
[09:56:00.180]	 -0.315	 -0.285
[09:56:00.188]	 -0.325	 -0.285
[09:56:00.195]	 -0.325	 -0.275
[09:56:00.203]	 -0.305	 -0.275
[09:56:00.211]	 -0.315	 -0.265
[09:56:00.219]	 -0.305	 -0.255
[09:56:00.227]	 -0.305	 -0.255
[09:56:00.234]	 -0.305	 -0.245
[09:56:00.242]	 -0.305	 -0.245
[09:56:00.250]	 -0.295	 -0.245
[09:56:00.258]	 -0.295	 -0.235
[09:56:00.266]	 -0.295	 -0.235
[09:56:00.273]	 -0.285	 -0.225
[09:56:00.281]	 -0.275	 -0.215
[09:56:00.289]	 -0.275	 -0.215
[09:56:00.297]	 -0.275	 -0.215
[09:56:00.305]	 -0.275	 -0.205
[09:56:00.313]	 -0.265	 -0.195
[09:56:00.320]	 -0.255	 -0.195
[09:56:00.328]	 -0.255	 -0.185
[09:56:00.336]	 -0.255	 -0.175
[09:56:00.344]	 -0.235	 -0.165
[09:56:00.352]	 -0.235	 -0.155
[09:56:00.359]	 -0.215	 -0.145
[09:56:00.367]	 -0.175	  0.485
[09:56:00.375]	  0.405	  0.515
[09:56:00.383]	  0.415	  0.495
[09:56:00.391]	  0.415	  0.485
[09:56:00.398]	  0.405	  0.485
[09:56:00.406]	  0.405	  0.485
[09:56:00.414]	  0.395	  0.475
[09:56:00.422]	  0.395	  0.465
[09:56:00.430]	  0.385	  0.465
[09:56:00.438]	  0.375	  0.455
[09:56:00.445]	  0.375	  0.455
[09:56:00.453]	  0.375	  0.445
[09:56:00.461]	  0.355	  0.435
[09:56:00.469]	  0.355	  0.425
[09:56:00.477]	  0.345	  0.425
[09:56:00.484]	  0.335	  0.415
[09:56:00.492]	  0.335	  0.415
[09:56:00.500]	  0.325	  0.395
[09:56:00.508]	  0.315	  0.395
[09:56:00.516]	  0.315	  0.385
[09:56:00.523]	  0.305	  0.385
[09:56:00.531]	  0.305	  0.375
[09:56:00.539]	  0.295	  0.365
[09:56:00.547]	  0.285	  0.365
[09:56:00.555]	  0.275	  0.355
[09:56:00.563]	  0.275	  0.355
[09:56:00.570]	  0.275	  0.345
[09:56:00.578]	  0.265	  0.335
[09:56:00.586]	  0.255	  0.335
[09:56:00.594]	  0.245	  0.325
[09:56:00.602]	  0.245	  0.325
[09:56:00.609]	  0.235	  0.325
[09:56:00.617]	  0.225	  0.315
[09:56:00.625]	  0.225	  0.305
[09:56:00.633]	  0.225	  0.305
[09:56:00.641]	  0.215	  0.295
[09:56:00.648]	  0.205	  0.295
[09:56:00.656]	  0.205	  0.295
[09:56:00.664]	  0.195	  0.285
[09:56:00.672]	  0.195	  0.275
[09:56:00.680]	  0.185	  0.275
[09:56:00.688]	  0.185	  0.265
[09:56:00.695]	  0.185	  0.265
[09:56:00.703]	  0.175	  0.265
[09:56:00.711]	  0.175	  0.245
[09:56:00.719]	  0.165	  0.245
[09:56:00.727]	  0.155	  0.245
[09:56:00.734]	  0.155	  0.235
[09:56:00.742]	  0.145	  0.235
[09:56:00.750]	  0.145	  0.225
[09:56:00.758]	  0.135	  0.225
[09:56:00.766]	  0.135	  0.215
[09:56:00.773]	  0.125	  0.215
[09:56:00.781]	  0.125	  0.215
[09:56:00.789]	  0.125	  0.205
[09:56:00.797]	  0.115	  0.205
[09:56:00.805]	  0.105	  0.195
[09:56:00.813]	  0.105	  0.185
[09:56:00.820]	  0.095	  0.175
[09:56:00.828]	  0.095	  0.175
[09:56:00.836]	  0.075	  0.165
[09:56:00.844]	  0.075	  0.155
[09:56:00.852]	  0.065	  0.145
[09:56:00.859]	  0.045	  0.145
[09:56:00.867]	 -0.065	 -0.545
[09:56:00.875]	 -0.615	 -0.545
[09:56:00.883]	 -0.605	 -0.515
[09:56:00.891]	 -0.595	 -0.515
[09:56:00.898]	 -0.595	 -0.505
[09:56:00.906]	 -0.585	 -0.515
[09:56:00.914]	 -0.585	 -0.505
[09:56:00.922]	 -0.585	 -0.495
[09:56:00.930]	 -0.575	 -0.495
[09:56:00.938]	 -0.565	 -0.485
[09:56:00.945]	 -0.555	 -0.475
[09:56:00.953]	 -0.555	 -0.475
[09:56:00.961]	 -0.555	 -0.465
[09:56:00.969]	 -0.545	 -0.455
[09:56:00.977]	 -0.535	 -0.445
[09:56:00.984]	 -0.525	 -0.445
[09:56:00.992]	 -0.525	 -0.435
[09:56:01.000]	 -0.515	 -0.425
[09:56:01.008]	 -0.515	 -0.425
[09:56:01.016]	 -0.495	 -0.415
[09:56:01.023]	 -0.495	 -0.415
[09:56:01.031]	 -0.495	 -0.415
[09:56:01.039]	 -0.485	 -0.405
[09:56:01.047]	 -0.475	 -0.395
[09:56:01.055]	 -0.475	 -0.385
[09:56:01.063]	 -0.465	 -0.385
[09:56:01.070]	 -0.455	 -0.375
[09:56:01.078]	 -0.455	 -0.365
[09:56:01.086]	 -0.445	 -0.365
[09:56:01.094]	 -0.435	 -0.355
[09:56:01.102]	 -0.435	 -0.355
[09:56:01.109]	 -0.425	 -0.345
[09:56:01.117]	 -0.425	 -0.345
[09:56:01.125]	 -0.415	 -0.335
[09:56:01.133]	 -0.415	 -0.325
[09:56:01.141]	 -0.405	 -0.325
[09:56:01.148]	 -0.405	 -0.325
[09:56:01.156]	 -0.395	 -0.315
[09:56:01.164]	 -0.385	 -0.305
[09:56:01.172]	 -0.385	 -0.305
[09:56:01.180]	 -0.385	 -0.305
[09:56:01.188]	 -0.365	 -0.295
[09:56:01.195]	 -0.365	 -0.295
[09:56:01.203]	 -0.355	 -0.285
[09:56:01.211]	 -0.355	 -0.275
[09:56:01.219]	 -0.345	 -0.275
[09:56:01.227]	 -0.345	 -0.275
[09:56:01.234]	 -0.335	 -0.265
[09:56:01.242]	 -0.335	 -0.255
[09:56:01.250]	 -0.325	 -0.255
[09:56:01.258]	 -0.325	 -0.255
[09:56:01.266]	 -0.315	 -0.245
[09:56:01.273]	 -0.305	 -0.245
[09:56:01.281]	 -0.305	 -0.235
[09:56:01.289]	 -0.295	 -0.235
[09:56:01.297]	 -0.295	 -0.225
[09:56:01.305]	 -0.285	 -0.225
[09:56:01.313]	 -0.275	 -0.215
[09:56:01.320]	 -0.265	 -0.215
[09:56:01.328]	 -0.265	 -0.205
[09:56:01.336]	 -0.265	 -0.195
[09:56:01.344]	 -0.245	 -0.185
[09:56:01.352]	 -0.235	 -0.175
[09:56:01.359]	 -0.215	 -0.175
[09:56:01.367]	 -0.075	  0.505
[09:56:01.375]	  0.475	  0.505
[09:56:01.383]	  0.445	  0.485
[09:56:01.391]	  0.435	  0.475
[09:56:01.398]	  0.425	  0.475
[09:56:01.406]	  0.425	  0.465
[09:56:01.414]	  0.415	  0.455
[09:56:01.422]	  0.405	  0.455
[09:56:01.430]	  0.395	  0.445
[09:56:01.438]	  0.395	  0.445
[09:56:01.445]	  0.385	  0.425
[09:56:01.453]	  0.385	  0.425
[09:56:01.461]	  0.375	  0.415
[09:56:01.469]	  0.365	  0.415
[09:56:01.477]	  0.365	  0.405
[09:56:01.484]	  0.355	  0.395
[09:56:01.492]	  0.345	  0.395
[09:56:01.500]	  0.345	  0.385
[09:56:01.508]	  0.335	  0.375
[09:56:01.516]	  0.325	  0.375
[09:56:01.523]	  0.315	  0.365
[09:56:01.531]	  0.315	  0.355
[09:56:01.539]	  0.315	  0.355
[09:56:01.547]	  0.305	  0.345
[09:56:01.555]	  0.295	  0.345
[09:56:01.563]	  0.295	  0.335
[09:56:01.570]	  0.285	  0.325
[09:56:01.578]	  0.285	  0.325
[09:56:01.586]	  0.275	  0.315
[09:56:01.594]	  0.265	  0.315
[09:56:01.602]	  0.265	  0.305
[09:56:01.609]	  0.265	  0.295
[09:56:01.617]	  0.255	  0.295
[09:56:01.625]	  0.245	  0.295
[09:56:01.633]	  0.235	  0.285
[09:56:01.641]	  0.235	  0.285
[09:56:01.648]	  0.225	  0.275
[09:56:01.656]	  0.225	  0.265
[09:56:01.664]	  0.215	  0.265
[09:56:01.672]	  0.215	  0.265
[09:56:01.680]	  0.205	  0.255
[09:56:01.688]	  0.205	  0.245
[09:56:01.695]	  0.195	  0.245
[09:56:01.703]	  0.185	  0.235
[09:56:01.711]	  0.175	  0.235
[09:56:01.719]	  0.175	  0.235
[09:56:01.727]	  0.175	  0.225
[09:56:01.734]	  0.165	  0.225
[09:56:01.742]	  0.155	  0.215
[09:56:01.750]	  0.155	  0.215
[09:56:01.758]	  0.145	  0.205
[09:56:01.766]	  0.135	  0.205
[09:56:01.773]	  0.135	  0.195
[09:56:01.781]	  0.125	  0.195
[09:56:01.789]	  0.115	  0.195
[09:56:01.797]	  0.115	  0.185
[09:56:01.805]	  0.105	  0.185
[09:56:01.813]	  0.105	  0.175
[09:56:01.820]	  0.095	  0.175
[09:56:01.828]	  0.085	  0.165
[09:56:01.836]	  0.085	  0.155
[09:56:01.844]	  0.075	  0.145
[09:56:01.852]	  0.065	  0.135
[09:56:01.859]	  0.045	  0.135
[09:56:01.867]	 -0.025	 -0.535
[09:56:01.875]	 -0.635	 -0.555
[09:56:01.883]	 -0.625	 -0.535
[09:56:01.891]	 -0.605	 -0.535
[09:56:01.898]	 -0.605	 -0.515
[09:56:01.906]	 -0.595	 -0.515
[09:56:01.914]	 -0.595	 -0.515
[09:56:01.922]	 -0.585	 -0.495
[09:56:01.930]	 -0.585	 -0.505
[09:56:01.938]	 -0.575	 -0.485
[09:56:01.945]	 -0.565	 -0.485
[09:56:01.953]	 -0.555	 -0.475
[09:56:01.961]	 -0.545	 -0.465
[09:56:01.969]	 -0.535	 -0.465
[09:56:01.977]	 -0.535	 -0.455
[09:56:01.984]	 -0.525	 -0.445
[09:56:01.992]	 -0.525	 -0.435
[09:56:02.000]	 -0.515	 -0.435
[09:56:02.008]	 -0.505	 -0.425
[09:56:02.016]	 -0.495	 -0.425
[09:56:02.023]	 -0.495	 -0.405
[09:56:02.031]	 -0.485	 -0.405
[09:56:02.039]	 -0.475	 -0.405
[09:56:02.047]	 -0.465	 -0.395
[09:56:02.055]	 -0.465	 -0.385
[09:56:02.063]	 -0.455	 -0.375
[09:56:02.070]	 -0.445	 -0.375
[09:56:02.078]	 -0.435	 -0.365
[09:56:02.086]	 -0.435	 -0.365
[09:56:02.094]	 -0.425	 -0.355
[09:56:02.102]	 -0.425	 -0.345
[09:56:02.109]	 -0.405	 -0.335
[09:56:02.117]	 -0.405	 -0.335
[09:56:02.125]	 -0.395	 -0.335
[09:56:02.133]	 -0.395	 -0.325
[09:56:02.141]	 -0.385	 -0.315
[09:56:02.148]	 -0.375	 -0.315
[09:56:02.156]	 -0.365	 -0.305
[09:56:02.164]	 -0.365	 -0.305
[09:56:02.172]	 -0.355	 -0.295
[09:56:02.180]	 -0.355	 -0.285
[09:56:02.188]	 -0.345	 -0.285
[09:56:02.195]	 -0.335	 -0.275
[09:56:02.203]	 -0.325	 -0.275
[09:56:02.211]	 -0.335	 -0.265
[09:56:02.219]	 -0.325	 -0.265
[09:56:02.227]	 -0.325	 -0.265
[09:56:02.234]	 -0.315	 -0.245
[09:56:02.242]	 -0.305	 -0.245
[09:56:02.250]	 -0.305	 -0.245
[09:56:02.258]	 -0.295	 -0.245
[09:56:02.266]	 -0.295	 -0.225
[09:56:02.273]	 -0.295	 -0.225
[09:56:02.281]	 -0.285	 -0.215
[09:56:02.289]	 -0.275	 -0.215
[09:56:02.297]	 -0.275	 -0.215
[09:56:02.305]	 -0.265	 -0.195
[09:56:02.313]	 -0.265	 -0.195
[09:56:02.320]	 -0.265	 -0.195
[09:56:02.328]	 -0.255	 -0.185
[09:56:02.336]	 -0.255	 -0.185
[09:56:02.344]	 -0.235	 -0.165
[09:56:02.352]	 -0.225	 -0.155
[09:56:02.359]	 -0.205	 -0.135
[09:56:02.367]	 -0.175	  0.455
[09:56:02.375]	  0.405	  0.525
[09:56:02.383]	  0.435	  0.515
[09:56:02.391]	  0.425	  0.505
[09:56:02.398]	  0.415	  0.505
[09:56:02.406]	  0.415	  0.495
[09:56:02.414]	  0.415	  0.485
[09:56:02.422]	  0.405	  0.485
[09:56:02.430]	  0.395	  0.475
[09:56:02.438]	  0.395	  0.465
[09:56:02.445]	  0.385	  0.465
[09:56:02.453]	  0.385	  0.455
[09:56:02.461]	  0.375	  0.445
[09:56:02.469]	  0.365	  0.435
[09:56:02.477]	  0.365	  0.435
[09:56:02.484]	  0.355	  0.425
[09:56:02.492]	  0.345	  0.415
[09:56:02.500]	  0.345	  0.415
[09:56:02.508]	  0.335	  0.405
[09:56:02.516]	  0.325	  0.405
[09:56:02.523]	  0.315	  0.395
[09:56:02.531]	  0.315	  0.385
[09:56:02.539]	  0.305	  0.385
[09:56:02.547]	  0.305	  0.375
[09:56:02.555]	  0.295	  0.375
[09:56:02.563]	  0.285	  0.365
[09:56:02.570]	  0.285	  0.365
[09:56:02.578]	  0.275	  0.355
[09:56:02.586]	  0.275	  0.345
[09:56:02.594]	  0.265	  0.345
[09:56:02.602]	  0.255	  0.335
[09:56:02.609]	  0.255	  0.335
[09:56:02.617]	  0.255	  0.335
[09:56:02.625]	  0.245	  0.315
[09:56:02.633]	  0.235	  0.315
[09:56:02.641]	  0.235	  0.315
[09:56:02.648]	  0.215	  0.305
[09:56:02.656]	  0.225	  0.305
[09:56:02.664]	  0.215	  0.295
[09:56:02.672]	  0.205	  0.295
[09:56:02.680]	  0.195	  0.285
[09:56:02.688]	  0.185	  0.285
[09:56:02.695]	  0.185	  0.285
[09:56:02.703]	  0.175	  0.265
[09:56:02.711]	  0.165	  0.265
[09:56:02.719]	  0.165	  0.265
[09:56:02.727]	  0.155	  0.265
[09:56:02.734]	  0.145	  0.255
[09:56:02.742]	  0.145	  0.245
[09:56:02.750]	  0.145	  0.245
[09:56:02.758]	  0.135	  0.245
[09:56:02.766]	  0.125	  0.235
[09:56:02.773]	  0.125	  0.235
[09:56:02.781]	  0.125	  0.225
[09:56:02.789]	  0.115	  0.225
[09:56:02.797]	  0.115	  0.215
[09:56:02.805]	  0.105	  0.215
[09:56:02.813]	  0.105	  0.205
[09:56:02.820]	  0.095	  0.205
[09:56:02.828]	  0.085	  0.195
[09:56:02.836]	  0.075	  0.185
[09:56:02.844]	  0.075	  0.175
[09:56:02.852]	  0.055	  0.165
[09:56:02.859]	  0.045	  0.155
[09:56:02.867]	 -0.145	 -0.515
[09:56:02.875]	 -0.625	 -0.515
[09:56:02.883]	 -0.605	 -0.495
[09:56:02.891]	 -0.605	 -0.485
[09:56:02.898]	 -0.595	 -0.475
[09:56:02.906]	 -0.585	 -0.475
[09:56:02.914]	 -0.585	 -0.475
[09:56:02.922]	 -0.585	 -0.465
[09:56:02.930]	 -0.575	 -0.455
[09:56:02.938]	 -0.565	 -0.455
[09:56:02.945]	 -0.575	 -0.445
[09:56:02.953]	 -0.555	 -0.435
[09:56:02.961]	 -0.555	 -0.435
[09:56:02.969]	 -0.545	 -0.425
[09:56:02.977]	 -0.545	 -0.415
[09:56:02.984]	 -0.525	 -0.405
[09:56:02.992]	 -0.525	 -0.405
[09:56:03.000]	 -0.515	 -0.395
[09:56:03.008]	 -0.515	 -0.385
[09:56:03.016]	 -0.505	 -0.385
[09:56:03.023]	 -0.495	 -0.375
[09:56:03.031]	 -0.495	 -0.365
[09:56:03.039]	 -0.485	 -0.365
[09:56:03.047]	 -0.485	 -0.355
[09:56:03.055]	 -0.475	 -0.345
[09:56:03.063]	 -0.465	 -0.335
[09:56:03.070]	 -0.455	 -0.335
[09:56:03.078]	 -0.455	 -0.325
[09:56:03.086]	 -0.455	 -0.315
[09:56:03.094]	 -0.445	 -0.315
[09:56:03.102]	 -0.435	 -0.305
[09:56:03.109]	 -0.425	 -0.305
[09:56:03.117]	 -0.425	 -0.295
[09:56:03.125]	 -0.415	 -0.285
[09:56:03.133]	 -0.415	 -0.285
[09:56:03.141]	 -0.405	 -0.275
[09:56:03.148]	 -0.405	 -0.275
[09:56:03.156]	 -0.395	 -0.275
[09:56:03.164]	 -0.395	 -0.265
[09:56:03.172]	 -0.385	 -0.245
[09:56:03.180]	 -0.385	 -0.245
[09:56:03.188]	 -0.375	 -0.245
[09:56:03.195]	 -0.365	 -0.245
[09:56:03.203]	 -0.355	 -0.235
[09:56:03.211]	 -0.365	 -0.235
[09:56:03.219]	 -0.345	 -0.225
[09:56:03.227]	 -0.345	 -0.215
[09:56:03.234]	 -0.335	 -0.215
[09:56:03.242]	 -0.335	 -0.215
[09:56:03.250]	 -0.325	 -0.205
[09:56:03.258]	 -0.325	 -0.205
[09:56:03.266]	 -0.315	 -0.205
[09:56:03.273]	 -0.315	 -0.195
[09:56:03.281]	 -0.305	 -0.185
[09:56:03.289]	 -0.295	 -0.185
[09:56:03.297]	 -0.285	 -0.175
[09:56:03.305]	 -0.285	 -0.175
[09:56:03.313]	 -0.275	 -0.165
[09:56:03.320]	 -0.275	 -0.165
[09:56:03.328]	 -0.265	 -0.155
[09:56:03.336]	 -0.255	 -0.155
[09:56:03.344]	 -0.245	 -0.145
[09:56:03.352]	 -0.235	 -0.135
[09:56:03.359]	 -0.215	 -0.135
[09:56:03.367]	 -0.175	  0.505
[09:56:03.375]	  0.445	  0.545
[09:56:03.383]	  0.445	  0.515
[09:56:03.391]	  0.435	  0.515
[09:56:03.398]	  0.425	  0.505
[09:56:03.406]	  0.415	  0.505
[09:56:03.414]	  0.405	  0.495
[09:56:03.422]	  0.405	  0.495
[09:56:03.430]	  0.395	  0.485
[09:56:03.438]	  0.395	  0.475
[09:56:03.445]	  0.375	  0.475
[09:56:03.453]	  0.365	  0.465
[09:56:03.461]	  0.365	  0.455
[09:56:03.469]	  0.355	  0.455
[09:56:03.477]	  0.355	  0.445
[09:56:03.484]	  0.335	  0.435
[09:56:03.492]	  0.325	  0.435
[09:56:03.500]	  0.325	  0.425
[09:56:03.508]	  0.315	  0.425
[09:56:03.516]	  0.315	  0.415
[09:56:03.523]	  0.295	  0.405
[09:56:03.531]	  0.295	  0.395
[09:56:03.539]	  0.285	  0.395
[09:56:03.547]	  0.285	  0.395
[09:56:03.555]	  0.265	  0.375
[09:56:03.563]	  0.265	  0.375
[09:56:03.570]	  0.265	  0.375
[09:56:03.578]	  0.255	  0.365
[09:56:03.586]	  0.245	  0.365
[09:56:03.594]	  0.245	  0.355
[09:56:03.602]	  0.235	  0.345
[09:56:03.609]	  0.225	  0.345
[09:56:03.617]	  0.215	  0.345
[09:56:03.625]	  0.215	  0.335
[09:56:03.633]	  0.205	  0.325
[09:56:03.641]	  0.195	  0.325
[09:56:03.648]	  0.195	  0.325
[09:56:03.656]	  0.185	  0.315
[09:56:03.664]	  0.185	  0.315
[09:56:03.672]	  0.175	  0.305
[09:56:03.680]	  0.165	  0.295
[09:56:03.688]	  0.165	  0.295
[09:56:03.695]	  0.165	  0.285
[09:56:03.703]	  0.155	  0.285
[09:56:03.711]	  0.155	  0.275
[09:56:03.719]	  0.145	  0.275
[09:56:03.727]	  0.145	  0.275
[09:56:03.734]	  0.135	  0.265
[09:56:03.742]	  0.135	  0.265
[09:56:03.750]	  0.135	  0.255
[09:56:03.758]	  0.125	  0.255
[09:56:03.766]	  0.125	  0.245
[09:56:03.773]	  0.115	  0.245
[09:56:03.781]	  0.115	  0.245
[09:56:03.789]	  0.105	  0.225
[09:56:03.797]	  0.105	  0.235
[09:56:03.805]	  0.095	  0.225
[09:56:03.813]	  0.095	  0.215
[09:56:03.820]	  0.085	  0.215
[09:56:03.828]	  0.085	  0.205
[09:56:03.836]	  0.085	  0.205
[09:56:03.844]	  0.075	  0.185
[09:56:03.852]	  0.055	  0.175
[09:56:03.859]	  0.045	  0.155
[09:56:03.867]	  0.025	 -0.395
[09:56:03.875]	 -0.565	 -0.515
[09:56:03.883]	 -0.615	 -0.495
[09:56:03.891]	 -0.605	 -0.485
[09:56:03.898]	 -0.605	 -0.475
[09:56:03.906]	 -0.595	 -0.475
[09:56:03.914]	 -0.585	 -0.465
[09:56:03.922]	 -0.585	 -0.465
[09:56:03.930]	 -0.585	 -0.455
[09:56:03.938]	 -0.575	 -0.445
[09:56:03.945]	 -0.575	 -0.445
[09:56:03.953]	 -0.555	 -0.435
[09:56:03.961]	 -0.555	 -0.435
[09:56:03.969]	 -0.555	 -0.425
[09:56:03.977]	 -0.545	 -0.415
[09:56:03.984]	 -0.535	 -0.405
[09:56:03.992]	 -0.535	 -0.395
[09:56:04.000]	 -0.525	 -0.395
[09:56:04.008]	 -0.515	 -0.385
[09:56:04.016]	 -0.505	 -0.385
[09:56:04.023]	 -0.515	 -0.375
[09:56:04.031]	 -0.495	 -0.365
[09:56:04.039]	 -0.495	 -0.365
[09:56:04.047]	 -0.485	 -0.355
[09:56:04.055]	 -0.485	 -0.355
[09:56:04.063]	 -0.475	 -0.345
[09:56:04.070]	 -0.465	 -0.345
[09:56:04.078]	 -0.455	 -0.335
[09:56:04.086]	 -0.455	 -0.325
[09:56:04.094]	 -0.445	 -0.325
[09:56:04.102]	 -0.445	 -0.315
[09:56:04.109]	 -0.435	 -0.305
[09:56:04.117]	 -0.435	 -0.295
[09:56:04.125]	 -0.425	 -0.295
[09:56:04.133]	 -0.415	 -0.295
[09:56:04.141]	 -0.405	 -0.285
[09:56:04.148]	 -0.405	 -0.275
[09:56:04.156]	 -0.395	 -0.275
[09:56:04.164]	 -0.395	 -0.265
[09:56:04.172]	 -0.385	 -0.265
[09:56:04.180]	 -0.385	 -0.265
[09:56:04.188]	 -0.375	 -0.255
[09:56:04.195]	 -0.365	 -0.245
[09:56:04.203]	 -0.355	 -0.245
[09:56:04.211]	 -0.355	 -0.245
[09:56:04.219]	 -0.355	 -0.235
[09:56:04.227]	 -0.345	 -0.235
[09:56:04.234]	 -0.335	 -0.225
[09:56:04.242]	 -0.335	 -0.215
[09:56:04.250]	 -0.325	 -0.215
[09:56:04.258]	 -0.315	 -0.215
[09:56:04.266]	 -0.325	 -0.205
[09:56:04.273]	 -0.325	 -0.205
[09:56:04.281]	 -0.305	 -0.195
[09:56:04.289]	 -0.295	 -0.195
[09:56:04.297]	 -0.285	 -0.185
[09:56:04.305]	 -0.285	 -0.185
[09:56:04.313]	 -0.275	 -0.175
[09:56:04.320]	 -0.275	 -0.165
[09:56:04.328]	 -0.265	 -0.165
[09:56:04.336]	 -0.265	 -0.155
[09:56:04.344]	 -0.245	 -0.145
[09:56:04.352]	 -0.235	 -0.135
[09:56:04.359]	 -0.215	 -0.115
[09:56:04.367]	 -0.095	  0.545
[09:56:04.375]	  0.455	  0.545
[09:56:04.383]	  0.445	  0.525
[09:56:04.391]	  0.425	  0.515
[09:56:04.398]	  0.425	  0.515
[09:56:04.406]	  0.425	  0.505
[09:56:04.414]	  0.415	  0.495
[09:56:04.422]	  0.405	  0.495
[09:56:04.430]	  0.395	  0.485
[09:56:04.438]	  0.395	  0.485
[09:56:04.445]	  0.385	  0.465
[09:56:04.453]	  0.385	  0.465
[09:56:04.461]	  0.375	  0.455
[09:56:04.469]	  0.365	  0.455
[09:56:04.477]	  0.355	  0.445
[09:56:04.484]	  0.355	  0.435
[09:56:04.492]	  0.345	  0.435
[09:56:04.500]	  0.335	  0.425
[09:56:04.508]	  0.335	  0.425
[09:56:04.516]	  0.325	  0.415
[09:56:04.523]	  0.315	  0.405
[09:56:04.531]	  0.315	  0.405
[09:56:04.539]	  0.305	  0.395
[09:56:04.547]	  0.305	  0.395
[09:56:04.555]	  0.285	  0.385
[09:56:04.563]	  0.285	  0.375
[09:56:04.570]	  0.285	  0.375
[09:56:04.578]	  0.275	  0.365
[09:56:04.586]	  0.265	  0.365
[09:56:04.594]	  0.265	  0.355
[09:56:04.602]	  0.255	  0.345
[09:56:04.609]	  0.255	  0.355
[09:56:04.617]	  0.245	  0.335
[09:56:04.625]	  0.235	  0.335
[09:56:04.633]	  0.235	  0.335
[09:56:04.641]	  0.225	  0.335
[09:56:04.648]	  0.225	  0.325
[09:56:04.656]	  0.225	  0.315
[09:56:04.664]	  0.215	  0.305
[09:56:04.672]	  0.205	  0.305
[09:56:04.680]	  0.195	  0.305
[09:56:04.688]	  0.195	  0.295
[09:56:04.695]	  0.185	  0.295
[09:56:04.703]	  0.185	  0.285
[09:56:04.711]	  0.175	  0.285
[09:56:04.719]	  0.165	  0.285
[09:56:04.727]	  0.165	  0.275
[09:56:04.734]	  0.165	  0.275
[09:56:04.742]	  0.155	  0.265
[09:56:04.750]	  0.145	  0.255
[09:56:04.758]	  0.145	  0.265
[09:56:04.766]	  0.135	  0.255
[09:56:04.773]	  0.125	  0.245
[09:56:04.781]	  0.125	  0.245
[09:56:04.789]	  0.125	  0.235
[09:56:04.797]	  0.115	  0.235
[09:56:04.805]	  0.095	  0.225
[09:56:04.813]	  0.095	  0.225
[09:56:04.820]	  0.095	  0.225
[09:56:04.828]	  0.085	  0.205
[09:56:04.836]	  0.075	  0.205
[09:56:04.844]	  0.075	  0.195
[09:56:04.852]	  0.055	  0.175
[09:56:04.859]	  0.035	  0.175
[09:56:04.867]	 -0.115	 -0.505
[09:56:04.875]	 -0.655	 -0.495
[09:56:04.883]	 -0.625	 -0.475
[09:56:04.891]	 -0.615	 -0.475
[09:56:04.898]	 -0.615	 -0.465
[09:56:04.906]	 -0.605	 -0.465
[09:56:04.914]	 -0.605	 -0.455
[09:56:04.922]	 -0.595	 -0.455
[09:56:04.930]	 -0.585	 -0.445
[09:56:04.938]	 -0.585	 -0.435
[09:56:04.945]	 -0.575	 -0.435
[09:56:04.953]	 -0.565	 -0.425
[09:56:04.961]	 -0.565	 -0.415
[09:56:04.969]	 -0.555	 -0.405
[09:56:04.977]	 -0.545	 -0.405
[09:56:04.984]	 -0.535	 -0.395
[09:56:04.992]	 -0.535	 -0.385
[09:56:05.000]	 -0.535	 -0.385
[09:56:05.008]	 -0.525	 -0.375
[09:56:05.016]	 -0.515	 -0.365
[09:56:05.023]	 -0.505	 -0.365
[09:56:05.031]	 -0.505	 -0.355
[09:56:05.039]	 -0.495	 -0.345
[09:56:05.047]	 -0.485	 -0.335
[09:56:05.055]	 -0.485	 -0.325
[09:56:05.063]	 -0.475	 -0.335
[09:56:05.070]	 -0.465	 -0.325
[09:56:05.078]	 -0.465	 -0.315
[09:56:05.086]	 -0.465	 -0.305
[09:56:05.094]	 -0.445	 -0.305
[09:56:05.102]	 -0.445	 -0.305
[09:56:05.109]	 -0.435	 -0.285
[09:56:05.117]	 -0.435	 -0.285
[09:56:05.125]	 -0.425	 -0.275
[09:56:05.133]	 -0.415	 -0.275
[09:56:05.141]	 -0.415	 -0.275
[09:56:05.148]	 -0.405	 -0.265
[09:56:05.156]	 -0.395	 -0.255
[09:56:05.164]	 -0.395	 -0.245
[09:56:05.172]	 -0.385	 -0.245
[09:56:05.180]	 -0.385	 -0.245
[09:56:05.188]	 -0.365	 -0.235
[09:56:05.195]	 -0.365	 -0.235
[09:56:05.203]	 -0.365	 -0.225
[09:56:05.211]	 -0.355	 -0.225
[09:56:05.219]	 -0.355	 -0.215
[09:56:05.227]	 -0.345	 -0.215
[09:56:05.234]	 -0.335	 -0.215
[09:56:05.242]	 -0.335	 -0.205
[09:56:05.250]	 -0.325	 -0.195
[09:56:05.258]	 -0.325	 -0.185
[09:56:05.266]	 -0.315	 -0.185
[09:56:05.273]	 -0.315	 -0.185
[09:56:05.281]	 -0.305	 -0.175
[09:56:05.289]	 -0.295	 -0.175
[09:56:05.297]	 -0.295	 -0.165
[09:56:05.305]	 -0.285	 -0.155
[09:56:05.313]	 -0.275	 -0.155
[09:56:05.320]	 -0.265	 -0.155
[09:56:05.328]	 -0.255	 -0.145
[09:56:05.336]	 -0.255	 -0.135
[09:56:05.344]	 -0.235	 -0.115
[09:56:05.352]	 -0.225	 -0.105
[09:56:05.359]	 -0.205	 -0.075
[09:56:05.367]	  0.095	  0.575
[09:56:05.375]	  0.435	  0.555
[09:56:05.383]	  0.425	  0.545
[09:56:05.391]	  0.415	  0.535
[09:56:05.398]	  0.415	  0.535
[09:56:05.406]	  0.405	  0.525
[09:56:05.414]	  0.405	  0.525
[09:56:05.422]	  0.395	  0.515
[09:56:05.430]	  0.385	  0.505
[09:56:05.438]	  0.385	  0.495
[09:56:05.445]	  0.375	  0.485
[09:56:05.453]	  0.365	  0.485
[09:56:05.461]	  0.355	  0.475
[09:56:05.469]	  0.355	  0.475
[09:56:05.477]	  0.355	  0.465
[09:56:05.484]	  0.345	  0.465
[09:56:05.492]	  0.335	  0.445
[09:56:05.500]	  0.335	  0.445
[09:56:05.508]	  0.315	  0.435
[09:56:05.516]	  0.315	  0.435
[09:56:05.523]	  0.305	  0.415
[09:56:05.531]	  0.305	  0.425
[09:56:05.539]	  0.295	  0.415
[09:56:05.547]	  0.295	  0.405
[09:56:05.555]	  0.285	  0.405
[09:56:05.563]	  0.285	  0.395
[09:56:05.570]	  0.275	  0.385
[09:56:05.578]	  0.265	  0.385
[09:56:05.586]	  0.255	  0.375
[09:56:05.594]	  0.255	  0.365
[09:56:05.602]	  0.255	  0.365
[09:56:05.609]	  0.245	  0.365
[09:56:05.617]	  0.245	  0.355
[09:56:05.625]	  0.235	  0.345
[09:56:05.633]	  0.235	  0.345
[09:56:05.641]	  0.235	  0.335
[09:56:05.648]	  0.225	  0.335
[09:56:05.656]	  0.215	  0.335
[09:56:05.664]	  0.215	  0.325
[09:56:05.672]	  0.215	  0.315
[09:56:05.680]	  0.195	  0.315
[09:56:05.688]	  0.205	  0.305
[09:56:05.695]	  0.195	  0.305
[09:56:05.703]	  0.185	  0.295
[09:56:05.711]	  0.185	  0.295
[09:56:05.719]	  0.175	  0.285
[09:56:05.727]	  0.165	  0.285
[09:56:05.734]	  0.165	  0.285
[09:56:05.742]	  0.155	  0.275
[09:56:05.750]	  0.155	  0.275
[09:56:05.758]	  0.155	  0.265
[09:56:05.766]	  0.145	  0.255
[09:56:05.773]	  0.135	  0.255
[09:56:05.781]	  0.135	  0.255
[09:56:05.789]	  0.125	  0.245
[09:56:05.797]	  0.125	  0.235
[09:56:05.805]	  0.105	  0.225
[09:56:05.813]	  0.115	  0.225
[09:56:05.820]	  0.105	  0.225
[09:56:05.828]	  0.095	  0.215
[09:56:05.836]	  0.085	  0.205
[09:56:05.844]	  0.075	  0.195
[09:56:05.852]	  0.065	  0.175
[09:56:05.859]	  0.045	  0.175
[09:56:05.867]	 -0.085	 -0.475
[09:56:05.875]	 -0.635	 -0.495
[09:56:05.883]	 -0.615	 -0.475
[09:56:05.891]	 -0.605	 -0.475
[09:56:05.898]	 -0.605	 -0.465
[09:56:05.906]	 -0.595	 -0.465
[09:56:05.914]	 -0.585	 -0.465
[09:56:05.922]	 -0.575	 -0.455
[09:56:05.930]	 -0.575	 -0.445
[09:56:05.938]	 -0.575	 -0.435
[09:56:05.945]	 -0.555	 -0.425
[09:56:05.953]	 -0.555	 -0.435
[09:56:05.961]	 -0.545	 -0.425
[09:56:05.969]	 -0.535	 -0.415
[09:56:05.977]	 -0.535	 -0.405
[09:56:05.984]	 -0.525	 -0.395
[09:56:05.992]	 -0.525	 -0.395
[09:56:06.000]	 -0.505	 -0.395
[09:56:06.008]	 -0.505	 -0.385
[09:56:06.016]	 -0.495	 -0.375
[09:56:06.023]	 -0.485	 -0.365
[09:56:06.031]	 -0.485	 -0.365
[09:56:06.039]	 -0.475	 -0.355
[09:56:06.047]	 -0.465	 -0.355
[09:56:06.055]	 -0.465	 -0.345
[09:56:06.063]	 -0.445	 -0.335
[09:56:06.070]	 -0.445	 -0.335
[09:56:06.078]	 -0.435	 -0.325
[09:56:06.086]	 -0.435	 -0.325
[09:56:06.094]	 -0.425	 -0.315
[09:56:06.102]	 -0.415	 -0.315
[09:56:06.109]	 -0.405	 -0.305
[09:56:06.117]	 -0.405	 -0.305
[09:56:06.125]	 -0.395	 -0.295
[09:56:06.133]	 -0.395	 -0.295
[09:56:06.141]	 -0.395	 -0.285
[09:56:06.148]	 -0.385	 -0.275
[09:56:06.156]	 -0.375	 -0.275
[09:56:06.164]	 -0.375	 -0.275
[09:56:06.172]	 -0.375	 -0.265
[09:56:06.180]	 -0.365	 -0.265
[09:56:06.188]	 -0.355	 -0.255
[09:56:06.195]	 -0.355	 -0.245
[09:56:06.203]	 -0.345	 -0.245
[09:56:06.211]	 -0.345	 -0.245
[09:56:06.219]	 -0.335	 -0.245
[09:56:06.227]	 -0.335	 -0.235
[09:56:06.234]	 -0.325	 -0.225
[09:56:06.242]	 -0.325	 -0.225
[09:56:06.250]	 -0.315	 -0.225
[09:56:06.258]	 -0.325	 -0.215
[09:56:06.266]	 -0.315	 -0.205
[09:56:06.273]	 -0.305	 -0.205
[09:56:06.281]	 -0.295	 -0.205
[09:56:06.289]	 -0.295	 -0.195
[09:56:06.297]	 -0.295	 -0.195
[09:56:06.305]	 -0.285	 -0.185
[09:56:06.313]	 -0.275	 -0.185
[09:56:06.320]	 -0.265	 -0.175
[09:56:06.328]	 -0.265	 -0.175
[09:56:06.336]	 -0.265	 -0.165
[09:56:06.344]	 -0.245	 -0.155
[09:56:06.352]	 -0.235	 -0.135
[09:56:06.359]	 -0.215	 -0.125
[09:56:06.367]	 -0.135	  0.515
[09:56:06.375]	  0.465	  0.535
[09:56:06.383]	  0.445	  0.515
[09:56:06.391]	  0.435	  0.515
[09:56:06.398]	  0.425	  0.495
[09:56:06.406]	  0.425	  0.495
[09:56:06.414]	  0.415	  0.485
[09:56:06.422]	  0.415	  0.485
[09:56:06.430]	  0.405	  0.485
[09:56:06.438]	  0.395	  0.465
[09:56:06.445]	  0.395	  0.465
[09:56:06.453]	  0.385	  0.455
[09:56:06.461]	  0.375	  0.455
[09:56:06.469]	  0.365	  0.445
[09:56:06.477]	  0.365	  0.435
[09:56:06.484]	  0.355	  0.435
[09:56:06.492]	  0.345	  0.415
[09:56:06.500]	  0.345	  0.415
[09:56:06.508]	  0.335	  0.405
[09:56:06.516]	  0.325	  0.395
[09:56:06.523]	  0.315	  0.395
[09:56:06.531]	  0.315	  0.385
[09:56:06.539]	  0.305	  0.385
[09:56:06.547]	  0.305	  0.375
[09:56:06.555]	  0.295	  0.375
[09:56:06.563]	  0.285	  0.365
[09:56:06.570]	  0.285	  0.355
[09:56:06.578]	  0.285	  0.345
[09:56:06.586]	  0.275	  0.345
[09:56:06.594]	  0.265	  0.335
[09:56:06.602]	  0.265	  0.335
[09:56:06.609]	  0.255	  0.325
[09:56:06.617]	  0.255	  0.325
[09:56:06.625]	  0.245	  0.315
[09:56:06.633]	  0.235	  0.315
[09:56:06.641]	  0.235	  0.305
[09:56:06.648]	  0.225	  0.295
[09:56:06.656]	  0.215	  0.295
[09:56:06.664]	  0.215	  0.295
[09:56:06.672]	  0.205	  0.285
[09:56:06.680]	  0.195	  0.285
[09:56:06.688]	  0.195	  0.285
[09:56:06.695]	  0.185	  0.275
[09:56:06.703]	  0.185	  0.265
[09:56:06.711]	  0.175	  0.265
[09:56:06.719]	  0.175	  0.255
[09:56:06.727]	  0.165	  0.255
[09:56:06.734]	  0.155	  0.245
[09:56:06.742]	  0.155	  0.235
[09:56:06.750]	  0.145	  0.235
[09:56:06.758]	  0.145	  0.235
[09:56:06.766]	  0.135	  0.225
[09:56:06.773]	  0.125	  0.225
[09:56:06.781]	  0.125	  0.215
[09:56:06.789]	  0.115	  0.215
[09:56:06.797]	  0.115	  0.215
[09:56:06.805]	  0.105	  0.205
[09:56:06.813]	  0.105	  0.205
[09:56:06.820]	  0.095	  0.195
[09:56:06.828]	  0.085	  0.185
[09:56:06.836]	  0.075	  0.175
[09:56:06.844]	  0.065	  0.165
[09:56:06.852]	  0.055	  0.155
[09:56:06.859]	  0.015	  0.095
[09:56:06.867]	 -0.295	 -0.545
[09:56:06.875]	 -0.595	 -0.515
[09:56:06.883]	 -0.595	 -0.495
[09:56:06.891]	 -0.595	 -0.495
[09:56:06.898]	 -0.585	 -0.495
[09:56:06.906]	 -0.585	 -0.495
[09:56:06.914]	 -0.575	 -0.485
[09:56:06.922]	 -0.565	 -0.475
[09:56:06.930]	 -0.565	 -0.475
[09:56:06.938]	 -0.555	 -0.465
[09:56:06.945]	 -0.545	 -0.455
[09:56:06.953]	 -0.545	 -0.455
[09:56:06.961]	 -0.535	 -0.445
[09:56:06.969]	 -0.535	 -0.435
[09:56:06.977]	 -0.525	 -0.425
[09:56:06.984]	 -0.515	 -0.425
[09:56:06.992]	 -0.515	 -0.425
[09:56:07.000]	 -0.505	 -0.415
[09:56:07.008]	 -0.495	 -0.405
[09:56:07.016]	 -0.495	 -0.395
[09:56:07.023]	 -0.495	 -0.395
[09:56:07.031]	 -0.475	 -0.385
[09:56:07.039]	 -0.475	 -0.375
[09:56:07.047]	 -0.465	 -0.365
[09:56:07.055]	 -0.465	 -0.365
[09:56:07.063]	 -0.455	 -0.355
[09:56:07.070]	 -0.445	 -0.355
[09:56:07.078]	 -0.445	 -0.345
[09:56:07.086]	 -0.445	 -0.345
[09:56:07.094]	 -0.435	 -0.335
[09:56:07.102]	 -0.425	 -0.335
[09:56:07.109]	 -0.415	 -0.325
[09:56:07.117]	 -0.415	 -0.325
[09:56:07.125]	 -0.405	 -0.315
[09:56:07.133]	 -0.405	 -0.315
[09:56:07.141]	 -0.395	 -0.305
[09:56:07.148]	 -0.395	 -0.305
[09:56:07.156]	 -0.385	 -0.295
[09:56:07.164]	 -0.385	 -0.295
[09:56:07.172]	 -0.375	 -0.285
[09:56:07.180]	 -0.375	 -0.275
[09:56:07.188]	 -0.365	 -0.275
[09:56:07.195]	 -0.355	 -0.275
[09:56:07.203]	 -0.355	 -0.265
[09:56:07.211]	 -0.355	 -0.255
[09:56:07.219]	 -0.345	 -0.255
[09:56:07.227]	 -0.335	 -0.255
[09:56:07.234]	 -0.335	 -0.245
[09:56:07.242]	 -0.335	 -0.235
[09:56:07.250]	 -0.325	 -0.235
[09:56:07.258]	 -0.325	 -0.225
[09:56:07.266]	 -0.315	 -0.235
[09:56:07.273]	 -0.315	 -0.225
[09:56:07.281]	 -0.305	 -0.225
[09:56:07.289]	 -0.295	 -0.205
[09:56:07.297]	 -0.295	 -0.205
[09:56:07.305]	 -0.285	 -0.205
[09:56:07.313]	 -0.275	 -0.195
[09:56:07.320]	 -0.265	 -0.185
[09:56:07.328]	 -0.265	 -0.185
[09:56:07.336]	 -0.255	 -0.175
[09:56:07.344]	 -0.245	 -0.165
[09:56:07.352]	 -0.225	 -0.145
[09:56:07.359]	 -0.215	 -0.135
[09:56:07.367]	  0.035	  0.525
[09:56:07.375]	  0.465	  0.525
[09:56:07.383]	  0.435	  0.495
[09:56:07.391]	  0.435	  0.495
[09:56:07.398]	  0.425	  0.485
[09:56:07.406]	  0.415	  0.485
[09:56:07.414]	  0.415	  0.485
[09:56:07.422]	  0.415	  0.475
[09:56:07.430]	  0.395	  0.465
[09:56:07.438]	  0.395	  0.455
[09:56:07.445]	  0.385	  0.455
[09:56:07.453]	  0.375	  0.445
[09:56:07.461]	  0.365	  0.435
[09:56:07.469]	  0.365	  0.435
[09:56:07.477]	  0.365	  0.425
[09:56:07.484]	  0.355	  0.415
[09:56:07.492]	  0.345	  0.415
[09:56:07.500]	  0.345	  0.405
[09:56:07.508]	  0.345	  0.395
[09:56:07.516]	  0.335	  0.385
[09:56:07.523]	  0.315	  0.375
[09:56:07.531]	  0.315	  0.375
[09:56:07.539]	  0.305	  0.375
[09:56:07.547]	  0.305	  0.365
[09:56:07.555]	  0.295	  0.355
[09:56:07.563]	  0.295	  0.355
[09:56:07.570]	  0.285	  0.345
[09:56:07.578]	  0.275	  0.335
[09:56:07.586]	  0.265	  0.335
[09:56:07.594]	  0.265	  0.325
[09:56:07.602]	  0.265	  0.325
[09:56:07.609]	  0.255	  0.315
[09:56:07.617]	  0.245	  0.315
[09:56:07.625]	  0.245	  0.315
[09:56:07.633]	  0.235	  0.305
[09:56:07.641]	  0.225	  0.295
[09:56:07.648]	  0.225	  0.295
[09:56:07.656]	  0.225	  0.295
[09:56:07.664]	  0.215	  0.285
[09:56:07.672]	  0.215	  0.275
[09:56:07.680]	  0.205	  0.275
[09:56:07.688]	  0.195	  0.265
[09:56:07.695]	  0.195	  0.265
[09:56:07.703]	  0.185	  0.265
[09:56:07.711]	  0.175	  0.255
[09:56:07.719]	  0.175	  0.255
[09:56:07.727]	  0.165	  0.245
[09:56:07.734]	  0.155	  0.245
[09:56:07.742]	  0.155	  0.245
[09:56:07.750]	  0.145	  0.225
[09:56:07.758]	  0.145	  0.225
[09:56:07.766]	  0.135	  0.225
[09:56:07.773]	  0.125	  0.215
[09:56:07.781]	  0.135	  0.215
[09:56:07.789]	  0.125	  0.205
[09:56:07.797]	  0.115	  0.205
[09:56:07.805]	  0.105	  0.205
[09:56:07.813]	  0.105	  0.195
[09:56:07.820]	  0.095	  0.195
[09:56:07.828]	  0.095	  0.175
[09:56:07.836]	  0.075	  0.175
[09:56:07.844]	  0.065	  0.165
[09:56:07.852]	  0.055	  0.145
[09:56:07.859]	  0.035	  0.135
[09:56:07.867]	  0.005	 -0.425
[09:56:07.875]	 -0.535	 -0.545
[09:56:07.883]	 -0.575	 -0.515
[09:56:07.891]	 -0.575	 -0.505
[09:56:07.898]	 -0.575	 -0.495
[09:56:07.906]	 -0.565	 -0.505
[09:56:07.914]	 -0.565	 -0.495
[09:56:07.922]	 -0.565	 -0.485
[09:56:07.930]	 -0.555	 -0.475
[09:56:07.938]	 -0.545	 -0.465
[09:56:07.945]	 -0.545	 -0.475
[09:56:07.953]	 -0.545	 -0.455
[09:56:07.961]	 -0.535	 -0.455
[09:56:07.969]	 -0.525	 -0.445
[09:56:07.977]	 -0.525	 -0.445
[09:56:07.984]	 -0.525	 -0.435
[09:56:07.992]	 -0.515	 -0.425
[09:56:08.000]	 -0.505	 -0.425
[09:56:08.008]	 -0.505	 -0.405
[09:56:08.016]	 -0.505	 -0.405
[09:56:08.023]	 -0.495	 -0.395
[09:56:08.031]	 -0.485	 -0.395
[09:56:08.039]	 -0.485	 -0.385
[09:56:08.047]	 -0.485	 -0.385
[09:56:08.055]	 -0.475	 -0.375
[09:56:08.063]	 -0.465	 -0.365
[09:56:08.070]	 -0.465	 -0.355
[09:56:08.078]	 -0.455	 -0.355
[09:56:08.086]	 -0.455	 -0.355
[09:56:08.094]	 -0.445	 -0.345
[09:56:08.102]	 -0.435	 -0.335
[09:56:08.109]	 -0.435	 -0.325
[09:56:08.117]	 -0.425	 -0.325
[09:56:08.125]	 -0.415	 -0.325
[09:56:08.133]	 -0.405	 -0.315
[09:56:08.141]	 -0.405	 -0.315
[09:56:08.148]	 -0.405	 -0.305
[09:56:08.156]	 -0.395	 -0.305
[09:56:08.164]	 -0.385	 -0.295
[09:56:08.172]	 -0.385	 -0.295
[09:56:08.180]	 -0.375	 -0.285
[09:56:08.188]	 -0.365	 -0.275
[09:56:08.195]	 -0.365	 -0.275
[09:56:08.203]	 -0.355	 -0.275
[09:56:08.211]	 -0.355	 -0.265
[09:56:08.219]	 -0.345	 -0.265
[09:56:08.227]	 -0.335	 -0.255
[09:56:08.234]	 -0.335	 -0.245
[09:56:08.242]	 -0.325	 -0.245
[09:56:08.250]	 -0.325	 -0.245
[09:56:08.258]	 -0.305	 -0.235
[09:56:08.266]	 -0.305	 -0.235
[09:56:08.273]	 -0.305	 -0.225
[09:56:08.281]	 -0.295	 -0.215
[09:56:08.289]	 -0.295	 -0.215
[09:56:08.297]	 -0.285	 -0.215
[09:56:08.305]	 -0.285	 -0.205
[09:56:08.313]	 -0.275	 -0.195
[09:56:08.320]	 -0.265	 -0.185
[09:56:08.328]	 -0.255	 -0.185
[09:56:08.336]	 -0.255	 -0.175
[09:56:08.344]	 -0.245	 -0.165
[09:56:08.352]	 -0.235	 -0.145
[09:56:08.359]	 -0.205	 -0.095
[09:56:08.367]	  0.175	  0.515
[09:56:08.375]	  0.455	  0.505
[09:56:08.383]	  0.435	  0.485
[09:56:08.391]	  0.425	  0.485
[09:56:08.398]	  0.415	  0.475
[09:56:08.406]	  0.415	  0.475
[09:56:08.414]	  0.405	  0.465
[09:56:08.422]	  0.405	  0.455
[09:56:08.430]	  0.395	  0.455
[09:56:08.438]	  0.395	  0.445
[09:56:08.445]	  0.385	  0.445
[09:56:08.453]	  0.385	  0.435
[09:56:08.461]	  0.375	  0.425
[09:56:08.469]	  0.365	  0.425
[09:56:08.477]	  0.355	  0.415
[09:56:08.484]	  0.355	  0.405
[09:56:08.492]	  0.345	  0.395
[09:56:08.500]	  0.345	  0.385
[09:56:08.508]	  0.335	  0.385
[09:56:08.516]	  0.325	  0.385
[09:56:08.523]	  0.315	  0.375
[09:56:08.531]	  0.315	  0.365
[09:56:08.539]	  0.305	  0.365
[09:56:08.547]	  0.305	  0.355
[09:56:08.555]	  0.295	  0.355
[09:56:08.563]	  0.295	  0.335
[09:56:08.570]	  0.285	  0.335
[09:56:08.578]	  0.285	  0.335
[09:56:08.586]	  0.275	  0.325
[09:56:08.594]	  0.265	  0.325
[09:56:08.602]	  0.265	  0.315
[09:56:08.609]	  0.255	  0.305
[09:56:08.617]	  0.255	  0.305
[09:56:08.625]	  0.245	  0.295
[09:56:08.633]	  0.235	  0.295
[09:56:08.641]	  0.235	  0.285
[09:56:08.648]	  0.225	  0.285
[09:56:08.656]	  0.225	  0.275
[09:56:08.664]	  0.215	  0.275
[09:56:08.672]	  0.205	  0.265
[09:56:08.680]	  0.205	  0.265
[09:56:08.688]	  0.195	  0.255
[09:56:08.695]	  0.195	  0.245
[09:56:08.703]	  0.185	  0.255
[09:56:08.711]	  0.175	  0.245
[09:56:08.719]	  0.175	  0.235
[09:56:08.727]	  0.165	  0.225
[09:56:08.734]	  0.165	  0.225
[09:56:08.742]	  0.155	  0.225
[09:56:08.750]	  0.145	  0.215
[09:56:08.758]	  0.145	  0.215
[09:56:08.766]	  0.135	  0.215
[09:56:08.773]	  0.135	  0.195
[09:56:08.781]	  0.125	  0.205
[09:56:08.789]	  0.125	  0.195
[09:56:08.797]	  0.115	  0.185
[09:56:08.805]	  0.105	  0.185
[09:56:08.813]	  0.105	  0.175
[09:56:08.820]	  0.095	  0.165
[09:56:08.828]	  0.085	  0.165
[09:56:08.836]	  0.075	  0.155
[09:56:08.844]	  0.075	  0.145
[09:56:08.852]	  0.065	  0.125
[09:56:08.859]	  0.035	  0.105
[09:56:08.867]	 -0.305	 -0.565
[09:56:08.875]	 -0.635	 -0.535
[09:56:08.883]	 -0.615	 -0.525
[09:56:08.891]	 -0.605	 -0.525
[09:56:08.898]	 -0.605	 -0.515
[09:56:08.906]	 -0.595	 -0.515
[09:56:08.914]	 -0.585	 -0.505
[09:56:08.922]	 -0.585	 -0.495
[09:56:08.930]	 -0.575	 -0.495
[09:56:08.938]	 -0.565	 -0.485
[09:56:08.945]	 -0.555	 -0.485
[09:56:08.953]	 -0.555	 -0.475
[09:56:08.961]	 -0.555	 -0.465
[09:56:08.969]	 -0.545	 -0.455
[09:56:08.977]	 -0.535	 -0.455
[09:56:08.984]	 -0.525	 -0.455
[09:56:08.992]	 -0.525	 -0.445
[09:56:09.000]	 -0.515	 -0.425
[09:56:09.008]	 -0.505	 -0.425
[09:56:09.016]	 -0.505	 -0.415
[09:56:09.023]	 -0.495	 -0.415
[09:56:09.031]	 -0.495	 -0.405
[09:56:09.039]	 -0.485	 -0.395
[09:56:09.047]	 -0.485	 -0.395
[09:56:09.055]	 -0.485	 -0.385
[09:56:09.063]	 -0.465	 -0.385
[09:56:09.070]	 -0.465	 -0.375
[09:56:09.078]	 -0.455	 -0.365
[09:56:09.086]	 -0.455	 -0.365
[09:56:09.094]	 -0.445	 -0.355
[09:56:09.102]	 -0.445	 -0.355
[09:56:09.109]	 -0.435	 -0.345
[09:56:09.117]	 -0.425	 -0.335
[09:56:09.125]	 -0.415	 -0.335
[09:56:09.133]	 -0.415	 -0.335
[09:56:09.141]	 -0.405	 -0.325
[09:56:09.148]	 -0.405	 -0.325
[09:56:09.156]	 -0.395	 -0.315
[09:56:09.164]	 -0.395	 -0.305
[09:56:09.172]	 -0.385	 -0.305
[09:56:09.180]	 -0.385	 -0.305
[09:56:09.188]	 -0.375	 -0.295
[09:56:09.195]	 -0.365	 -0.285
[09:56:09.203]	 -0.365	 -0.285
[09:56:09.211]	 -0.355	 -0.275
[09:56:09.219]	 -0.345	 -0.275
[09:56:09.227]	 -0.345	 -0.275
[09:56:09.234]	 -0.335	 -0.265
[09:56:09.242]	 -0.335	 -0.255
[09:56:09.250]	 -0.325	 -0.255
[09:56:09.258]	 -0.315	 -0.255
[09:56:09.266]	 -0.315	 -0.245
[09:56:09.273]	 -0.305	 -0.235
[09:56:09.281]	 -0.305	 -0.235
[09:56:09.289]	 -0.295	 -0.225
[09:56:09.297]	 -0.295	 -0.225
[09:56:09.305]	 -0.295	 -0.215
[09:56:09.313]	 -0.275	 -0.215
[09:56:09.320]	 -0.275	 -0.205
[09:56:09.328]	 -0.265	 -0.195
[09:56:09.336]	 -0.265	 -0.185
[09:56:09.344]	 -0.245	 -0.175
[09:56:09.352]	 -0.225	 -0.165
[09:56:09.359]	 -0.215	 -0.115
[09:56:09.367]	  0.225	  0.525
[09:56:09.375]	  0.445	  0.495
[09:56:09.383]	  0.435	  0.485
[09:56:09.391]	  0.425	  0.475
[09:56:09.398]	  0.405	  0.475
[09:56:09.406]	  0.415	  0.475
[09:56:09.414]	  0.395	  0.465
[09:56:09.422]	  0.395	  0.455
[09:56:09.430]	  0.395	  0.445
[09:56:09.438]	  0.385	  0.445
[09:56:09.445]	  0.385	  0.445
[09:56:09.453]	  0.375	  0.425
[09:56:09.461]	  0.365	  0.425
[09:56:09.469]	  0.365	  0.415
[09:56:09.477]	  0.355	  0.405
[09:56:09.484]	  0.345	  0.405
[09:56:09.492]	  0.335	  0.395
[09:56:09.500]	  0.335	  0.395
[09:56:09.508]	  0.335	  0.385
[09:56:09.516]	  0.325	  0.385
[09:56:09.523]	  0.315	  0.375
[09:56:09.531]	  0.305	  0.365
[09:56:09.539]	  0.305	  0.365
[09:56:09.547]	  0.295	  0.355
[09:56:09.555]	  0.285	  0.345
[09:56:09.563]	  0.285	  0.335
[09:56:09.570]	  0.275	  0.335
[09:56:09.578]	  0.275	  0.335
[09:56:09.586]	  0.265	  0.325
[09:56:09.594]	  0.265	  0.325
[09:56:09.602]	  0.255	  0.315
[09:56:09.609]	  0.245	  0.315
[09:56:09.617]	  0.245	  0.305
[09:56:09.625]	  0.235	  0.305
[09:56:09.633]	  0.235	  0.305
[09:56:09.641]	  0.225	  0.295
[09:56:09.648]	  0.215	  0.285
[09:56:09.656]	  0.215	  0.285
[09:56:09.664]	  0.205	  0.285
[09:56:09.672]	  0.205	  0.275
[09:56:09.680]	  0.195	  0.265
[09:56:09.688]	  0.185	  0.265
[09:56:09.695]	  0.185	  0.265
[09:56:09.703]	  0.175	  0.265
[09:56:09.711]	  0.175	  0.255
[09:56:09.719]	  0.175	  0.245
[09:56:09.727]	  0.165	  0.245
[09:56:09.734]	  0.155	  0.245
[09:56:09.742]	  0.145	  0.235
[09:56:09.750]	  0.145	  0.235
[09:56:09.758]	  0.135	  0.225
[09:56:09.766]	  0.135	  0.225
[09:56:09.773]	  0.125	  0.225
[09:56:09.781]	  0.125	  0.215
[09:56:09.789]	  0.115	  0.215
[09:56:09.797]	  0.105	  0.205
[09:56:09.805]	  0.095	  0.205
[09:56:09.813]	  0.095	  0.195
[09:56:09.820]	  0.085	  0.195
[09:56:09.828]	  0.085	  0.185
[09:56:09.836]	  0.075	  0.175
[09:56:09.844]	  0.065	  0.165
[09:56:09.852]	  0.055	  0.145
[09:56:09.859]	  0.025	  0.145
[09:56:09.867]	 -0.285	 -0.535
[09:56:09.875]	 -0.635	 -0.515
[09:56:09.883]	 -0.625	 -0.505
[09:56:09.891]	 -0.615	 -0.495
[09:56:09.898]	 -0.615	 -0.495
[09:56:09.906]	 -0.605	 -0.485
[09:56:09.914]	 -0.595	 -0.485
[09:56:09.922]	 -0.595	 -0.475
[09:56:09.930]	 -0.585	 -0.465
[09:56:09.938]	 -0.585	 -0.455
[09:56:09.945]	 -0.575	 -0.455
[09:56:09.953]	 -0.565	 -0.445
[09:56:09.961]	 -0.565	 -0.445
[09:56:09.969]	 -0.555	 -0.435
[09:56:09.977]	 -0.545	 -0.425
[09:56:09.984]	 -0.545	 -0.415
[09:56:09.992]	 -0.525	 -0.405
[09:56:10.000]	 -0.525	 -0.405
[09:56:10.008]	 -0.515	 -0.395
[09:56:10.016]	 -0.515	 -0.385
[09:56:10.023]	 -0.515	 -0.385
[09:56:10.031]	 -0.495	 -0.385
[09:56:10.039]	 -0.495	 -0.375
[09:56:10.047]	 -0.485	 -0.365
[09:56:10.055]	 -0.485	 -0.355
[09:56:10.063]	 -0.465	 -0.345
[09:56:10.070]	 -0.465	 -0.345
[09:56:10.078]	 -0.455	 -0.345
[09:56:10.086]	 -0.455	 -0.335
[09:56:10.094]	 -0.445	 -0.325
[09:56:10.102]	 -0.435	 -0.315
[09:56:10.109]	 -0.435	 -0.315
[09:56:10.117]	 -0.435	 -0.305
[09:56:10.125]	 -0.425	 -0.305
[09:56:10.133]	 -0.425	 -0.305
[09:56:10.141]	 -0.415	 -0.295
[09:56:10.148]	 -0.405	 -0.285
[09:56:10.156]	 -0.405	 -0.285
[09:56:10.164]	 -0.395	 -0.275
[09:56:10.172]	 -0.385	 -0.265
[09:56:10.180]	 -0.385	 -0.265
[09:56:10.188]	 -0.375	 -0.255
[09:56:10.195]	 -0.365	 -0.255
[09:56:10.203]	 -0.355	 -0.245
[09:56:10.211]	 -0.355	 -0.245
[09:56:10.219]	 -0.355	 -0.235
[09:56:10.227]	 -0.345	 -0.235
[09:56:10.234]	 -0.335	 -0.225
[09:56:10.242]	 -0.335	 -0.225
[09:56:10.250]	 -0.325	 -0.215
[09:56:10.258]	 -0.325	 -0.215
[09:56:10.266]	 -0.325	 -0.205
[09:56:10.273]	 -0.315	 -0.205
[09:56:10.281]	 -0.305	 -0.195
[09:56:10.289]	 -0.295	 -0.195
[09:56:10.297]	 -0.295	 -0.185
[09:56:10.305]	 -0.285	 -0.185
[09:56:10.313]	 -0.275	 -0.175
[09:56:10.320]	 -0.275	 -0.175
[09:56:10.328]	 -0.255	 -0.155
[09:56:10.336]	 -0.255	 -0.155
[09:56:10.344]	 -0.245	 -0.145
[09:56:10.352]	 -0.235	 -0.125
[09:56:10.359]	 -0.205	 -0.125
[09:56:10.367]	 -0.005	  0.535
[09:56:10.375]	  0.475	  0.535
[09:56:10.383]	  0.435	  0.515
[09:56:10.391]	  0.435	  0.515
[09:56:10.398]	  0.425	  0.505
[09:56:10.406]	  0.425	  0.505
[09:56:10.414]	  0.415	  0.495
[09:56:10.422]	  0.405	  0.495
[09:56:10.430]	  0.395	  0.485
[09:56:10.438]	  0.395	  0.475
[09:56:10.445]	  0.395	  0.475
[09:56:10.453]	  0.385	  0.465
[09:56:10.461]	  0.375	  0.465
[09:56:10.469]	  0.365	  0.455
[09:56:10.477]	  0.365	  0.445
[09:56:10.484]	  0.355	  0.445
[09:56:10.492]	  0.345	  0.435
[09:56:10.500]	  0.345	  0.425
[09:56:10.508]	  0.335	  0.425
[09:56:10.516]	  0.335	  0.415
[09:56:10.523]	  0.325	  0.405
[09:56:10.531]	  0.315	  0.395
[09:56:10.539]	  0.305	  0.395
[09:56:10.547]	  0.305	  0.395
[09:56:10.555]	  0.305	  0.385
[09:56:10.563]	  0.295	  0.375
[09:56:10.570]	  0.285	  0.365
[09:56:10.578]	  0.275	  0.365
[09:56:10.586]	  0.275	  0.365
[09:56:10.594]	  0.275	  0.355
[09:56:10.602]	  0.265	  0.345
[09:56:10.609]	  0.255	  0.345
[09:56:10.617]	  0.245	  0.335
[09:56:10.625]	  0.245	  0.335
[09:56:10.633]	  0.235	  0.325
[09:56:10.641]	  0.235	  0.325
[09:56:10.648]	  0.235	  0.315
[09:56:10.656]	  0.225	  0.315
[09:56:10.664]	  0.215	  0.315
[09:56:10.672]	  0.215	  0.305
[09:56:10.680]	  0.205	  0.305
[09:56:10.688]	  0.205	  0.295
[09:56:10.695]	  0.195	  0.285
[09:56:10.703]	  0.185	  0.285
[09:56:10.711]	  0.175	  0.285
[09:56:10.719]	  0.175	  0.275
[09:56:10.727]	  0.165	  0.275
[09:56:10.734]	  0.155	  0.265
[09:56:10.742]	  0.155	  0.255
[09:56:10.750]	  0.145	  0.265
[09:56:10.758]	  0.145	  0.255
[09:56:10.766]	  0.145	  0.255
[09:56:10.773]	  0.125	  0.245
[09:56:10.781]	  0.125	  0.235
[09:56:10.789]	  0.125	  0.235
[09:56:10.797]	  0.115	  0.225
[09:56:10.805]	  0.105	  0.225
[09:56:10.813]	  0.105	  0.215
[09:56:10.820]	  0.095	  0.205
[09:56:10.828]	  0.085	  0.205
[09:56:10.836]	  0.075	  0.195
[09:56:10.844]	  0.075	  0.185
[09:56:10.852]	  0.055	  0.165
[09:56:10.859]	  0.035	  0.075
[09:56:10.867]	 -0.445	 -0.525
[09:56:10.875]	 -0.635	 -0.495
[09:56:10.883]	 -0.605	 -0.485
[09:56:10.891]	 -0.605	 -0.475
[09:56:10.898]	 -0.605	 -0.475
[09:56:10.906]	 -0.595	 -0.475
[09:56:10.914]	 -0.585	 -0.465
[09:56:10.922]	 -0.585	 -0.455
[09:56:10.930]	 -0.575	 -0.445
[09:56:10.938]	 -0.565	 -0.445
[09:56:10.945]	 -0.565	 -0.435
[09:56:10.953]	 -0.555	 -0.425
[09:56:10.961]	 -0.555	 -0.415
[09:56:10.969]	 -0.545	 -0.415
[09:56:10.977]	 -0.535	 -0.405
[09:56:10.984]	 -0.535	 -0.405
[09:56:10.992]	 -0.525	 -0.395
[09:56:11.000]	 -0.515	 -0.385
[09:56:11.008]	 -0.515	 -0.375
[09:56:11.016]	 -0.505	 -0.375
[09:56:11.023]	 -0.505	 -0.365
[09:56:11.031]	 -0.495	 -0.355
[09:56:11.039]	 -0.485	 -0.345
[09:56:11.047]	 -0.475	 -0.345
[09:56:11.055]	 -0.475	 -0.335
[09:56:11.063]	 -0.455	 -0.335
[09:56:11.070]	 -0.455	 -0.325
[09:56:11.078]	 -0.455	 -0.315
[09:56:11.086]	 -0.445	 -0.315
[09:56:11.094]	 -0.435	 -0.315
[09:56:11.102]	 -0.425	 -0.305
[09:56:11.109]	 -0.425	 -0.305
[09:56:11.117]	 -0.425	 -0.295
[09:56:11.125]	 -0.415	 -0.285
[09:56:11.133]	 -0.405	 -0.285
[09:56:11.141]	 -0.395	 -0.275
[09:56:11.148]	 -0.395	 -0.275
[09:56:11.156]	 -0.385	 -0.265
[09:56:11.164]	 -0.385	 -0.265
[09:56:11.172]	 -0.375	 -0.255
[09:56:11.180]	 -0.375	 -0.255
[09:56:11.188]	 -0.365	 -0.255
[09:56:11.195]	 -0.355	 -0.245
[09:56:11.203]	 -0.345	 -0.235
[09:56:11.211]	 -0.345	 -0.235
[09:56:11.219]	 -0.345	 -0.225
[09:56:11.227]	 -0.335	 -0.225
[09:56:11.234]	 -0.335	 -0.215
[09:56:11.242]	 -0.325	 -0.215
[09:56:11.250]	 -0.325	 -0.205
[09:56:11.258]	 -0.315	 -0.205
[09:56:11.266]	 -0.305	 -0.195
[09:56:11.273]	 -0.305	 -0.185
[09:56:11.281]	 -0.295	 -0.185
[09:56:11.289]	 -0.295	 -0.185
[09:56:11.297]	 -0.285	 -0.175
[09:56:11.305]	 -0.285	 -0.175
[09:56:11.313]	 -0.275	 -0.165
[09:56:11.320]	 -0.275	 -0.165
[09:56:11.328]	 -0.255	 -0.155
[09:56:11.336]	 -0.255	 -0.145
[09:56:11.344]	 -0.235	 -0.135
[09:56:11.352]	 -0.235	 -0.115
[09:56:11.359]	 -0.215	 -0.115
[09:56:11.367]	 -0.025	  0.545
[09:56:11.375]	  0.455	  0.545
[09:56:11.383]	  0.435	  0.525
[09:56:11.391]	  0.425	  0.525
[09:56:11.398]	  0.415	  0.525
[09:56:11.406]	  0.415	  0.515
[09:56:11.414]	  0.415	  0.515
[09:56:11.422]	  0.405	  0.505
[09:56:11.430]	  0.395	  0.495
[09:56:11.438]	  0.395	  0.485
[09:56:11.445]	  0.385	  0.485
[09:56:11.453]	  0.385	  0.475
[09:56:11.461]	  0.375	  0.465
[09:56:11.469]	  0.365	  0.465
[09:56:11.477]	  0.355	  0.455
[09:56:11.484]	  0.345	  0.445
[09:56:11.492]	  0.345	  0.445
[09:56:11.500]	  0.335	  0.425
[09:56:11.508]	  0.325	  0.425
[09:56:11.516]	  0.325	  0.425
[09:56:11.523]	  0.315	  0.415
[09:56:11.531]	  0.315	  0.415
[09:56:11.539]	  0.305	  0.395
[09:56:11.547]	  0.305	  0.395
[09:56:11.555]	  0.295	  0.385
[09:56:11.563]	  0.295	  0.385
[09:56:11.570]	  0.285	  0.385
[09:56:11.578]	  0.275	  0.375
[09:56:11.586]	  0.265	  0.365
[09:56:11.594]	  0.265	  0.365
[09:56:11.602]	  0.255	  0.355
[09:56:11.609]	  0.245	  0.355
[09:56:11.617]	  0.245	  0.345
[09:56:11.625]	  0.235	  0.345
[09:56:11.633]	  0.225	  0.335
[09:56:11.641]	  0.225	  0.335
[09:56:11.648]	  0.215	  0.325
[09:56:11.656]	  0.215	  0.315
[09:56:11.664]	  0.205	  0.315
[09:56:11.672]	  0.205	  0.315
[09:56:11.680]	  0.195	  0.305
[09:56:11.688]	  0.195	  0.305
[09:56:11.695]	  0.185	  0.295
[09:56:11.703]	  0.185	  0.285
[09:56:11.711]	  0.165	  0.285
[09:56:11.719]	  0.165	  0.285
[09:56:11.727]	  0.165	  0.275
[09:56:11.734]	  0.155	  0.275
[09:56:11.742]	  0.145	  0.265
[09:56:11.750]	  0.145	  0.265
[09:56:11.758]	  0.135	  0.255
[09:56:11.766]	  0.135	  0.255
[09:56:11.773]	  0.125	  0.245
[09:56:11.781]	  0.115	  0.245
[09:56:11.789]	  0.115	  0.235
[09:56:11.797]	  0.115	  0.235
[09:56:11.805]	  0.095	  0.235
[09:56:11.813]	  0.095	  0.225
[09:56:11.820]	  0.085	  0.215
[09:56:11.828]	  0.085	  0.215
[09:56:11.836]	  0.075	  0.205
[09:56:11.844]	  0.065	  0.195
[09:56:11.852]	  0.055	  0.175
[09:56:11.859]	  0.035	  0.165
[09:56:11.867]	 -0.115	 -0.485
[09:56:11.875]	 -0.615	 -0.495
[09:56:11.883]	 -0.605	 -0.485
[09:56:11.891]	 -0.595	 -0.475
[09:56:11.898]	 -0.585	 -0.475
[09:56:11.906]	 -0.585	 -0.465
[09:56:11.914]	 -0.575	 -0.465
[09:56:11.922]	 -0.565	 -0.455
[09:56:11.930]	 -0.565	 -0.445
[09:56:11.938]	 -0.555	 -0.435
[09:56:11.945]	 -0.545	 -0.435
[09:56:11.953]	 -0.545	 -0.425
[09:56:11.961]	 -0.535	 -0.425
[09:56:11.969]	 -0.525	 -0.415
[09:56:11.977]	 -0.515	 -0.405
[09:56:11.984]	 -0.515	 -0.395
[09:56:11.992]	 -0.505	 -0.395
[09:56:12.000]	 -0.495	 -0.385
[09:56:12.008]	 -0.495	 -0.375
[09:56:12.016]	 -0.485	 -0.365
[09:56:12.023]	 -0.485	 -0.365
[09:56:12.031]	 -0.475	 -0.355
[09:56:12.039]	 -0.465	 -0.345
[09:56:12.047]	 -0.455	 -0.345
[09:56:12.055]	 -0.455	 -0.335
[09:56:12.063]	 -0.455	 -0.335
[09:56:12.070]	 -0.445	 -0.325
[09:56:12.078]	 -0.435	 -0.325
[09:56:12.086]	 -0.435	 -0.325
[09:56:12.094]	 -0.425	 -0.305
[09:56:12.102]	 -0.425	 -0.295
[09:56:12.109]	 -0.425	 -0.295
[09:56:12.117]	 -0.415	 -0.295
[09:56:12.125]	 -0.405	 -0.285
[09:56:12.133]	 -0.405	 -0.285
[09:56:12.141]	 -0.395	 -0.265
[09:56:12.148]	 -0.395	 -0.265
[09:56:12.156]	 -0.385	 -0.265
[09:56:12.164]	 -0.385	 -0.255
[09:56:12.172]	 -0.385	 -0.245
[09:56:12.180]	 -0.375	 -0.245
[09:56:12.188]	 -0.365	 -0.235
[09:56:12.195]	 -0.365	 -0.235
[09:56:12.203]	 -0.355	 -0.235
[09:56:12.211]	 -0.355	 -0.225
[09:56:12.219]	 -0.345	 -0.215
[09:56:12.227]	 -0.335	 -0.205
[09:56:12.234]	 -0.325	 -0.215
[09:56:12.242]	 -0.325	 -0.205
[09:56:12.250]	 -0.325	 -0.195
[09:56:12.258]	 -0.315	 -0.185
[09:56:12.266]	 -0.305	 -0.185
[09:56:12.273]	 -0.315	 -0.185
[09:56:12.281]	 -0.295	 -0.175
[09:56:12.289]	 -0.285	 -0.175
[09:56:12.297]	 -0.285	 -0.165
[09:56:12.305]	 -0.285	 -0.155
[09:56:12.313]	 -0.275	 -0.165
[09:56:12.320]	 -0.275	 -0.155
[09:56:12.328]	 -0.265	 -0.145
[09:56:12.336]	 -0.255	 -0.135
[09:56:12.344]	 -0.245	 -0.125
[09:56:12.352]	 -0.235	 -0.115
[09:56:12.359]	 -0.215	 -0.115
[09:56:12.367]	 -0.045	  0.555
[09:56:12.375]	  0.425	  0.565
[09:56:12.383]	  0.415	  0.545
[09:56:12.391]	  0.415	  0.545
[09:56:12.398]	  0.405	  0.535
[09:56:12.406]	  0.395	  0.535
[09:56:12.414]	  0.395	  0.525
[09:56:12.422]	  0.395	  0.525
[09:56:12.430]	  0.385	  0.515
[09:56:12.438]	  0.375	  0.505
[09:56:12.445]	  0.375	  0.495
[09:56:12.453]	  0.365	  0.495
[09:56:12.461]	  0.355	  0.485
[09:56:12.469]	  0.355	  0.475
[09:56:12.477]	  0.345	  0.465
[09:56:12.484]	  0.345	  0.465
[09:56:12.492]	  0.335	  0.465
[09:56:12.500]	  0.335	  0.455
[09:56:12.508]	  0.315	  0.445
[09:56:12.516]	  0.315	  0.445
[09:56:12.523]	  0.315	  0.435
[09:56:12.531]	  0.305	  0.435
[09:56:12.539]	  0.295	  0.425
[09:56:12.547]	  0.295	  0.415
[09:56:12.555]	  0.285	  0.415
[09:56:12.563]	  0.285	  0.405
[09:56:12.570]	  0.275	  0.395
[09:56:12.578]	  0.275	  0.395
[09:56:12.586]	  0.265	  0.385
[09:56:12.594]	  0.255	  0.385
[09:56:12.602]	  0.255	  0.385
[09:56:12.609]	  0.245	  0.375
[09:56:12.617]	  0.235	  0.365
[09:56:12.625]	  0.235	  0.365
[09:56:12.633]	  0.225	  0.355
[09:56:12.641]	  0.225	  0.345
[09:56:12.648]	  0.215	  0.345
[09:56:12.656]	  0.215	  0.335
[09:56:12.664]	  0.205	  0.335
[09:56:12.672]	  0.195	  0.335
[09:56:12.680]	  0.185	  0.325
[09:56:12.688]	  0.185	  0.325
[09:56:12.695]	  0.175	  0.315
[09:56:12.703]	  0.175	  0.315
[09:56:12.711]	  0.165	  0.305
[09:56:12.719]	  0.165	  0.305
[09:56:12.727]	  0.155	  0.295
[09:56:12.734]	  0.155	  0.295
[09:56:12.742]	  0.135	  0.285
[09:56:12.750]	  0.145	  0.285
[09:56:12.758]	  0.135	  0.285
[09:56:12.766]	  0.125	  0.275
[09:56:12.773]	  0.115	  0.265
[09:56:12.781]	  0.125	  0.265
[09:56:12.789]	  0.105	  0.265
[09:56:12.797]	  0.105	  0.255
[09:56:12.805]	  0.095	  0.255
[09:56:12.813]	  0.095	  0.245
[09:56:12.820]	  0.085	  0.235
[09:56:12.828]	  0.075	  0.235
[09:56:12.836]	  0.065	  0.225
[09:56:12.844]	  0.065	  0.215
[09:56:12.852]	  0.045	  0.195
[09:56:12.859]	  0.025	  0.145
[09:56:12.867]	 -0.385	 -0.495
[09:56:12.875]	 -0.645	 -0.465
[09:56:12.883]	 -0.625	 -0.445
[09:56:12.891]	 -0.615	 -0.455
[09:56:12.898]	 -0.615	 -0.445
[09:56:12.906]	 -0.605	 -0.445
[09:56:12.914]	 -0.605	 -0.435
[09:56:12.922]	 -0.595	 -0.425
[09:56:12.930]	 -0.595	 -0.435
[09:56:12.938]	 -0.585	 -0.415
[09:56:12.945]	 -0.575	 -0.415
[09:56:12.953]	 -0.565	 -0.395
[09:56:12.961]	 -0.565	 -0.395
[09:56:12.969]	 -0.555	 -0.395
[09:56:12.977]	 -0.545	 -0.395
[09:56:12.984]	 -0.545	 -0.375
[09:56:12.992]	 -0.535	 -0.375
[09:56:13.000]	 -0.525	 -0.365
[09:56:13.008]	 -0.525	 -0.365
[09:56:13.016]	 -0.515	 -0.355
[09:56:13.023]	 -0.515	 -0.345
[09:56:13.031]	 -0.505	 -0.335
[09:56:13.039]	 -0.495	 -0.335
[09:56:13.047]	 -0.495	 -0.325
[09:56:13.055]	 -0.485	 -0.315
[09:56:13.063]	 -0.475	 -0.315
[09:56:13.070]	 -0.475	 -0.305
[09:56:13.078]	 -0.465	 -0.295
[09:56:13.086]	 -0.455	 -0.305
[09:56:13.094]	 -0.445	 -0.295
[09:56:13.102]	 -0.445	 -0.285
[09:56:13.109]	 -0.435	 -0.275
[09:56:13.117]	 -0.435	 -0.275
[09:56:13.125]	 -0.425	 -0.275
[09:56:13.133]	 -0.425	 -0.265
[09:56:13.141]	 -0.415	 -0.255
[09:56:13.148]	 -0.415	 -0.255
[09:56:13.156]	 -0.395	 -0.245
[09:56:13.164]	 -0.395	 -0.245
[09:56:13.172]	 -0.395	 -0.235
[09:56:13.180]	 -0.385	 -0.235
[09:56:13.188]	 -0.375	 -0.225
[09:56:13.195]	 -0.375	 -0.225
[09:56:13.203]	 -0.365	 -0.225
[09:56:13.211]	 -0.365	 -0.215
[09:56:13.219]	 -0.355	 -0.215
[09:56:13.227]	 -0.355	 -0.215
[09:56:13.234]	 -0.335	 -0.205
[09:56:13.242]	 -0.335	 -0.195
[09:56:13.250]	 -0.325	 -0.195
[09:56:13.258]	 -0.325	 -0.185
[09:56:13.266]	 -0.325	 -0.185
[09:56:13.273]	 -0.315	 -0.175
[09:56:13.281]	 -0.295	 -0.175
[09:56:13.289]	 -0.305	 -0.175
[09:56:13.297]	 -0.295	 -0.165
[09:56:13.305]	 -0.295	 -0.165
[09:56:13.313]	 -0.285	 -0.155
[09:56:13.320]	 -0.265	 -0.155
[09:56:13.328]	 -0.265	 -0.145
[09:56:13.336]	 -0.255	 -0.135
[09:56:13.344]	 -0.245	 -0.135
[09:56:13.352]	 -0.235	 -0.115
[09:56:13.359]	 -0.215	 -0.105
[09:56:13.367]	 -0.195	  0.445
[09:56:13.375]	  0.415	  0.565
[09:56:13.383]	  0.425	  0.545
[09:56:13.391]	  0.415	  0.545
[09:56:13.398]	  0.415	  0.535
[09:56:13.406]	  0.415	  0.525
[09:56:13.414]	  0.405	  0.515
[09:56:13.422]	  0.395	  0.515
[09:56:13.430]	  0.395	  0.505
[09:56:13.438]	  0.385	  0.495
[09:56:13.445]	  0.385	  0.495
[09:56:13.453]	  0.375	  0.475
[09:56:13.461]	  0.365	  0.475
[09:56:13.469]	  0.365	  0.465
[09:56:13.477]	  0.355	  0.465
[09:56:13.484]	  0.345	  0.455
[09:56:13.492]	  0.335	  0.445
[09:56:13.500]	  0.335	  0.435
[09:56:13.508]	  0.325	  0.435
[09:56:13.516]	  0.315	  0.425
[09:56:13.523]	  0.305	  0.415
[09:56:13.531]	  0.305	  0.405
[09:56:13.539]	  0.305	  0.405
[09:56:13.547]	  0.295	  0.395
[09:56:13.555]	  0.285	  0.385
[09:56:13.563]	  0.275	  0.385
[09:56:13.570]	  0.275	  0.375
[09:56:13.578]	  0.265	  0.375
[09:56:13.586]	  0.265	  0.365
[09:56:13.594]	  0.255	  0.355
[09:56:13.602]	  0.255	  0.355
[09:56:13.609]	  0.245	  0.345
[09:56:13.617]	  0.235	  0.345
[09:56:13.625]	  0.235	  0.335
[09:56:13.633]	  0.225	  0.325
[09:56:13.641]	  0.225	  0.325
[09:56:13.648]	  0.215	  0.325
[09:56:13.656]	  0.215	  0.315
[09:56:13.664]	  0.205	  0.315
[09:56:13.672]	  0.205	  0.305
[09:56:13.680]	  0.195	  0.295
[09:56:13.688]	  0.185	  0.295
[09:56:13.695]	  0.185	  0.295
[09:56:13.703]	  0.185	  0.285
[09:56:13.711]	  0.175	  0.285
[09:56:13.719]	  0.165	  0.275
[09:56:13.727]	  0.155	  0.265
[09:56:13.734]	  0.155	  0.265
[09:56:13.742]	  0.145	  0.255
[09:56:13.750]	  0.145	  0.255
[09:56:13.758]	  0.135	  0.245
[09:56:13.766]	  0.135	  0.245
[09:56:13.773]	  0.125	  0.235
[09:56:13.781]	  0.125	  0.235
[09:56:13.789]	  0.115	  0.235
[09:56:13.797]	  0.105	  0.215
[09:56:13.805]	  0.095	  0.215
[09:56:13.813]	  0.095	  0.205
[09:56:13.820]	  0.085	  0.205
[09:56:13.828]	  0.085	  0.205
[09:56:13.836]	  0.075	  0.185
[09:56:13.844]	  0.065	  0.185
[09:56:13.852]	  0.055	  0.165
[09:56:13.859]	  0.025	  0.115
[09:56:13.867]	 -0.415	 -0.535
[09:56:13.875]	 -0.645	 -0.505
[09:56:13.883]	 -0.625	 -0.495
[09:56:13.891]	 -0.615	 -0.495
[09:56:13.898]	 -0.615	 -0.485
[09:56:13.906]	 -0.605	 -0.485
[09:56:13.914]	 -0.605	 -0.485
[09:56:13.922]	 -0.595	 -0.465
[09:56:13.930]	 -0.595	 -0.465
[09:56:13.938]	 -0.585	 -0.455
[09:56:13.945]	 -0.575	 -0.445
[09:56:13.953]	 -0.575	 -0.445
[09:56:13.961]	 -0.565	 -0.435
[09:56:13.969]	 -0.565	 -0.435
[09:56:13.977]	 -0.555	 -0.425
[09:56:13.984]	 -0.545	 -0.415
[09:56:13.992]	 -0.535	 -0.415
[09:56:14.000]	 -0.535	 -0.405
[09:56:14.008]	 -0.525	 -0.395
[09:56:14.016]	 -0.515	 -0.385
[09:56:14.023]	 -0.515	 -0.385
[09:56:14.031]	 -0.505	 -0.385
[09:56:14.039]	 -0.495	 -0.375
[09:56:14.047]	 -0.485	 -0.365
[09:56:14.055]	 -0.485	 -0.355
[09:56:14.063]	 -0.475	 -0.345
[09:56:14.070]	 -0.465	 -0.345
[09:56:14.078]	 -0.465	 -0.345
[09:56:14.086]	 -0.455	 -0.335
[09:56:14.094]	 -0.455	 -0.325
[09:56:14.102]	 -0.445	 -0.325
[09:56:14.109]	 -0.435	 -0.325
[09:56:14.117]	 -0.435	 -0.315
[09:56:14.125]	 -0.425	 -0.305
[09:56:14.133]	 -0.415	 -0.295
[09:56:14.141]	 -0.415	 -0.295
[09:56:14.148]	 -0.405	 -0.295
[09:56:14.156]	 -0.395	 -0.285
[09:56:14.164]	 -0.395	 -0.275
[09:56:14.172]	 -0.385	 -0.275
[09:56:14.180]	 -0.385	 -0.265
[09:56:14.188]	 -0.375	 -0.265
[09:56:14.195]	 -0.375	 -0.255
[09:56:14.203]	 -0.365	 -0.255
[09:56:14.211]	 -0.365	 -0.245
[09:56:14.219]	 -0.345	 -0.245
[09:56:14.227]	 -0.345	 -0.235
[09:56:14.234]	 -0.335	 -0.235
[09:56:14.242]	 -0.335	 -0.235
[09:56:14.250]	 -0.325	 -0.225
[09:56:14.258]	 -0.325	 -0.215
[09:56:14.266]	 -0.315	 -0.215
[09:56:14.273]	 -0.315	 -0.215
[09:56:14.281]	 -0.295	 -0.215
[09:56:14.289]	 -0.295	 -0.205
[09:56:14.297]	 -0.285	 -0.195
[09:56:14.305]	 -0.285	 -0.195
[09:56:14.313]	 -0.275	 -0.185
[09:56:14.320]	 -0.265	 -0.185
[09:56:14.328]	 -0.265	 -0.175
[09:56:14.336]	 -0.255	 -0.165
[09:56:14.344]	 -0.245	 -0.155
[09:56:14.352]	 -0.225	 -0.135
[09:56:14.359]	 -0.195	 -0.085
[09:56:14.367]	  0.225	  0.545
[09:56:14.375]	  0.465	  0.525
[09:56:14.383]	  0.435	  0.515
[09:56:14.391]	  0.425	  0.505
[09:56:14.398]	  0.425	  0.495
[09:56:14.406]	  0.425	  0.495
[09:56:14.414]	  0.415	  0.485
[09:56:14.422]	  0.405	  0.485
[09:56:14.430]	  0.405	  0.485
[09:56:14.438]	  0.405	  0.465
[09:56:14.445]	  0.385	  0.465
[09:56:14.453]	  0.385	  0.465
[09:56:14.461]	  0.375	  0.445
[09:56:14.469]	  0.375	  0.445
[09:56:14.477]	  0.365	  0.435
[09:56:14.484]	  0.355	  0.425
[09:56:14.492]	  0.345	  0.425
[09:56:14.500]	  0.345	  0.415
[09:56:14.508]	  0.335	  0.405
[09:56:14.516]	  0.335	  0.405
[09:56:14.523]	  0.315	  0.395
[09:56:14.531]	  0.325	  0.395
[09:56:14.539]	  0.315	  0.385
[09:56:14.547]	  0.315	  0.375
[09:56:14.555]	  0.305	  0.365
[09:56:14.563]	  0.295	  0.365
[09:56:14.570]	  0.285	  0.355
[09:56:14.578]	  0.285	  0.355
[09:56:14.586]	  0.275	  0.345
[09:56:14.594]	  0.275	  0.345
[09:56:14.602]	  0.275	  0.345
[09:56:14.609]	  0.265	  0.335
[09:56:14.617]	  0.255	  0.325
[09:56:14.625]	  0.255	  0.315
[09:56:14.633]	  0.245	  0.315
[09:56:14.641]	  0.245	  0.315
[09:56:14.648]	  0.235	  0.305
[09:56:14.656]	  0.235	  0.305
[09:56:14.664]	  0.225	  0.295
[09:56:14.672]	  0.215	  0.285
[09:56:14.680]	  0.205	  0.285
[09:56:14.688]	  0.205	  0.285
[09:56:14.695]	  0.205	  0.275
[09:56:14.703]	  0.195	  0.275
[09:56:14.711]	  0.185	  0.265
[09:56:14.719]	  0.185	  0.265
[09:56:14.727]	  0.175	  0.255
[09:56:14.734]	  0.165	  0.255
[09:56:14.742]	  0.165	  0.245
[09:56:14.750]	  0.165	  0.245
[09:56:14.758]	  0.155	  0.235
[09:56:14.766]	  0.145	  0.235
[09:56:14.773]	  0.135	  0.235
[09:56:14.781]	  0.135	  0.225
[09:56:14.789]	  0.135	  0.215
[09:56:14.797]	  0.125	  0.215
[09:56:14.805]	  0.115	  0.205
[09:56:14.813]	  0.105	  0.205
[09:56:14.820]	  0.105	  0.195
[09:56:14.828]	  0.105	  0.195
[09:56:14.836]	  0.085	  0.185
[09:56:14.844]	  0.075	  0.165
[09:56:14.852]	  0.065	  0.155
[09:56:14.859]	  0.045	  0.155
[09:56:14.867]	 -0.305	 -0.535
[09:56:14.875]	 -0.645	 -0.515
[09:56:14.883]	 -0.615	 -0.515
[09:56:14.891]	 -0.605	 -0.505
[09:56:14.898]	 -0.605	 -0.505
[09:56:14.906]	 -0.595	 -0.495
[09:56:14.914]	 -0.595	 -0.485
[09:56:14.922]	 -0.585	 -0.475
[09:56:14.930]	 -0.575	 -0.475
[09:56:14.938]	 -0.575	 -0.465
[09:56:14.945]	 -0.565	 -0.465
[09:56:14.953]	 -0.555	 -0.455
[09:56:14.961]	 -0.555	 -0.445
[09:56:14.969]	 -0.535	 -0.435
[09:56:14.977]	 -0.535	 -0.435
[09:56:14.984]	 -0.525	 -0.425
[09:56:14.992]	 -0.525	 -0.425
[09:56:15.000]	 -0.515	 -0.405
[09:56:15.008]	 -0.505	 -0.395
[09:56:15.016]	 -0.495	 -0.405
[09:56:15.023]	 -0.495	 -0.395
[09:56:15.031]	 -0.485	 -0.385
[09:56:15.039]	 -0.485	 -0.375
[09:56:15.047]	 -0.475	 -0.365
[09:56:15.055]	 -0.475	 -0.375
[09:56:15.063]	 -0.455	 -0.355
[09:56:15.070]	 -0.455	 -0.355
[09:56:15.078]	 -0.445	 -0.345
[09:56:15.086]	 -0.445	 -0.345
[09:56:15.094]	 -0.435	 -0.335
[09:56:15.102]	 -0.425	 -0.335
[09:56:15.109]	 -0.415	 -0.325
[09:56:15.117]	 -0.415	 -0.315
[09:56:15.125]	 -0.405	 -0.315
[09:56:15.133]	 -0.405	 -0.305
[09:56:15.141]	 -0.395	 -0.305
[09:56:15.148]	 -0.395	 -0.305
[09:56:15.156]	 -0.385	 -0.295
[09:56:15.164]	 -0.375	 -0.285
[09:56:15.172]	 -0.375	 -0.285
[09:56:15.180]	 -0.365	 -0.275
[09:56:15.188]	 -0.355	 -0.275
[09:56:15.195]	 -0.345	 -0.265
[09:56:15.203]	 -0.345	 -0.265
[09:56:15.211]	 -0.345	 -0.255
[09:56:15.219]	 -0.325	 -0.255
[09:56:15.227]	 -0.325	 -0.255
[09:56:15.234]	 -0.325	 -0.245
[09:56:15.242]	 -0.325	 -0.235
[09:56:15.250]	 -0.315	 -0.235
[09:56:15.258]	 -0.305	 -0.235
[09:56:15.266]	 -0.295	 -0.225
[09:56:15.273]	 -0.305	 -0.215
[09:56:15.281]	 -0.295	 -0.215
[09:56:15.289]	 -0.285	 -0.215
[09:56:15.297]	 -0.275	 -0.205
[09:56:15.305]	 -0.275	 -0.205
[09:56:15.313]	 -0.265	 -0.185
[09:56:15.320]	 -0.255	 -0.185
[09:56:15.328]	 -0.255	 -0.175
[09:56:15.336]	 -0.245	 -0.175
[09:56:15.344]	 -0.235	 -0.165
[09:56:15.352]	 -0.225	 -0.145
[09:56:15.359]	 -0.195	 -0.085
[09:56:15.367]	  0.285	  0.545
[09:56:15.375]	  0.475	  0.525
[09:56:15.383]	  0.445	  0.505
[09:56:15.391]	  0.435	  0.505
[09:56:15.398]	  0.435	  0.495
[09:56:15.406]	  0.425	  0.495
[09:56:15.414]	  0.425	  0.485
[09:56:15.422]	  0.415	  0.475
[09:56:15.430]	  0.405	  0.475
[09:56:15.438]	  0.405	  0.465
[09:56:15.445]	  0.395	  0.455
[09:56:15.453]	  0.395	  0.445
[09:56:15.461]	  0.385	  0.445
[09:56:15.469]	  0.385	  0.435
[09:56:15.477]	  0.365	  0.435
[09:56:15.484]	  0.365	  0.425
[09:56:15.492]	  0.365	  0.425
[09:56:15.500]	  0.355	  0.415
[09:56:15.508]	  0.345	  0.405
[09:56:15.516]	  0.335	  0.395
[09:56:15.523]	  0.335	  0.385
[09:56:15.531]	  0.325	  0.385
[09:56:15.539]	  0.315	  0.375
[09:56:15.547]	  0.315	  0.375
[09:56:15.555]	  0.305	  0.365
[09:56:15.563]	  0.295	  0.365
[09:56:15.570]	  0.295	  0.355
[09:56:15.578]	  0.295	  0.345
[09:56:15.586]	  0.275	  0.345
[09:56:15.594]	  0.285	  0.335
[09:56:15.602]	  0.275	  0.335
[09:56:15.609]	  0.265	  0.335
[09:56:15.617]	  0.255	  0.315
[09:56:15.625]	  0.255	  0.315
[09:56:15.633]	  0.245	  0.315
[09:56:15.641]	  0.245	  0.305
[09:56:15.648]	  0.235	  0.305
[09:56:15.656]	  0.235	  0.295
[09:56:15.664]	  0.225	  0.285
[09:56:15.672]	  0.225	  0.285
[09:56:15.680]	  0.205	  0.285
[09:56:15.688]	  0.215	  0.275
[09:56:15.695]	  0.205	  0.265
[09:56:15.703]	  0.195	  0.265
[09:56:15.711]	  0.195	  0.265
[09:56:15.719]	  0.185	  0.255
[09:56:15.727]	  0.175	  0.255
[09:56:15.734]	  0.175	  0.245
[09:56:15.742]	  0.165	  0.235
[09:56:15.750]	  0.155	  0.235
[09:56:15.758]	  0.145	  0.235
[09:56:15.766]	  0.145	  0.235
[09:56:15.773]	  0.145	  0.225
[09:56:15.781]	  0.135	  0.215
[09:56:15.789]	  0.135	  0.215
[09:56:15.797]	  0.125	  0.205
[09:56:15.805]	  0.115	  0.205
[09:56:15.813]	  0.115	  0.195
[09:56:15.820]	  0.105	  0.185
[09:56:15.828]	  0.105	  0.185
[09:56:15.836]	  0.085	  0.175
[09:56:15.844]	  0.085	  0.175
[09:56:15.852]	  0.075	  0.145
[09:56:15.859]	  0.045	  0.145
[09:56:15.867]	 -0.155	 -0.525
[09:56:15.875]	 -0.605	 -0.525
[09:56:15.883]	 -0.585	 -0.515
[09:56:15.891]	 -0.585	 -0.515
[09:56:15.898]	 -0.575	 -0.505
[09:56:15.906]	 -0.565	 -0.505
[09:56:15.914]	 -0.565	 -0.495
[09:56:15.922]	 -0.565	 -0.485
[09:56:15.930]	 -0.555	 -0.485
[09:56:15.938]	 -0.545	 -0.485
[09:56:15.945]	 -0.535	 -0.475
[09:56:15.953]	 -0.535	 -0.465
[09:56:15.961]	 -0.525	 -0.455
[09:56:15.969]	 -0.515	 -0.445
[09:56:15.977]	 -0.515	 -0.445
[09:56:15.984]	 -0.505	 -0.435
[09:56:15.992]	 -0.495	 -0.425
[09:56:16.000]	 -0.485	 -0.425
[09:56:16.008]	 -0.485	 -0.415
[09:56:16.016]	 -0.485	 -0.405
[09:56:16.023]	 -0.475	 -0.405
[09:56:16.031]	 -0.465	 -0.395
[09:56:16.039]	 -0.465	 -0.395
[09:56:16.047]	 -0.455	 -0.375
[09:56:16.055]	 -0.455	 -0.375
[09:56:16.063]	 -0.435	 -0.365
[09:56:16.070]	 -0.435	 -0.365
[09:56:16.078]	 -0.425	 -0.355
[09:56:16.086]	 -0.425	 -0.345
[09:56:16.094]	 -0.415	 -0.345
[09:56:16.102]	 -0.415	 -0.335
[09:56:16.109]	 -0.405	 -0.335
[09:56:16.117]	 -0.405	 -0.335
[09:56:16.125]	 -0.395	 -0.325
[09:56:16.133]	 -0.385	 -0.315
[09:56:16.141]	 -0.385	 -0.305
[09:56:16.148]	 -0.385	 -0.305
[09:56:16.156]	 -0.365	 -0.305
[09:56:16.164]	 -0.365	 -0.295
[09:56:16.172]	 -0.355	 -0.295
[09:56:16.180]	 -0.355	 -0.285
[09:56:16.188]	 -0.345	 -0.285
[09:56:16.195]	 -0.345	 -0.285
[09:56:16.203]	 -0.335	 -0.275
[09:56:16.211]	 -0.335	 -0.265
[09:56:16.219]	 -0.325	 -0.255
[09:56:16.227]	 -0.325	 -0.255
[09:56:16.234]	 -0.305	 -0.255
[09:56:16.242]	 -0.305	 -0.255
[09:56:16.250]	 -0.295	 -0.245
[09:56:16.258]	 -0.285	 -0.235
[09:56:16.266]	 -0.285	 -0.235
[09:56:16.273]	 -0.285	 -0.235
[09:56:16.281]	 -0.275	 -0.225
[09:56:16.289]	 -0.275	 -0.225
[09:56:16.297]	 -0.265	 -0.215
[09:56:16.305]	 -0.255	 -0.215
[09:56:16.313]	 -0.245	 -0.205
[09:56:16.320]	 -0.235	 -0.195
[09:56:16.328]	 -0.225	 -0.185
[09:56:16.336]	 -0.235	 -0.185
[09:56:16.344]	 -0.215	 -0.175
[09:56:16.352]	 -0.205	 -0.155
[09:56:16.359]	 -0.185	  0.135
[09:56:16.367]	  0.415	  0.525
[09:56:16.375]	  0.465	  0.505
[09:56:16.383]	  0.455	  0.485
[09:56:16.391]	  0.445	  0.485
[09:56:16.398]	  0.435	  0.485
[09:56:16.406]	  0.435	  0.465
[09:56:16.414]	  0.425	  0.465
[09:56:16.422]	  0.425	  0.465
[09:56:16.430]	  0.415	  0.455
[09:56:16.438]	  0.405	  0.445
[09:56:16.445]	  0.405	  0.435
[09:56:16.453]	  0.395	  0.435
[09:56:16.461]	  0.385	  0.425
[09:56:16.469]	  0.385	  0.425
[09:56:16.477]	  0.375	  0.415
[09:56:16.484]	  0.365	  0.405
[09:56:16.492]	  0.355	  0.405
[09:56:16.500]	  0.355	  0.395
[09:56:16.508]	  0.345	  0.395
[09:56:16.516]	  0.345	  0.385
[09:56:16.523]	  0.335	  0.365
[09:56:16.531]	  0.335	  0.365
[09:56:16.539]	  0.325	  0.365
[09:56:16.547]	  0.315	  0.355
[09:56:16.555]	  0.315	  0.345
[09:56:16.563]	  0.315	  0.335
[09:56:16.570]	  0.295	  0.335
[09:56:16.578]	  0.295	  0.335
[09:56:16.586]	  0.285	  0.325
[09:56:16.594]	  0.285	  0.325
[09:56:16.602]	  0.285	  0.315
[09:56:16.609]	  0.275	  0.305
[09:56:16.617]	  0.265	  0.305
[09:56:16.625]	  0.265	  0.295
[09:56:16.633]	  0.255	  0.295
[09:56:16.641]	  0.265	  0.295
[09:56:16.648]	  0.245	  0.285
[09:56:16.656]	  0.245	  0.275
[09:56:16.664]	  0.235	  0.275
[09:56:16.672]	  0.225	  0.275
[09:56:16.680]	  0.225	  0.265
[09:56:16.688]	  0.225	  0.255
[09:56:16.695]	  0.215	  0.255
[09:56:16.703]	  0.205	  0.255
[09:56:16.711]	  0.195	  0.255
[09:56:16.719]	  0.195	  0.235
[09:56:16.727]	  0.185	  0.235
[09:56:16.734]	  0.185	  0.235
[09:56:16.742]	  0.175	  0.225
[09:56:16.750]	  0.175	  0.225
[09:56:16.758]	  0.165	  0.215
[09:56:16.766]	  0.155	  0.215
[09:56:16.773]	  0.155	  0.205
[09:56:16.781]	  0.145	  0.205
[09:56:16.789]	  0.145	  0.195
[09:56:16.797]	  0.135	  0.195
[09:56:16.805]	  0.135	  0.185
[09:56:16.813]	  0.125	  0.185
[09:56:16.820]	  0.115	  0.175
[09:56:16.828]	  0.115	  0.175
[09:56:16.836]	  0.105	  0.165
[09:56:16.844]	  0.095	  0.155
[09:56:16.852]	  0.075	  0.135
[09:56:16.859]	  0.045	  0.025
[09:56:16.867]	 -0.535	 -0.555
[09:56:16.875]	 -0.615	 -0.525
[09:56:16.883]	 -0.595	 -0.515
[09:56:16.891]	 -0.585	 -0.515
[09:56:16.898]	 -0.585	 -0.505
[09:56:16.906]	 -0.585	 -0.505
[09:56:16.914]	 -0.585	 -0.505
[09:56:16.922]	 -0.565	 -0.495
[09:56:16.930]	 -0.565	 -0.485
[09:56:16.938]	 -0.555	 -0.475
[09:56:16.945]	 -0.555	 -0.465
[09:56:16.953]	 -0.535	 -0.455
[09:56:16.961]	 -0.535	 -0.455
[09:56:16.969]	 -0.525	 -0.455
[09:56:16.977]	 -0.525	 -0.435
[09:56:16.984]	 -0.515	 -0.435
[09:56:16.992]	 -0.515	 -0.425
[09:56:17.000]	 -0.495	 -0.415
[09:56:17.008]	 -0.495	 -0.415
[09:56:17.016]	 -0.485	 -0.405
[09:56:17.023]	 -0.475	 -0.395
[09:56:17.031]	 -0.465	 -0.395
[09:56:17.039]	 -0.465	 -0.385
[09:56:17.047]	 -0.455	 -0.385
[09:56:17.055]	 -0.455	 -0.375
[09:56:17.063]	 -0.445	 -0.365
[09:56:17.070]	 -0.435	 -0.355
[09:56:17.078]	 -0.435	 -0.355
[09:56:17.086]	 -0.425	 -0.355
[09:56:17.094]	 -0.415	 -0.345
[09:56:17.102]	 -0.415	 -0.335
[09:56:17.109]	 -0.405	 -0.335
[09:56:17.117]	 -0.405	 -0.315
[09:56:17.125]	 -0.395	 -0.325
[09:56:17.133]	 -0.385	 -0.315
[09:56:17.141]	 -0.375	 -0.305
[09:56:17.148]	 -0.375	 -0.295
[09:56:17.156]	 -0.365	 -0.295
[09:56:17.164]	 -0.355	 -0.295
[09:56:17.172]	 -0.355	 -0.295
[09:56:17.180]	 -0.345	 -0.285
[09:56:17.188]	 -0.345	 -0.275
[09:56:17.195]	 -0.335	 -0.265
[09:56:17.203]	 -0.325	 -0.265
[09:56:17.211]	 -0.315	 -0.255
[09:56:17.219]	 -0.315	 -0.255
[09:56:17.227]	 -0.305	 -0.245
[09:56:17.234]	 -0.295	 -0.245
[09:56:17.242]	 -0.295	 -0.235
[09:56:17.250]	 -0.285	 -0.235
[09:56:17.258]	 -0.285	 -0.235
[09:56:17.266]	 -0.275	 -0.215
[09:56:17.273]	 -0.275	 -0.215
[09:56:17.281]	 -0.255	 -0.215
[09:56:17.289]	 -0.255	 -0.215
[09:56:17.297]	 -0.245	 -0.195
[09:56:17.305]	 -0.245	 -0.195
[09:56:17.313]	 -0.245	 -0.195
[09:56:17.320]	 -0.235	 -0.185
[09:56:17.328]	 -0.225	 -0.175
[09:56:17.336]	 -0.215	 -0.165
[09:56:17.344]	 -0.205	 -0.155
[09:56:17.352]	 -0.195	 -0.145
[09:56:17.359]	 -0.165	 -0.145
[09:56:17.367]	  0.145	  0.535
[09:56:17.375]	  0.485	  0.525
[09:56:17.383]	  0.465	  0.515
[09:56:17.391]	  0.455	  0.515
[09:56:17.398]	  0.445	  0.505
[09:56:17.406]	  0.445	  0.495
[09:56:17.414]	  0.435	  0.495
[09:56:17.422]	  0.435	  0.495
[09:56:17.430]	  0.425	  0.485
[09:56:17.438]	  0.425	  0.475
[09:56:17.445]	  0.415	  0.475
[09:56:17.453]	  0.415	  0.455
[09:56:17.461]	  0.395	  0.455
[09:56:17.469]	  0.395	  0.445
[09:56:17.477]	  0.385	  0.435
[09:56:17.484]	  0.375	  0.435
[09:56:17.492]	  0.375	  0.425
[09:56:17.500]	  0.375	  0.415
[09:56:17.508]	  0.375	  0.415
[09:56:17.516]	  0.355	  0.405
[09:56:17.523]	  0.355	  0.405
[09:56:17.531]	  0.355	  0.395
[09:56:17.539]	  0.345	  0.395
[09:56:17.547]	  0.345	  0.385
[09:56:17.555]	  0.335	  0.375
[09:56:17.563]	  0.335	  0.375
[09:56:17.570]	  0.315	  0.375
[09:56:17.578]	  0.315	  0.355
[09:56:17.586]	  0.305	  0.355
[09:56:17.594]	  0.315	  0.355
[09:56:17.602]	  0.305	  0.345
[09:56:17.609]	  0.295	  0.345
[09:56:17.617]	  0.295	  0.335
[09:56:17.625]	  0.295	  0.325
[09:56:17.633]	  0.285	  0.325
[09:56:17.641]	  0.285	  0.315
[09:56:17.648]	  0.265	  0.315
[09:56:17.656]	  0.265	  0.315
[09:56:17.664]	  0.265	  0.305
[09:56:17.672]	  0.255	  0.295
[09:56:17.680]	  0.245	  0.295
[09:56:17.688]	  0.245	  0.295
[09:56:17.695]	  0.245	  0.295
[09:56:17.703]	  0.235	  0.275
[09:56:17.711]	  0.225	  0.275
[09:56:17.719]	  0.225	  0.265
[09:56:17.727]	  0.215	  0.275
[09:56:17.734]	  0.215	  0.265
[09:56:17.742]	  0.205	  0.255
[09:56:17.750]	  0.205	  0.255
[09:56:17.758]	  0.205	  0.255
[09:56:17.766]	  0.185	  0.255
[09:56:17.773]	  0.175	  0.245
[09:56:17.781]	  0.185	  0.235
[09:56:17.789]	  0.175	  0.235
[09:56:17.797]	  0.175	  0.225
[09:56:17.805]	  0.155	  0.225
[09:56:17.813]	  0.155	  0.215
[09:56:17.820]	  0.145	  0.205
[09:56:17.828]	  0.145	  0.205
[09:56:17.836]	  0.135	  0.195
[09:56:17.844]	  0.125	  0.185
[09:56:17.852]	  0.105	  0.165
[09:56:17.859]	  0.075	 -0.015
[09:56:17.867]	 -0.515	 -0.535
[09:56:17.875]	 -0.575	 -0.505
[09:56:17.883]	 -0.565	 -0.485
[09:56:17.891]	 -0.555	 -0.485
[09:56:17.898]	 -0.555	 -0.485
[09:56:17.906]	 -0.545	 -0.475
[09:56:17.914]	 -0.535	 -0.475
[09:56:17.922]	 -0.535	 -0.465
[09:56:17.930]	 -0.535	 -0.455
[09:56:17.938]	 -0.515	 -0.445
[09:56:17.945]	 -0.515	 -0.445
[09:56:17.953]	 -0.505	 -0.435
[09:56:17.961]	 -0.505	 -0.425
[09:56:17.969]	 -0.485	 -0.415
[09:56:17.977]	 -0.485	 -0.415
[09:56:17.984]	 -0.475	 -0.405
[09:56:17.992]	 -0.465	 -0.405
[09:56:18.000]	 -0.455	 -0.395
[09:56:18.008]	 -0.455	 -0.385
[09:56:18.016]	 -0.445	 -0.385
[09:56:18.023]	 -0.445	 -0.375
[09:56:18.031]	 -0.425	 -0.375
[09:56:18.039]	 -0.425	 -0.365
[09:56:18.047]	 -0.415	 -0.355
[09:56:18.055]	 -0.415	 -0.345
[09:56:18.063]	 -0.405	 -0.345
[09:56:18.070]	 -0.395	 -0.345
[09:56:18.078]	 -0.395	 -0.335
[09:56:18.086]	 -0.385	 -0.335
[09:56:18.094]	 -0.385	 -0.315
[09:56:18.102]	 -0.375	 -0.315
[09:56:18.109]	 -0.365	 -0.315
[09:56:18.117]	 -0.365	 -0.305
[09:56:18.125]	 -0.355	 -0.305
[09:56:18.133]	 -0.345	 -0.285
[09:56:18.141]	 -0.345	 -0.285
[09:56:18.148]	 -0.335	 -0.295
[09:56:18.156]	 -0.325	 -0.285
[09:56:18.164]	 -0.325	 -0.275
[09:56:18.172]	 -0.325	 -0.265
[09:56:18.180]	 -0.305	 -0.255
[09:56:18.188]	 -0.305	 -0.265
[09:56:18.195]	 -0.295	 -0.255
[09:56:18.203]	 -0.285	 -0.245
[09:56:18.211]	 -0.285	 -0.245
[09:56:18.219]	 -0.275	 -0.235
[09:56:18.227]	 -0.275	 -0.235
[09:56:18.234]	 -0.265	 -0.225
[09:56:18.242]	 -0.255	 -0.225
[09:56:18.250]	 -0.245	 -0.215
[09:56:18.258]	 -0.245	 -0.205
[09:56:18.266]	 -0.235	 -0.205
[09:56:18.273]	 -0.235	 -0.205
[09:56:18.281]	 -0.225	 -0.195
[09:56:18.289]	 -0.225	 -0.195
[09:56:18.297]	 -0.215	 -0.185
[09:56:18.305]	 -0.215	 -0.185
[09:56:18.313]	 -0.205	 -0.175
[09:56:18.320]	 -0.195	 -0.175
[09:56:18.328]	 -0.185	 -0.165
[09:56:18.336]	 -0.175	 -0.155
[09:56:18.344]	 -0.165	 -0.145
[09:56:18.352]	 -0.135	 -0.125
[09:56:18.359]	 -0.115	  0.135
[09:56:18.367]	  0.485	  0.565
[09:56:18.375]	  0.535	  0.535
[09:56:18.383]	  0.525	  0.525
[09:56:18.391]	  0.515	  0.515
[09:56:18.398]	  0.505	  0.505
[09:56:18.406]	  0.505	  0.505
[09:56:18.414]	  0.495	  0.495
[09:56:18.422]	  0.485	  0.495
[09:56:18.430]	  0.485	  0.485
[09:56:18.438]	  0.485	  0.475
[09:56:18.445]	  0.475	  0.475
[09:56:18.453]	  0.475	  0.465
[09:56:18.461]	  0.465	  0.455
[09:56:18.469]	  0.455	  0.445
[09:56:18.477]	  0.455	  0.445
[09:56:18.484]	  0.445	  0.435
[09:56:18.492]	  0.435	  0.435
[09:56:18.500]	  0.435	  0.425
[09:56:18.508]	  0.425	  0.415
[09:56:18.516]	  0.425	  0.405
[09:56:18.523]	  0.415	  0.405
[09:56:18.531]	  0.415	  0.395
[09:56:18.539]	  0.405	  0.385
[09:56:18.547]	  0.395	  0.385
[09:56:18.555]	  0.385	  0.375
[09:56:18.563]	  0.385	  0.375
[09:56:18.570]	  0.375	  0.365
[09:56:18.578]	  0.375	  0.365
[09:56:18.586]	  0.365	  0.355
[09:56:18.594]	  0.375	  0.345
[09:56:18.602]	  0.365	  0.345
[09:56:18.609]	  0.355	  0.345
[09:56:18.617]	  0.345	  0.335
[09:56:18.625]	  0.345	  0.325
[09:56:18.633]	  0.335	  0.315
[09:56:18.641]	  0.335	  0.315
[09:56:18.648]	  0.325	  0.315
[09:56:18.656]	  0.315	  0.305
[09:56:18.664]	  0.315	  0.295
[09:56:18.672]	  0.315	  0.295
[09:56:18.680]	  0.305	  0.295
[09:56:18.688]	  0.295	  0.285
[09:56:18.695]	  0.295	  0.275
[09:56:18.703]	  0.295	  0.275
[09:56:18.711]	  0.285	  0.265
[09:56:18.719]	  0.275	  0.265
[09:56:18.727]	  0.275	  0.255
[09:56:18.734]	  0.265	  0.255
[09:56:18.742]	  0.265	  0.255
[09:56:18.750]	  0.265	  0.245
[09:56:18.758]	  0.245	  0.235
[09:56:18.766]	  0.245	  0.235
[09:56:18.773]	  0.245	  0.225
[09:56:18.781]	  0.245	  0.235
[09:56:18.789]	  0.235	  0.215
[09:56:18.797]	  0.225	  0.215
[09:56:18.805]	  0.215	  0.205
[09:56:18.813]	  0.215	  0.205
[09:56:18.820]	  0.205	  0.195
[09:56:18.828]	  0.205	  0.185
[09:56:18.836]	  0.185	  0.175
[09:56:18.844]	  0.185	  0.165
[09:56:18.852]	  0.165	  0.155
[09:56:18.859]	  0.145	  0.115
[09:56:18.867]	 -0.425	 -0.545
[09:56:18.875]	 -0.535	 -0.515
[09:56:18.883]	 -0.505	 -0.515
[09:56:18.891]	 -0.505	 -0.505
[09:56:18.898]	 -0.495	 -0.505
[09:56:18.906]	 -0.485	 -0.495
[09:56:18.914]	 -0.485	 -0.485
[09:56:18.922]	 -0.465	 -0.485
[09:56:18.930]	 -0.465	 -0.485
[09:56:18.938]	 -0.455	 -0.475
[09:56:18.945]	 -0.455	 -0.455
[09:56:18.953]	 -0.445	 -0.455
[09:56:18.961]	 -0.435	 -0.445
[09:56:18.969]	 -0.425	 -0.445
[09:56:18.977]	 -0.415	 -0.435
[09:56:18.984]	 -0.415	 -0.435
[09:56:18.992]	 -0.405	 -0.425
[09:56:19.000]	 -0.395	 -0.415
[09:56:19.008]	 -0.385	 -0.405
[09:56:19.016]	 -0.385	 -0.405
[09:56:19.023]	 -0.375	 -0.405
[09:56:19.031]	 -0.365	 -0.395
[09:56:19.039]	 -0.365	 -0.385
[09:56:19.047]	 -0.355	 -0.375
[09:56:19.055]	 -0.355	 -0.375
[09:56:19.063]	 -0.335	 -0.365
[09:56:19.070]	 -0.335	 -0.365
[09:56:19.078]	 -0.325	 -0.355
[09:56:19.086]	 -0.325	 -0.355
[09:56:19.094]	 -0.305	 -0.355
[09:56:19.102]	 -0.305	 -0.345
[09:56:19.109]	 -0.305	 -0.335
[09:56:19.117]	 -0.305	 -0.335
[09:56:19.125]	 -0.285	 -0.335
[09:56:19.133]	 -0.275	 -0.325
[09:56:19.141]	 -0.275	 -0.315
[09:56:19.148]	 -0.265	 -0.315
[09:56:19.156]	 -0.255	 -0.315
[09:56:19.164]	 -0.255	 -0.305
[09:56:19.172]	 -0.245	 -0.305
[09:56:19.180]	 -0.245	 -0.295
[09:56:19.188]	 -0.225	 -0.295
[09:56:19.195]	 -0.225	 -0.285
[09:56:19.203]	 -0.225	 -0.285
[09:56:19.211]	 -0.215	 -0.285
[09:56:19.219]	 -0.205	 -0.275
[09:56:19.227]	 -0.205	 -0.275
[09:56:19.234]	 -0.195	 -0.265
[09:56:19.242]	 -0.195	 -0.265
[09:56:19.250]	 -0.175	 -0.265
[09:56:19.258]	 -0.175	 -0.255
[09:56:19.266]	 -0.165	 -0.245
[09:56:19.273]	 -0.165	 -0.245
[09:56:19.281]	 -0.155	 -0.235
[09:56:19.289]	 -0.145	 -0.235
[09:56:19.297]	 -0.135	 -0.225
[09:56:19.305]	 -0.135	 -0.225
[09:56:19.313]	 -0.125	 -0.215
[09:56:19.320]	 -0.125	 -0.205
[09:56:19.328]	 -0.115	 -0.215
[09:56:19.336]	 -0.105	 -0.205
[09:56:19.344]	 -0.095	 -0.185
[09:56:19.352]	 -0.075	 -0.175
[09:56:19.359]	 -0.045	 -0.025
[09:56:19.367]	  0.515	  0.515
[09:56:19.375]	  0.595	  0.485
[09:56:19.383]	  0.575	  0.475
[09:56:19.391]	  0.575	  0.465
[09:56:19.398]	  0.565	  0.465
[09:56:19.406]	  0.565	  0.455
[09:56:19.414]	  0.565	  0.445
[09:56:19.422]	  0.555	  0.445
[09:56:19.430]	  0.545	  0.445
[09:56:19.438]	  0.545	  0.425
[09:56:19.445]	  0.545	  0.415
[09:56:19.453]	  0.535	  0.415
[09:56:19.461]	  0.525	  0.405
[09:56:19.469]	  0.525	  0.395
[09:56:19.477]	  0.505	  0.395
[09:56:19.484]	  0.505	  0.385
[09:56:19.492]	  0.495	  0.375
[09:56:19.500]	  0.495	  0.365
[09:56:19.508]	  0.485	  0.365
[09:56:19.516]	  0.475	  0.355
[09:56:19.523]	  0.465	  0.345
[09:56:19.531]	  0.465	  0.345
[09:56:19.539]	  0.465	  0.335
[09:56:19.547]	  0.455	  0.325
[09:56:19.555]	  0.445	  0.325
[09:56:19.563]	  0.445	  0.315
[09:56:19.570]	  0.435	  0.305
[09:56:19.578]	  0.435	  0.305
[09:56:19.586]	  0.425	  0.295
[09:56:19.594]	  0.425	  0.295
[09:56:19.602]	  0.415	  0.285
[09:56:19.609]	  0.405	  0.285
[09:56:19.617]	  0.405	  0.265
[09:56:19.625]	  0.405	  0.265
[09:56:19.633]	  0.395	  0.265
[09:56:19.641]	  0.385	  0.255
[09:56:19.648]	  0.375	  0.255
[09:56:19.656]	  0.375	  0.245
[09:56:19.664]	  0.375	  0.235
[09:56:19.672]	  0.365	  0.235
[09:56:19.680]	  0.355	  0.235
[09:56:19.688]	  0.355	  0.225
[09:56:19.695]	  0.355	  0.215
[09:56:19.703]	  0.345	  0.215
[09:56:19.711]	  0.335	  0.205
[09:56:19.719]	  0.335	  0.205
[09:56:19.727]	  0.325	  0.205
[09:56:19.734]	  0.315	  0.195
[09:56:19.742]	  0.315	  0.185
[09:56:19.750]	  0.315	  0.185
[09:56:19.758]	  0.305	  0.185
[09:56:19.766]	  0.305	  0.175
[09:56:19.773]	  0.295	  0.165
[09:56:19.781]	  0.295	  0.165
[09:56:19.789]	  0.285	  0.155
[09:56:19.797]	  0.275	  0.155
[09:56:19.805]	  0.265	  0.145
[09:56:19.813]	  0.265	  0.145
[09:56:19.820]	  0.265	  0.135
[09:56:19.828]	  0.255	  0.125
[09:56:19.836]	  0.245	  0.125
[09:56:19.844]	  0.235	  0.105
[09:56:19.852]	  0.215	  0.095
[09:56:19.859]	  0.195	 -0.135
[09:56:19.867]	 -0.415	 -0.615
[09:56:19.875]	 -0.455	 -0.575
[09:56:19.883]	 -0.435	 -0.565
[09:56:19.891]	 -0.425	 -0.565
[09:56:19.898]	 -0.415	 -0.565
[09:56:19.906]	 -0.405	 -0.565
[09:56:19.914]	 -0.405	 -0.555
[09:56:19.922]	 -0.395	 -0.545
[09:56:19.930]	 -0.385	 -0.545
[09:56:19.938]	 -0.375	 -0.535
[09:56:19.945]	 -0.365	 -0.525
[09:56:19.953]	 -0.355	 -0.515
[09:56:19.961]	 -0.345	 -0.515
[09:56:19.969]	 -0.335	 -0.515
[09:56:19.977]	 -0.325	 -0.505
[09:56:19.984]	 -0.315	 -0.495
[09:56:19.992]	 -0.305	 -0.485
[09:56:20.000]	 -0.295	 -0.485
[09:56:20.008]	 -0.285	 -0.485
[09:56:20.016]	 -0.275	 -0.475
[09:56:20.023]	 -0.265	 -0.465
[09:56:20.031]	 -0.255	 -0.465
[09:56:20.039]	 -0.255	 -0.455
[09:56:20.047]	 -0.235	 -0.455
[09:56:20.055]	 -0.225	 -0.445
[09:56:20.063]	 -0.215	 -0.445
[09:56:20.070]	 -0.205	 -0.435
[09:56:20.078]	 -0.195	 -0.425
[09:56:20.086]	 -0.185	 -0.425
[09:56:20.094]	 -0.175	 -0.425
[09:56:20.102]	 -0.165	 -0.415
[09:56:20.109]	 -0.155	 -0.405
[09:56:20.117]	 -0.155	 -0.405
[09:56:20.125]	 -0.145	 -0.395
[09:56:20.133]	 -0.135	 -0.395
[09:56:20.141]	 -0.125	 -0.385
[09:56:20.148]	 -0.115	 -0.385
[09:56:20.156]	 -0.105	 -0.385
[09:56:20.164]	 -0.095	 -0.375
[09:56:20.172]	 -0.085	 -0.365
[09:56:20.180]	 -0.085	 -0.365
[09:56:20.188]	 -0.075	 -0.365
[09:56:20.195]	 -0.065	 -0.355
[09:56:20.203]	 -0.065	 -0.355
[09:56:20.211]	 -0.075	 -0.345
[09:56:20.219]	 -0.065	 -0.345
[09:56:20.227]	 -0.055	 -0.345
[09:56:20.234]	 -0.055	 -0.335
[09:56:20.242]	 -0.055	 -0.335
[09:56:20.250]	 -0.045	 -0.335
[09:56:20.258]	 -0.035	 -0.325
[09:56:20.266]	 -0.035	 -0.325
[09:56:20.273]	 -0.035	 -0.315
[09:56:20.281]	 -0.025	 -0.315
[09:56:20.289]	 -0.015	 -0.315
[09:56:20.297]	 -0.005	 -0.305
[09:56:20.305]	 -0.005	 -0.295
[09:56:20.313]	  0.005	 -0.305
[09:56:20.320]	  0.015	 -0.295
[09:56:20.328]	  0.015	 -0.285
[09:56:20.336]	  0.015	 -0.285
[09:56:20.344]	  0.035	 -0.265
[09:56:20.352]	  0.045	 -0.255
[09:56:20.359]	  0.055	  0.165
[09:56:20.367]	  0.555	  0.425
[09:56:20.375]	  0.555	  0.405
[09:56:20.383]	  0.545	  0.395
[09:56:20.391]	  0.545	  0.385
[09:56:20.398]	  0.545	  0.375
[09:56:20.406]	  0.545	  0.365
[09:56:20.414]	  0.535	  0.365
[09:56:20.422]	  0.535	  0.355
[09:56:20.430]	  0.525	  0.345
[09:56:20.438]	  0.535	  0.335
[09:56:20.445]	  0.525	  0.325
[09:56:20.453]	  0.525	  0.325
[09:56:20.461]	  0.515	  0.315
[09:56:20.469]	  0.515	  0.305
[09:56:20.477]	  0.515	  0.295
[09:56:20.484]	  0.515	  0.295
[09:56:20.492]	  0.505	  0.285
[09:56:20.500]	  0.505	  0.275
[09:56:20.508]	  0.505	  0.265
[09:56:20.516]	  0.495	  0.255
[09:56:20.523]	  0.495	  0.245
[09:56:20.531]	  0.495	  0.245
[09:56:20.539]	  0.485	  0.235
[09:56:20.547]	  0.485	  0.225
[09:56:20.555]	  0.475	  0.215
[09:56:20.563]	  0.485	  0.205
[09:56:20.570]	  0.485	  0.205
[09:56:20.578]	  0.485	  0.205
[09:56:20.586]	  0.475	  0.195
[09:56:20.594]	  0.475	  0.185
[09:56:20.602]	  0.475	  0.175
[09:56:20.609]	  0.465	  0.175
[09:56:20.617]	  0.465	  0.165
[09:56:20.625]	  0.465	  0.155
[09:56:20.633]	  0.455	  0.155
[09:56:20.641]	  0.455	  0.145
[09:56:20.648]	  0.455	  0.135
[09:56:20.656]	  0.455	  0.135
[09:56:20.664]	  0.445	  0.125
[09:56:20.672]	  0.445	  0.115
[09:56:20.680]	  0.445	  0.115
[09:56:20.688]	  0.435	  0.105
[09:56:20.695]	  0.435	  0.105
[09:56:20.703]	  0.435	  0.095
[09:56:20.711]	  0.425	  0.085
[09:56:20.719]	  0.425	  0.075
[09:56:20.727]	  0.425	  0.075
[09:56:20.734]	  0.425	  0.075
[09:56:20.742]	  0.405	  0.065
[09:56:20.750]	  0.425	  0.065
[09:56:20.758]	  0.415	  0.055
[09:56:20.766]	  0.415	  0.045
[09:56:20.773]	  0.405	  0.045
[09:56:20.781]	  0.405	  0.025
[09:56:20.789]	  0.405	  0.025
[09:56:20.797]	  0.395	  0.015
[09:56:20.805]	  0.395	  0.015
[09:56:20.813]	  0.395	  0.005
[09:56:20.820]	  0.395	  0.005
[09:56:20.828]	  0.385	 -0.005
[09:56:20.836]	  0.375	 -0.015
[09:56:20.844]	  0.375	 -0.025
[09:56:20.852]	  0.355	 -0.045
[09:56:20.859]	  0.335	 -0.215
[09:56:20.867]	 -0.125	 -0.735
[09:56:20.875]	 -0.165	 -0.715
[09:56:20.883]	 -0.145	 -0.705
[09:56:20.891]	 -0.145	 -0.695
[09:56:20.898]	 -0.145	 -0.695
[09:56:20.906]	 -0.135	 -0.685
[09:56:20.914]	 -0.125	 -0.695
[09:56:20.922]	 -0.125	 -0.685
[09:56:20.930]	 -0.115	 -0.675
[09:56:20.938]	 -0.105	 -0.665
[09:56:20.945]	 -0.105	 -0.655
[09:56:20.953]	 -0.095	 -0.655
[09:56:20.961]	 -0.095	 -0.655
[09:56:20.969]	 -0.075	 -0.645
[09:56:20.977]	 -0.075	 -0.635
[09:56:20.984]	 -0.065	 -0.625
[09:56:20.992]	 -0.065	 -0.625
[09:56:21.000]	 -0.055	 -0.615
[09:56:21.008]	 -0.045	 -0.615
[09:56:21.016]	 -0.045	 -0.605
[09:56:21.023]	 -0.045	 -0.595
[09:56:21.031]	 -0.035	 -0.595
[09:56:21.039]	 -0.025	 -0.595
[09:56:21.047]	 -0.015	 -0.585
[09:56:21.055]	 -0.015	 -0.575
[09:56:21.063]	 -0.005	 -0.565
[09:56:21.070]	 -0.005	 -0.575
[09:56:21.078]	  0.005	 -0.565
[09:56:21.086]	  0.005	 -0.565
[09:56:21.094]	  0.015	 -0.555
[09:56:21.102]	  0.025	 -0.545
[09:56:21.109]	  0.025	 -0.545
[09:56:21.117]	  0.025	 -0.535
[09:56:21.125]	  0.035	 -0.535
[09:56:21.133]	  0.045	 -0.525
[09:56:21.141]	  0.045	 -0.525
[09:56:21.148]	  0.055	 -0.515
[09:56:21.156]	  0.055	 -0.515
[09:56:21.164]	  0.065	 -0.515
[09:56:21.172]	  0.065	 -0.505
[09:56:21.180]	  0.065	 -0.505
[09:56:21.188]	  0.085	 -0.495
[09:56:21.195]	  0.085	 -0.485
[09:56:21.203]	  0.085	 -0.495
[09:56:21.211]	  0.095	 -0.485
[09:56:21.219]	  0.105	 -0.485
[09:56:21.227]	  0.105	 -0.475
[09:56:21.234]	  0.115	 -0.465
[09:56:21.242]	  0.105	 -0.455
[09:56:21.250]	  0.125	 -0.465
[09:56:21.258]	  0.125	 -0.455
[09:56:21.266]	  0.125	 -0.445
[09:56:21.273]	  0.125	 -0.445
[09:56:21.281]	  0.135	 -0.435
[09:56:21.289]	  0.145	 -0.435
[09:56:21.297]	  0.145	 -0.425
[09:56:21.305]	  0.145	 -0.415
[09:56:21.313]	  0.155	 -0.415
[09:56:21.320]	  0.165	 -0.405
[09:56:21.328]	  0.165	 -0.405
[09:56:21.336]	  0.175	 -0.395
[09:56:21.344]	  0.185	 -0.385
[09:56:21.352]	  0.195	 -0.365
[09:56:21.359]	  0.235	 -0.245
[09:56:21.367]	  0.645	  0.325
[09:56:21.375]	  0.715	  0.295
[09:56:21.383]	  0.705	  0.285
[09:56:21.391]	  0.705	  0.285
[09:56:21.398]	  0.695	  0.275
[09:56:21.406]	  0.705	  0.275
[09:56:21.414]	  0.695	  0.265
[09:56:21.422]	  0.685	  0.265
[09:56:21.430]	  0.675	  0.265
[09:56:21.438]	  0.675	  0.245
[09:56:21.445]	  0.665	  0.245
[09:56:21.453]	  0.665	  0.245
[09:56:21.461]	  0.655	  0.245
[09:56:21.469]	  0.645	  0.235
[09:56:21.477]	  0.635	  0.225
[09:56:21.484]	  0.635	  0.225
[09:56:21.492]	  0.625	  0.215
[09:56:21.500]	  0.615	  0.215
[09:56:21.508]	  0.605	  0.205
[09:56:21.516]	  0.595	  0.205
[09:56:21.523]	  0.595	  0.195
[09:56:21.531]	  0.585	  0.195
[09:56:21.539]	  0.575	  0.195
[09:56:21.547]	  0.565	  0.195
[09:56:21.555]	  0.555	  0.185
[09:56:21.563]	  0.555	  0.175
[09:56:21.570]	  0.545	  0.175
[09:56:21.578]	  0.535	  0.175
[09:56:21.586]	  0.525	  0.175
[09:56:21.594]	  0.515	  0.165
[09:56:21.602]	  0.515	  0.155
[09:56:21.609]	  0.505	  0.155
[09:56:21.617]	  0.495	  0.155
[09:56:21.625]	  0.485	  0.155
[09:56:21.633]	  0.475	  0.145
[09:56:21.641]	  0.475	  0.145
[09:56:21.648]	  0.465	  0.135
[09:56:21.656]	  0.455	  0.135
[09:56:21.664]	  0.455	  0.125
[09:56:21.672]	  0.435	  0.125
[09:56:21.680]	  0.435	  0.125
[09:56:21.688]	  0.425	  0.125
[09:56:21.695]	  0.415	  0.115
[09:56:21.703]	  0.405	  0.115
[09:56:21.711]	  0.395	  0.115
[09:56:21.719]	  0.395	  0.125
[09:56:21.727]	  0.385	  0.115
[09:56:21.734]	  0.385	  0.115
[09:56:21.742]	  0.375	  0.115
[09:56:21.750]	  0.365	  0.115
[09:56:21.758]	  0.355	  0.115
[09:56:21.766]	  0.355	  0.115
[09:56:21.773]	  0.345	  0.115
[09:56:21.781]	  0.335	  0.105
[09:56:21.789]	  0.325	  0.105
[09:56:21.797]	  0.315	  0.105
[09:56:21.805]	  0.315	  0.105
[09:56:21.813]	  0.315	  0.105
[09:56:21.820]	  0.305	  0.095
[09:56:21.828]	  0.295	  0.095
[09:56:21.836]	  0.275	  0.085
[09:56:21.844]	  0.265	  0.075
[09:56:21.852]	  0.245	  0.055
[09:56:21.859]	  0.225	 -0.335
[09:56:21.867]	 -0.295	 -0.595
[09:56:21.875]	 -0.295	 -0.575
[09:56:21.883]	 -0.285	 -0.575
[09:56:21.891]	 -0.285	 -0.565
[09:56:21.898]	 -0.285	 -0.565
[09:56:21.906]	 -0.275	 -0.555
[09:56:21.914]	 -0.275	 -0.545
[09:56:21.922]	 -0.275	 -0.525
[09:56:21.930]	 -0.275	 -0.525
[09:56:21.938]	 -0.265	 -0.515
[09:56:21.945]	 -0.255	 -0.505
[09:56:21.953]	 -0.255	 -0.495
[09:56:21.961]	 -0.265	 -0.485
[09:56:21.969]	 -0.255	 -0.475
[09:56:21.977]	 -0.255	 -0.475
[09:56:21.984]	 -0.245	 -0.465
[09:56:21.992]	 -0.255	 -0.455
[09:56:22.000]	 -0.245	 -0.445
[09:56:22.008]	 -0.245	 -0.435
[09:56:22.016]	 -0.235	 -0.425
[09:56:22.023]	 -0.245	 -0.415
[09:56:22.031]	 -0.235	 -0.415
[09:56:22.039]	 -0.235	 -0.395
[09:56:22.047]	 -0.235	 -0.395
[09:56:22.055]	 -0.235	 -0.385
[09:56:22.063]	 -0.225	 -0.375
[09:56:22.070]	 -0.215	 -0.365
[09:56:22.078]	 -0.215	 -0.345
[09:56:22.086]	 -0.215	 -0.345
[09:56:22.094]	 -0.215	 -0.345
[09:56:22.102]	 -0.215	 -0.335
[09:56:22.109]	 -0.205	 -0.325
[09:56:22.117]	 -0.205	 -0.315
[09:56:22.125]	 -0.205	 -0.315
[09:56:22.133]	 -0.205	 -0.305
[09:56:22.141]	 -0.195	 -0.295
[09:56:22.148]	 -0.195	 -0.295
[09:56:22.156]	 -0.195	 -0.285
[09:56:22.164]	 -0.195	 -0.275
[09:56:22.172]	 -0.195	 -0.265
[09:56:22.180]	 -0.195	 -0.265
[09:56:22.188]	 -0.185	 -0.265
[09:56:22.195]	 -0.185	 -0.245
[09:56:22.203]	 -0.185	 -0.245
[09:56:22.211]	 -0.185	 -0.235
[09:56:22.219]	 -0.175	 -0.225
[09:56:22.227]	 -0.175	 -0.225
[09:56:22.234]	 -0.185	 -0.215
[09:56:22.242]	 -0.185	 -0.215
[09:56:22.250]	 -0.175	 -0.205
[09:56:22.258]	 -0.185	 -0.195
[09:56:22.266]	 -0.175	 -0.195
[09:56:22.273]	 -0.185	 -0.185
[09:56:22.281]	 -0.175	 -0.175
[09:56:22.289]	 -0.185	 -0.165
[09:56:22.297]	 -0.175	 -0.155
[09:56:22.305]	 -0.185	 -0.165
[09:56:22.313]	 -0.175	 -0.155
[09:56:22.320]	 -0.175	 -0.145
[09:56:22.328]	 -0.175	 -0.135
[09:56:22.336]	 -0.185	 -0.125
[09:56:22.344]	 -0.175	 -0.115
[09:56:22.352]	 -0.165	 -0.095
[09:56:22.359]	 -0.165	  0.145
[09:56:22.367]	  0.345	  0.595
[09:56:22.375]	  0.365	  0.575
[09:56:22.383]	  0.345	  0.565
[09:56:22.391]	  0.335	  0.555
[09:56:22.398]	  0.325	  0.555
[09:56:22.406]	  0.315	  0.555
[09:56:22.414]	  0.295	  0.555
[09:56:22.422]	  0.285	  0.545
[09:56:22.430]	  0.265	  0.545
[09:56:22.438]	  0.245	  0.535
[09:56:22.445]	  0.225	  0.545
[09:56:22.453]	  0.175	  0.555
[09:56:22.461]	  0.065	  0.560
[09:56:22.469]	 -1.525	  1.810
[09:56:22.477]	 -1.805	  1.760
[09:56:22.484]	 -1.755	  1.750
[09:56:22.492]	 -1.775	  1.750
[09:56:22.500]	 -1.785	  1.750
[09:56:22.508]	 -1.785	  1.750
[09:56:22.516]	 -1.795	  1.750
[09:56:22.523]	 -1.805	  1.740
[09:56:22.531]	 -1.805	  1.740
[09:56:22.539]	 -1.815	  1.750
[09:56:22.547]	 -1.805	  1.740
[09:56:22.555]	 -1.805	  1.735
[09:56:22.563]	 -1.805	  1.735
[09:56:22.570]	 -1.805	  1.735
[09:56:22.578]	 -1.805	  1.735
[09:56:22.586]	 -1.805	  1.720
[09:56:22.594]	 -1.805	  1.710
[09:56:22.602]	 -1.805	  1.710
[09:56:22.609]	 -1.815	  1.700
[09:56:22.617]	 -1.815	  1.685
[09:56:22.625]	 -1.805	  1.675
[09:56:22.633]	 -1.815	  1.655
[09:56:22.641]	 -1.815	  1.655
[09:56:22.648]	 -1.815	  1.630
[09:56:22.656]	 -1.805	  1.590
[09:56:22.664]	 -1.815	  1.580
[09:56:22.672]	 -1.805	  1.560
[09:56:22.680]	 -1.805	  1.555
[09:56:22.688]	 -1.795	  1.545
[09:56:22.695]	 -1.805	  1.535
[09:56:22.703]	 -1.805	  1.515
[09:56:22.711]	 -1.805	  1.460
[09:56:22.719]	 -1.795	  1.500
[09:56:22.727]	 -1.795	  1.480
[09:56:22.734]	 -1.795	  1.430
[09:56:22.742]	 -1.795	  1.425
[09:56:22.750]	 -1.785	  1.405
[09:56:22.758]	 -1.795	  1.365
[09:56:22.766]	 -1.775	  1.395
[09:56:22.773]	 -1.785	  1.360
[09:56:22.781]	 -1.775	  1.350
[09:56:22.789]	 -1.765	  1.320
[09:56:22.797]	 -1.765	  1.310
[09:56:22.805]	 -1.755	  1.315
[09:56:22.813]	 -1.755	  1.285
[09:56:22.820]	 -1.755	  1.285
[09:56:22.828]	 -1.745	  1.295
[09:56:22.836]	 -1.745	  1.280
[09:56:22.844]	 -1.735	  1.260
[09:56:22.852]	 -1.725	  1.240
[09:56:22.859]	 -1.715	  1.220
[09:56:22.867]	 -1.715	  1.175
[09:56:22.875]	 -1.715	  1.155
[09:56:22.883]	 -1.695	  1.175
[09:56:22.891]	 -1.695	  1.145
[09:56:22.898]	 -1.695	  1.110
[09:56:22.906]	 -1.685	  1.080
[09:56:22.914]	 -1.675	  1.070
[09:56:22.922]	 -1.675	  1.060
[09:56:22.930]	 -1.675	  0.985
[09:56:22.938]	 -1.665	  1.055
[09:56:22.945]	 -1.675	  1.105
[09:56:22.953]	 -1.665	  1.255
[09:56:22.961]	 -1.635	  1.350
[09:56:22.969]	 -1.575	  1.200
[09:56:22.977]	 -1.525	  0.390
[09:56:22.984]	 -1.605	  0.420
[09:56:22.992]	 -1.625	  0.735
[09:56:23.000]	 -1.615	  0.825
[09:56:23.008]	 -1.615	  0.865
[09:56:23.016]	 -1.605	  0.845
[09:56:23.023]	 -1.605	  0.870
[09:56:23.031]	 -1.605	  0.770
[09:56:23.039]	 -1.595	  0.840
[09:56:23.047]	 -1.595	  0.800
[09:56:23.055]	 -1.595	  0.805
[09:56:23.063]	 -1.575	  0.785
[09:56:23.070]	 -1.595	  0.795
[09:56:23.078]	 -1.575	  0.785
[09:56:23.086]	 -1.575	  0.780
[09:56:23.094]	 -1.555	  0.800
[09:56:23.102]	 -1.545	  0.760
[09:56:23.109]	 -1.545	  0.750
[09:56:23.117]	 -1.545	  0.755
[09:56:23.125]	 -1.525	  0.735
[09:56:23.133]	 -1.515	  0.735
[09:56:23.141]	 -1.515	  0.745
[09:56:23.148]	 -1.495	  0.770
[09:56:23.156]	 -1.495	  0.760
[09:56:23.164]	 -1.475	  0.760
[09:56:23.172]	 -1.465	  0.750
[09:56:23.180]	 -1.465	  0.775
[09:56:23.188]	 -1.465	  0.755
[09:56:23.195]	 -1.445	  0.745
[09:56:23.203]	 -1.445	  0.725
[09:56:23.211]	 -1.435	  0.730
[09:56:23.219]	 -1.415	  0.680
[09:56:23.227]	 -1.405	  0.650
[09:56:23.234]	 -1.385	  0.660
[09:56:23.242]	 -1.405	  0.585
[09:56:23.250]	 -1.365	  0.575
[09:56:23.258]	 -1.385	  0.535
[09:56:23.266]	 -1.385	  0.505
[09:56:23.273]	 -1.355	  0.530
[09:56:23.281]	 -1.375	  0.540
[09:56:23.289]	 -1.385	  0.450
[09:56:23.297]	 -1.325	  0.450
[09:56:23.305]	 -1.355	  0.445
[09:56:23.313]	 -1.325	  0.415
[09:56:23.320]	 -1.315	  0.455
[09:56:23.328]	 -1.305	  0.415
[09:56:23.336]	 -1.305	  0.440
[09:56:23.344]	 -1.295	  0.400
[09:56:23.352]	 -1.195	  0.430
[09:56:23.359]	 -1.285	  0.420
[09:56:23.367]	 -1.215	  0.375
[09:56:23.375]	 -1.205	  0.435
[09:56:23.383]	 -1.205	  0.395
[09:56:23.391]	 -1.155	  0.375
[09:56:23.398]	 -1.255	  0.380
[09:56:23.406]	 -1.185	  0.320
[09:56:23.414]	 -1.145	  0.320
[09:56:23.422]	 -1.135	  0.340
[09:56:23.430]	 -1.135	  0.335
[09:56:23.438]	 -1.075	  0.345
[09:56:23.445]	 -1.095	  0.335
[09:56:23.453]	 -1.035	  0.295
[09:56:23.461]	 -0.995	  0.360
[09:56:23.469]	 -1.015	  0.320
[09:56:23.477]	 -0.985	  0.320
[09:56:23.484]	 -0.965	  0.310
[09:56:23.492]	 -0.885	  0.295
[09:56:23.500]	 -0.915	  0.255
[09:56:23.508]	 -1.035	  0.255
[09:56:23.516]	 -1.015	  0.265
[09:56:23.523]	 -0.925	  0.160
[09:56:23.531]	 -0.985	  0.190
[09:56:23.539]	 -0.965	  0.160
[09:56:23.547]	 -0.885	  0.260
[09:56:23.555]	 -1.005	  0.435
[09:56:23.563]	 -0.725	  0.655
[09:56:23.570]	 -0.225	  0.615
[09:56:23.578]	 -0.045	 -0.125
[09:56:23.586]	 -0.455	 -0.420
[09:56:23.594]	 -0.785	 -0.100
[09:56:23.602]	 -0.825	  0.040
[09:56:23.609]	 -0.805	  0.140
[09:56:23.617]	 -0.895	  0.085
[09:56:23.625]	 -0.795	  0.105
[09:56:23.633]	 -0.785	  0.095
[09:56:23.641]	 -0.825	  0.075
[09:56:23.648]	 -0.745	  0.105
[09:56:23.656]	 -0.855	  0.105
[09:56:23.664]	 -0.795	  0.075
[09:56:23.672]	 -0.715	  0.095
[09:56:23.680]	 -0.775	  0.065
[09:56:23.688]	 -0.755	  0.065
[09:56:23.695]	 -0.625	  0.075
[09:56:23.703]	 -0.815	  0.065
[09:56:23.711]	 -0.655	  0.075
[09:56:23.719]	 -0.705	  0.085
[09:56:23.727]	 -0.655	  0.075
[09:56:23.734]	 -0.705	  0.065
[09:56:23.742]	 -0.645	  0.075
[09:56:23.750]	 -0.625	  0.095
[09:56:23.758]	 -0.625	  0.075
[09:56:23.766]	 -0.435	  0.105
[09:56:23.773]	 -0.635	  0.085
[09:56:23.781]	 -0.545	  0.085
[09:56:23.789]	 -0.505	  0.095
[09:56:23.797]	 -0.525	  0.065
[09:56:23.805]	 -0.435	  0.085
[09:56:23.813]	 -0.545	  0.045
[09:56:23.820]	 -0.465	  0.095
[09:56:23.828]	 -0.465	  0.105
[09:56:23.836]	 -0.485	  0.005
[09:56:23.844]	 -0.395	  0.005
[09:56:23.852]	 -0.395	 -0.005
[09:56:23.859]	 -0.425	 -0.035
[09:56:23.867]	 -0.405	 -0.045
[09:56:23.875]	 -0.415	 -0.065
[09:56:23.883]	 -0.435	 -0.075
[09:56:23.891]	 -0.345	 -0.075
[09:56:23.898]	 -0.375	 -0.065
[09:56:23.906]	 -0.445	 -0.095
[09:56:23.914]	 -0.235	 -0.085
[09:56:23.922]	 -0.445	 -0.065
[09:56:23.930]	 -0.435	 -0.095
[09:56:23.938]	 -0.235	 -0.095
[09:56:23.945]	 -0.425	 -0.085
[09:56:23.953]	 -0.335	 -0.105
[09:56:23.961]	 -0.335	 -0.095
[09:56:23.969]	 -0.305	 -0.175
[09:56:23.977]	 -0.245	 -0.115
[09:56:23.984]	 -0.325	 -0.125
[09:56:23.992]	 -0.275	 -0.155
[09:56:24.000]	 -0.265	 -0.135
[09:56:24.008]	 -0.335	 -0.155
[09:56:24.016]	 -0.245	 -0.155
[09:56:24.023]	 -0.215	 -0.125
[09:56:24.031]	 -0.255	 -0.145
[09:56:24.039]	 -0.125	 -0.125
[09:56:24.047]	 -0.175	 -0.145
[09:56:24.055]	 -0.145	 -0.145
[09:56:24.063]	 -0.095	 -0.165
[09:56:24.070]	 -0.135	 -0.155
[09:56:24.078]	 -0.195	 -0.165
[09:56:24.086]	 -0.125	 -0.195
[09:56:24.094]	 -0.195	 -0.205
[09:56:24.102]	 -0.215	 -0.205
[09:56:24.109]	 -0.165	 -0.245
[09:56:24.117]	 -0.195	 -0.245
[09:56:24.125]	 -0.215	 -0.255
[09:56:24.133]	 -0.135	 -0.265
[09:56:24.141]	 -0.205	 -0.235
[09:56:24.148]	 -0.185	 -0.075
[09:56:24.156]	 -0.015	  0.205
[09:56:24.164]	  0.305	  0.155
[09:56:24.172]	  0.585	 -0.325
[09:56:24.180]	  0.185	 -0.915
[09:56:24.188]	 -0.015	 -0.635
[09:56:24.195]	 -0.115	 -0.305
[09:56:24.203]	 -0.095	 -0.375
[09:56:24.211]	 -0.125	 -0.365
[09:56:24.219]	 -0.115	 -0.325
[09:56:24.227]	 -0.095	 -0.325
[09:56:24.234]	 -0.115	 -0.315
[09:56:24.242]	 -0.005	 -0.285
[09:56:24.250]	 -0.085	 -0.305
[09:56:24.258]	  0.075	 -0.265
[09:56:24.266]	 -0.225	 -0.285
[09:56:24.273]	 -0.045	 -0.295
[09:56:24.281]	 -0.075	 -0.275
[09:56:24.289]	 -0.065	 -0.285
[09:56:24.297]	 -0.055	 -0.285
[09:56:24.305]	 -0.045	 -0.275
[09:56:24.313]	 -0.035	 -0.285
[09:56:24.320]	 -0.025	 -0.265
[09:56:24.328]	 -0.015	 -0.255
[09:56:24.336]	  0.015	 -0.295
[09:56:24.344]	  0.085	 -0.205
[09:56:24.352]	  0.025	 -0.255
[09:56:24.359]	  0.055	 -0.235
[09:56:24.367]	 -0.125	 -0.125
[09:56:24.375]	 -0.005	 -0.265
[09:56:24.383]	 -0.005	 -0.225
[09:56:24.391]	  0.015	 -0.225
[09:56:24.398]	  0.055	 -0.275
[09:56:24.406]	  0.055	 -0.265
[09:56:24.414]	  0.055	 -0.255
[09:56:24.422]	  0.065	 -0.255
[09:56:24.430]	  0.065	 -0.265
[09:56:24.438]	  0.105	 -0.285
[09:56:24.445]	  0.105	 -0.275
[09:56:24.453]	  0.105	 -0.345
[09:56:24.461]	  0.065	 -0.325
[09:56:24.469]	  0.025	 -0.345
[09:56:24.477]	  0.065	 -0.315
[09:56:24.484]	 -0.055	 -0.325
[09:56:24.492]	  0.025	 -0.355
[09:56:24.500]	  0.035	 -0.335
[09:56:24.508]	  0.065	 -0.335
[09:56:24.516]	  0.065	 -0.335
[09:56:24.523]	  0.085	 -0.335
[09:56:24.531]	  0.105	 -0.325
[09:56:24.539]	  0.105	 -0.385
[09:56:24.547]	  0.165	 -0.315
[09:56:24.555]	  0.075	 -0.335
[09:56:24.563]	  0.055	 -0.305
[09:56:24.570]	  0.065	 -0.405
[09:56:24.578]	  0.155	 -0.335
[09:56:24.586]	  0.105	 -0.355
[09:56:24.594]	  0.055	 -0.355
[09:56:24.602]	  0.095	 -0.335
[09:56:24.609]	  0.135	 -0.335
[09:56:24.617]	  0.165	 -0.305
[09:56:24.625]	  0.205	 -0.315
[09:56:24.633]	  0.255	 -0.325
[09:56:24.641]	  0.165	 -0.345
[09:56:24.648]	  0.295	 -0.315
[09:56:24.656]	  0.145	 -0.315
[09:56:24.664]	  0.115	 -0.385
[09:56:24.672]	  0.175	 -0.355
[09:56:24.680]	  0.035	 -0.375
[09:56:24.688]	  0.095	 -0.385
[09:56:24.695]	  0.145	 -0.365
[09:56:24.703]	  0.095	 -0.385
[09:56:24.711]	  0.145	 -0.375
[09:56:24.719]	 -0.005	 -0.305
[09:56:24.727]	  0.055	 -0.155
[09:56:24.734]	  0.515	  0.085
[09:56:24.742]	  0.685	 -0.105
[09:56:24.750]	  0.835	 -0.735
[09:56:24.758]	  0.355	 -0.915
[09:56:24.766]	  0.135	 -0.565
[09:56:24.773]	  0.115	 -0.455
[09:56:24.781]	  0.135	 -0.405
[09:56:24.789]	  0.015	 -0.385
[09:56:24.797]	  0.095	 -0.385
[09:56:24.805]	  0.045	 -0.365
[09:56:24.813]	  0.025	 -0.345
[09:56:24.820]	  0.075	 -0.335
[09:56:24.828]	  0.165	 -0.375
[09:56:24.836]	  0.015	 -0.365
[09:56:24.844]	 -0.005	 -0.315
[09:56:24.852]	  0.025	 -0.345
[09:56:24.859]	  0.065	 -0.345
[09:56:24.867]	  0.055	 -0.325
[09:56:24.875]	  0.065	 -0.335
[09:56:24.883]	  0.075	 -0.325
[09:56:24.891]	  0.125	 -0.315
[09:56:24.898]	  0.225	 -0.305
[09:56:24.906]	  0.065	 -0.255
[09:56:24.914]	  0.085	 -0.285
[09:56:24.922]	  0.075	 -0.295
[09:56:24.930]	  0.185	 -0.215
[09:56:24.938]	  0.015	 -0.235
[09:56:24.945]	  0.105	 -0.235
[09:56:24.953]	  0.125	 -0.245
[09:56:24.961]	  0.155	 -0.225
[09:56:24.969]	  0.185	 -0.225
[09:56:24.977]	  0.145	 -0.235
[09:56:24.984]	  0.145	 -0.235
[09:56:24.992]	  0.165	 -0.255
[09:56:25.000]	  0.305	 -0.255
[09:56:25.008]	  0.195	 -0.275
[09:56:25.016]	  0.385	 -0.275
[09:56:25.023]	 -0.015	 -0.235
[09:56:25.031]	  0.065	 -0.295
[09:56:25.039]	  0.145	 -0.305
[09:56:25.047]	  0.155	 -0.305
[09:56:25.055]	  0.155	 -0.305
[09:56:25.063]	  0.175	 -0.305
[09:56:25.070]	  0.155	 -0.315
[09:56:25.078]	  0.145	 -0.315
[09:56:25.086]	  0.175	 -0.315
[09:56:25.094]	  0.205	 -0.335
[09:56:25.102]	  0.205	 -0.295
[09:56:25.109]	  0.275	 -0.315
[09:56:25.117]	  0.125	 -0.255
[09:56:25.125]	  0.085	 -0.295
[09:56:25.133]	  0.165	 -0.285
[09:56:25.141]	  0.185	 -0.295
[09:56:25.148]	  0.205	 -0.295
[09:56:25.156]	  0.215	 -0.295
[09:56:25.164]	  0.235	 -0.285
[09:56:25.172]	  0.155	 -0.275
[09:56:25.180]	  0.285	 -0.255
[09:56:25.188]	  0.165	 -0.245
[09:56:25.195]	  0.275	 -0.295
[09:56:25.203]	  0.255	 -0.255
[09:56:25.211]	  0.245	 -0.265
[09:56:25.219]	  0.235	 -0.285
[09:56:25.227]	  0.315	 -0.275
[09:56:25.234]	  0.235	 -0.315
[09:56:25.242]	  0.205	 -0.265
[09:56:25.250]	  0.135	 -0.325
[09:56:25.258]	  0.285	 -0.295
[09:56:25.266]	  0.065	 -0.305
[09:56:25.273]	  0.165	 -0.315
[09:56:25.281]	  0.185	 -0.315
[09:56:25.289]	  0.065	 -0.275
[09:56:25.297]	  0.105	 -0.105
[09:56:25.305]	  0.365	  0.065
[09:56:25.313]	  0.795	  0.125
[09:56:25.320]	  0.975	 -0.365
[09:56:25.328]	  0.625	 -0.885
[09:56:25.336]	  0.225	 -0.635
[09:56:25.344]	  0.205	 -0.365
[09:56:25.352]	  0.105	 -0.315
[09:56:25.359]	  0.155	 -0.315
[09:56:25.367]	  0.135	 -0.285
[09:56:25.375]	  0.095	 -0.295
[09:56:25.383]	  0.235	 -0.255
[09:56:25.391]	  0.075	 -0.245
[09:56:25.398]	  0.105	 -0.275
[09:56:25.406]	  0.145	 -0.305
[09:56:25.414]	  0.105	 -0.245
[09:56:25.422]	  0.085	 -0.265
[09:56:25.430]	  0.275	 -0.245
[09:56:25.438]	  0.075	 -0.295
[09:56:25.445]	  0.125	 -0.225
[09:56:25.453]	  0.125	 -0.215
[09:56:25.461]	  0.085	 -0.215
[09:56:25.469]	  0.145	 -0.175
[09:56:25.477]	  0.095	 -0.215
[09:56:25.484]	  0.195	 -0.215
[09:56:25.492]	  0.205	 -0.205
[09:56:25.500]	  0.145	 -0.185
[09:56:25.508]	  0.215	 -0.155
[09:56:25.516]	  0.255	 -0.145
[09:56:25.523]	  0.135	 -0.175
[09:56:25.531]	  0.215	 -0.155
[09:56:25.539]	  0.315	 -0.075
[09:56:25.547]	  0.155	 -0.115
[09:56:25.555]	  0.215	 -0.145
[09:56:25.563]	  0.205	 -0.145
[09:56:25.570]	  0.195	 -0.155
[09:56:25.578]	  0.265	 -0.145
[09:56:25.586]	  0.205	 -0.165
[09:56:25.594]	  0.295	 -0.205
[09:56:25.602]	  0.245	 -0.195
[09:56:25.609]	  0.195	 -0.215
[09:56:25.617]	  0.145	 -0.285
[09:56:25.625]	  0.195	 -0.225
[09:56:25.633]	  0.145	 -0.225
[09:56:25.641]	  0.235	 -0.205
[09:56:25.648]	  0.145	 -0.205
[09:56:25.656]	  0.205	 -0.165
[09:56:25.664]	  0.265	 -0.265
[09:56:25.672]	  0.255	 -0.255
[09:56:25.680]	  0.195	 -0.215
[09:56:25.688]	  0.235	 -0.225
[09:56:25.695]	  0.145	 -0.215
[09:56:25.703]	  0.185	 -0.205
[09:56:25.711]	  0.175	 -0.215
[09:56:25.719]	  0.235	 -0.205
[09:56:25.727]	  0.165	 -0.225
[09:56:25.734]	  0.315	 -0.185
[09:56:25.742]	  0.175	 -0.185
[09:56:25.750]	  0.225	 -0.175
[09:56:25.758]	  0.305	 -0.185
[09:56:25.766]	  0.275	 -0.155
[09:56:25.773]	  0.345	 -0.165
[09:56:25.781]	  0.265	 -0.185
[09:56:25.789]	  0.285	 -0.195
[09:56:25.797]	  0.215	 -0.165
[09:56:25.805]	  0.185	 -0.215
[09:56:25.813]	  0.235	 -0.215
[09:56:25.820]	  0.205	 -0.225
[09:56:25.828]	  0.175	 -0.215
[09:56:25.836]	  0.205	 -0.235
[09:56:25.844]	  0.225	 -0.215
[09:56:25.852]	  0.185	 -0.215
[09:56:25.859]	  0.105	 -0.185
[09:56:25.867]	  0.065	 -0.025
[09:56:25.875]	  0.245	  0.125
[09:56:25.883]	  0.605	  0.195
[09:56:25.891]	  1.025	 -0.275
[09:56:25.898]	  0.585	 -0.865
[09:56:25.906]	  0.275	 -0.575
[09:56:25.914]	  0.205	 -0.315
[09:56:25.922]	  0.195	 -0.245
[09:56:25.930]	  0.125	 -0.215
[09:56:25.938]	  0.075	 -0.205
[09:56:25.945]	  0.155	 -0.225
[09:56:25.953]	  0.115	 -0.175
[09:56:25.961]	  0.065	 -0.185
[09:56:25.969]	  0.085	 -0.185
[09:56:25.977]	  0.125	 -0.205
[09:56:25.984]	  0.105	 -0.165
[09:56:25.992]	  0.065	 -0.165
[09:56:26.000]	  0.135	 -0.175
[09:56:26.008]	  0.135	 -0.175
[09:56:26.016]	  0.145	 -0.125
[09:56:26.023]	  0.065	 -0.145
[09:56:26.031]	  0.085	 -0.145
[09:56:26.039]	  0.195	 -0.135
[09:56:26.047]	  0.075	 -0.105
[09:56:26.055]	  0.105	 -0.145
[09:56:26.063]	  0.255	 -0.095
[09:56:26.070]	  0.115	 -0.055
[09:56:26.078]	  0.085	 -0.075
[09:56:26.086]	  0.225	 -0.095
[09:56:26.094]	  0.085	 -0.075
[09:56:26.102]	  0.145	 -0.085
[09:56:26.109]	  0.225	 -0.055
[09:56:26.117]	  0.165	 -0.055
[09:56:26.125]	  0.185	 -0.065
[09:56:26.133]	  0.255	 -0.085
[09:56:26.141]	  0.195	 -0.065
[09:56:26.148]	  0.265	 -0.065
[09:56:26.156]	  0.225	 -0.095
[09:56:26.164]	  0.165	 -0.095
[09:56:26.172]	  0.295	 -0.115
[09:56:26.180]	  0.175	 -0.145
[09:56:26.188]	  0.245	 -0.135
[09:56:26.195]	  0.235	 -0.115
[09:56:26.203]	  0.175	 -0.175
[09:56:26.211]	  0.195	 -0.135
[09:56:26.219]	  0.155	 -0.175
[09:56:26.227]	  0.345	 -0.085
[09:56:26.234]	  0.155	 -0.125
[09:56:26.242]	  0.285	 -0.175
[09:56:26.250]	  0.145	 -0.135
[09:56:26.258]	  0.175	 -0.125
[09:56:26.266]	  0.175	 -0.135
[09:56:26.273]	  0.225	 -0.105
[09:56:26.281]	  0.195	 -0.145
[09:56:26.289]	  0.265	 -0.115
[09:56:26.297]	  0.215	 -0.105
[09:56:26.305]	  0.315	 -0.105
[09:56:26.313]	  0.115	 -0.105
[09:56:26.320]	  0.155	 -0.105
[09:56:26.328]	  0.355	 -0.085
[09:56:26.336]	  0.255	 -0.065
[09:56:26.344]	  0.225	 -0.085
[09:56:26.352]	  0.325	 -0.115
[09:56:26.359]	  0.345	 -0.065
[09:56:26.367]	  0.215	 -0.095
[09:56:26.375]	  0.205	 -0.165
[09:56:26.383]	  0.195	 -0.165
[09:56:26.391]	  0.205	 -0.165
[09:56:26.398]	  0.095	 -0.135
[09:56:26.406]	  0.155	 -0.155
[09:56:26.414]	  0.175	 -0.155
[09:56:26.422]	  0.115	 -0.145
[09:56:26.430]	  0.165	 -0.055
[09:56:26.438]	  0.115	  0.165
[09:56:26.445]	  0.495	  0.205
[09:56:26.453]	  0.845	  0.035
[09:56:26.461]	  0.795	 -0.635
[09:56:26.469]	  0.305	 -0.645
[09:56:26.477]	  0.175	 -0.315
[09:56:26.484]	  0.175	 -0.165
[09:56:26.492]	  0.145	 -0.175
[09:56:26.500]	  0.135	 -0.155
[09:56:26.508]	  0.055	 -0.115
[09:56:26.516]	  0.055	 -0.125
[09:56:26.523]	  0.145	 -0.125
[09:56:26.531]	  0.105	 -0.135
[09:56:26.539]	  0.085	 -0.105
[09:56:26.547]	  0.155	 -0.065
[09:56:26.555]	  0.015	 -0.105
[09:56:26.563]	  0.025	 -0.095
[09:56:26.570]	  0.115	 -0.075
[09:56:26.578]	  0.065	 -0.115
[09:56:26.586]	  0.245	 -0.045
[09:56:26.594]	  0.005	 -0.085
[09:56:26.602]	  0.095	 -0.065
[09:56:26.609]	  0.125	 -0.075
[09:56:26.617]	  0.055	 -0.065
[09:56:26.625]	  0.085	 -0.055
[09:56:26.633]	  0.095	 -0.045
[09:56:26.641]	  0.155	 -0.025
[09:56:26.648]	  0.105	 -0.025
[09:56:26.656]	  0.205	 -0.015
[09:56:26.664]	  0.075	 -0.025
[09:56:26.672]	  0.065	  0.015
[09:56:26.680]	  0.135	 -0.055
[09:56:26.688]	  0.165	 -0.005
[09:56:26.695]	  0.125	 -0.075
[09:56:26.703]	  0.105	 -0.005
[09:56:26.711]	  0.255	  0.015
[09:56:26.719]	  0.125	 -0.025
[09:56:26.727]	  0.145	 -0.025
[09:56:26.734]	  0.145	 -0.045
[09:56:26.742]	  0.155	 -0.065
[09:56:26.750]	  0.135	 -0.055
[09:56:26.758]	  0.095	 -0.045
[09:56:26.766]	  0.135	 -0.065
[09:56:26.773]	  0.165	 -0.115
[09:56:26.781]	  0.105	 -0.055
[09:56:26.789]	  0.135	 -0.065
[09:56:26.797]	  0.165	 -0.055
[09:56:26.805]	  0.145	 -0.055
[09:56:26.813]	  0.095	 -0.075
[09:56:26.820]	  0.145	 -0.035
[09:56:26.828]	  0.135	 -0.035
[09:56:26.836]	  0.125	 -0.055
[09:56:26.844]	  0.155	 -0.055
[09:56:26.852]	  0.075	 -0.065
[09:56:26.859]	  0.145	 -0.095
[09:56:26.867]	  0.105	 -0.045
[09:56:26.875]	  0.105	 -0.055
[09:56:26.883]	  0.205	 -0.015
[09:56:26.891]	  0.145	 -0.015
[09:56:26.898]	  0.165	 -0.015
[09:56:26.906]	  0.185	 -0.015
[09:56:26.914]	  0.225	 -0.035
[09:56:26.922]	  0.265	 -0.025
[09:56:26.930]	  0.155	 -0.035
[09:56:26.938]	  0.245	 -0.015
[09:56:26.945]	  0.085	 -0.085
[09:56:26.953]	  0.135	 -0.045
[09:56:26.961]	  0.085	 -0.055
[09:56:26.969]	  0.085	 -0.085
[09:56:26.977]	  0.105	 -0.065
[09:56:26.984]	  0.015	 -0.065
[09:56:26.992]	  0.055	 -0.055
[09:56:27.000]	  0.005	  0.095
[09:56:27.008]	  0.045	  0.285
[09:56:27.016]	  0.495	  0.255
[09:56:27.023]	  0.905	 -0.185
[09:56:27.031]	  0.525	 -0.705
[09:56:27.039]	  0.235	 -0.395
[09:56:27.047]	  0.135	 -0.165
[09:56:27.055]	  0.115	 -0.065
[09:56:27.063]	 -0.055	 -0.065
[09:56:27.070]	 -0.025	 -0.065
[09:56:27.078]	  0.015	 -0.035
[09:56:27.086]	 -0.045	 -0.065
[09:56:27.094]	 -0.035	 -0.055
[09:56:27.102]	  0.045	 -0.025
[09:56:27.109]	 -0.035	 -0.025
[09:56:27.117]	  0.045	 -0.025
[09:56:27.125]	 -0.015	 -0.035
[09:56:27.133]	 -0.045	 -0.035
[09:56:27.141]	  0.025	 -0.005
[09:56:27.148]	 -0.065	 -0.005
[09:56:27.156]	  0.035	 -0.005
[09:56:27.164]	 -0.015	  0.015
[09:56:27.172]	 -0.015	 -0.005
[09:56:27.180]	 -0.005	  0.005
[09:56:27.188]	  0.005	  0.025
[09:56:27.195]	  0.035	  0.025
[09:56:27.203]	  0.055	  0.055
[09:56:27.211]	 -0.005	  0.055
[09:56:27.219]	  0.035	  0.055
[09:56:27.227]	  0.015	  0.085
[09:56:27.234]	  0.015	  0.125
[09:56:27.242]	  0.075	  0.075
[09:56:27.250]	  0.115	  0.035
[09:56:27.258]	  0.015	  0.045
[09:56:27.266]	  0.075	  0.045
[09:56:27.273]	  0.065	  0.065
[09:56:27.281]	  0.055	  0.055
[09:56:27.289]	  0.065	  0.035
[09:56:27.297]	  0.065	  0.035
[09:56:27.305]	  0.095	  0.025
[09:56:27.313]	  0.075	  0.025
[09:56:27.320]	  0.045	  0.025
[09:56:27.328]	  0.045	 -0.005
[09:56:27.336]	  0.035	 -0.005
[09:56:27.344]	  0.035	 -0.015
[09:56:27.352]	  0.065	  0.015
[09:56:27.359]	  0.045	  0.005
[09:56:27.367]	  0.005	 -0.005
[09:56:27.375]	 -0.005	  0.005
[09:56:27.383]	  0.055	 -0.005
[09:56:27.391]	  0.085	  0.065
[09:56:27.398]	  0.045	  0.035
[09:56:27.406]	  0.095	  0.005
[09:56:27.414]	  0.065	  0.005
[09:56:27.422]	  0.035	  0.025
[09:56:27.430]	  0.065	 -0.005
[09:56:27.438]	 -0.075	 -0.005
[09:56:27.445]	  0.095	  0.085
[09:56:27.453]	  0.045	  0.065
[09:56:27.461]	  0.095	  0.105
[09:56:27.469]	  0.135	 -0.005
[09:56:27.477]	  0.155	  0.025
[09:56:27.484]	  0.125	  0.015
[09:56:27.492]	  0.185	  0.035
[09:56:27.500]	  0.165	  0.045
[09:56:27.508]	  0.025	  0.015
[09:56:27.516]	  0.075	  0.005
[09:56:27.523]	  0.025	 -0.005
[09:56:27.531]	  0.045	  0.005
[09:56:27.539]	 -0.035	 -0.015
[09:56:27.547]	 -0.035	 -0.005
[09:56:27.555]	  0.015	  0.005
[09:56:27.563]	 -0.075	  0.105
[09:56:27.570]	 -0.025	  0.315
[09:56:27.578]	  0.335	  0.315
[09:56:27.586]	  0.745	  0.025
[09:56:27.594]	  0.615	 -0.595
[09:56:27.602]	  0.195	 -0.455
[09:56:27.609]	  0.035	 -0.135
[09:56:27.617]	  0.015	 -0.015
[09:56:27.625]	 -0.085	 -0.015
[09:56:27.633]	 -0.045	 -0.015
[09:56:27.641]	 -0.055	  0.025
[09:56:27.648]	 -0.105	 -0.005
[09:56:27.656]	 -0.075	  0.005
[09:56:27.664]	 -0.065	  0.015
[09:56:27.672]	 -0.065	  0.025
[09:56:27.680]	 -0.045	  0.005
[09:56:27.688]	  0.035	  0.045
[09:56:27.695]	 -0.045	  0.015
[09:56:27.703]	  0.025	  0.015
[09:56:27.711]	 -0.105	  0.085
[09:56:27.719]	 -0.125	  0.055
[09:56:27.727]	 -0.055	  0.055
[09:56:27.734]	 -0.065	  0.045
[09:56:27.742]	 -0.065	  0.055
[09:56:27.750]	 -0.045	  0.065
[09:56:27.758]	 -0.045	  0.075
[09:56:27.766]	 -0.035	  0.085
[09:56:27.773]	 -0.035	  0.085
[09:56:27.781]	 -0.035	  0.085
[09:56:27.789]	 -0.015	  0.095
[09:56:27.797]	 -0.025	  0.095
[09:56:27.805]	  0.005	  0.115
[09:56:27.813]	  0.025	  0.105
[09:56:27.820]	 -0.015	  0.095
[09:56:27.828]	 -0.005	  0.095
[09:56:27.836]	 -0.005	  0.095
[09:56:27.844]	  0.025	  0.095
[09:56:27.852]	  0.005	  0.085
[09:56:27.859]	  0.015	  0.075
[09:56:27.867]	  0.005	  0.065
[09:56:27.875]	 -0.005	  0.055
[09:56:27.883]	 -0.015	  0.055
[09:56:27.891]	 -0.005	  0.045
[09:56:27.898]	 -0.015	  0.045
[09:56:27.906]	 -0.015	  0.045
[09:56:27.914]	 -0.025	  0.055
[09:56:27.922]	 -0.015	  0.065
[09:56:27.930]	 -0.025	  0.045
[09:56:27.938]	 -0.045	  0.055
[09:56:27.945]	 -0.035	  0.045
[09:56:27.953]	 -0.045	  0.055
[09:56:27.961]	 -0.045	  0.065
[09:56:27.969]	 -0.035	  0.065
[09:56:27.977]	 -0.045	  0.065
[09:56:27.984]	 -0.035	  0.065
[09:56:27.992]	 -0.025	  0.085
[09:56:28.000]	 -0.005	  0.085
[09:56:28.008]	 -0.015	  0.095
[09:56:28.016]	 -0.005	  0.095
[09:56:28.023]	  0.005	  0.095
[09:56:28.031]	  0.025	  0.085
[09:56:28.039]	  0.045	  0.085
[09:56:28.047]	  0.025	  0.075
[09:56:28.055]	  0.015	  0.075
[09:56:28.063]	 -0.005	  0.055
[09:56:28.070]	 -0.055	  0.055
[09:56:28.078]	 -0.085	  0.055
[09:56:28.086]	 -0.125	  0.015
[09:56:28.094]	 -0.045	  0.065
[09:56:28.102]	 -0.105	  0.025
[09:56:28.109]	 -0.095	  0.045
[09:56:28.117]	 -0.105	  0.045
[09:56:28.125]	 -0.115	  0.185
[09:56:28.133]	 -0.045	  0.435
[09:56:28.141]	  0.365	  0.405
[09:56:28.148]	  0.695	  0.005
[09:56:28.156]	  0.345	 -0.605
[09:56:28.164]	  0.025	 -0.385
[09:56:28.172]	 -0.095	 -0.075
[09:56:28.180]	 -0.115	  0.025
[09:56:28.188]	 -0.125	  0.035
[09:56:28.195]	 -0.145	  0.035
[09:56:28.203]	 -0.155	  0.035
[09:56:28.211]	 -0.155	  0.045
[09:56:28.219]	 -0.155	  0.055
[09:56:28.227]	 -0.155	  0.055
[09:56:28.234]	 -0.145	  0.065
[09:56:28.242]	 -0.155	  0.065
[09:56:28.250]	 -0.135	  0.075
[09:56:28.258]	 -0.125	  0.085
[09:56:28.266]	 -0.115	  0.085
[09:56:28.273]	 -0.125	  0.095
[09:56:28.281]	 -0.135	  0.075
[09:56:28.289]	 -0.155	  0.075
[09:56:28.297]	 -0.125	  0.095
[09:56:28.305]	 -0.125	  0.095
[09:56:28.313]	 -0.105	  0.105
[09:56:28.320]	 -0.105	  0.115
[09:56:28.328]	 -0.085	  0.115
[09:56:28.336]	 -0.075	  0.135
[09:56:28.344]	 -0.045	  0.145
[09:56:28.352]	 -0.055	  0.125
[09:56:28.359]	 -0.035	  0.145
[09:56:28.367]	 -0.035	  0.125
[09:56:28.375]	 -0.015	  0.105
[09:56:28.383]	 -0.015	  0.105
[09:56:28.391]	 -0.005	  0.105
[09:56:28.398]	 -0.005	  0.115
[09:56:28.406]	 -0.005	  0.095
[09:56:28.414]	 -0.015	  0.075
[09:56:28.422]	 -0.015	  0.055
[09:56:28.430]	 -0.015	  0.045
[09:56:28.438]	 -0.025	  0.045
[09:56:28.445]	 -0.055	  0.035
[09:56:28.453]	 -0.055	  0.025
[09:56:28.461]	 -0.055	  0.025
[09:56:28.469]	 -0.035	  0.025
[09:56:28.477]	 -0.025	  0.035
[09:56:28.484]	 -0.035	  0.045
[09:56:28.492]	 -0.035	  0.045
[09:56:28.500]	 -0.025	  0.045
[09:56:28.508]	 -0.005	  0.035
[09:56:28.516]	 -0.005	  0.045
[09:56:28.523]	 -0.005	  0.045
[09:56:28.531]	 -0.015	  0.045
[09:56:28.539]	  0.005	  0.055
[09:56:28.547]	  0.005	  0.055
[09:56:28.555]	  0.025	  0.065
[09:56:28.563]	  0.035	  0.065
[09:56:28.570]	  0.045	  0.075
[09:56:28.578]	  0.065	  0.055
[09:56:28.586]	  0.085	  0.055
[09:56:28.594]	  0.085	  0.045
[09:56:28.602]	  0.065	  0.055
[09:56:28.609]	  0.055	  0.055
[09:56:28.617]	  0.015	  0.025
[09:56:28.625]	 -0.025	  0.025
[09:56:28.633]	 -0.055	  0.015
[09:56:28.641]	 -0.055	  0.015
[09:56:28.648]	 -0.055	  0.005
[09:56:28.656]	 -0.065	  0.005
[09:56:28.664]	 -0.085	  0.015
[09:56:28.672]	 -0.125	  0.105
[09:56:28.680]	 -0.035	  0.325
[09:56:28.688]	  0.435	  0.335
[09:56:28.695]	  0.835	  0.005
[09:56:28.703]	  0.375	 -0.425
[09:56:28.711]	  0.205	 -0.565
[09:56:28.719]	  0.025	 -0.235
[09:56:28.727]	 -0.035	 -0.065
[09:56:28.734]	 -0.075	 -0.005
[09:56:28.742]	 -0.095	  0.005
[09:56:28.750]	 -0.105	  0.015
[09:56:28.758]	 -0.095	  0.025
[09:56:28.766]	 -0.105	  0.025
[09:56:28.773]	 -0.105	  0.025
[09:56:28.781]	 -0.095	  0.025
[09:56:28.789]	 -0.095	  0.035
[09:56:28.797]	 -0.095	  0.035
[09:56:28.805]	 -0.095	  0.045
[09:56:28.813]	 -0.105	  0.035
[09:56:28.820]	 -0.085	  0.055
[09:56:28.828]	 -0.085	  0.045
[09:56:28.836]	 -0.095	  0.045
[09:56:28.844]	 -0.075	  0.065
[09:56:28.852]	 -0.065	  0.075
[09:56:28.859]	 -0.075	  0.075
[09:56:28.867]	 -0.065	  0.085
[09:56:28.875]	 -0.055	  0.105
[09:56:28.883]	 -0.045	  0.115
[09:56:28.891]	 -0.025	  0.135
[09:56:28.898]	 -0.025	  0.145
[09:56:28.906]	 -0.005	  0.135
[09:56:28.914]	  0.005	  0.145
[09:56:28.922]	  0.015	  0.135
[09:56:28.930]	  0.015	  0.135
[09:56:28.938]	  0.015	  0.125
[09:56:28.945]	  0.025	  0.115
[09:56:28.953]	  0.015	  0.105
[09:56:28.961]	 -0.005	  0.085
[09:56:28.969]	 -0.015	  0.065
[09:56:28.977]	 -0.015	  0.045
[09:56:28.984]	 -0.045	  0.045
[09:56:28.992]	 -0.035	  0.015
[09:56:29.000]	 -0.045	  0.015
[09:56:29.008]	 -0.045	  0.015
[09:56:29.016]	 -0.045	  0.015
[09:56:29.023]	 -0.045	  0.025
[09:56:29.031]	 -0.035	  0.015
[09:56:29.039]	 -0.045	  0.015
[09:56:29.047]	 -0.035	  0.015
[09:56:29.055]	 -0.045	  0.025
[09:56:29.063]	 -0.035	  0.005
[09:56:29.070]	 -0.055	  0.005
[09:56:29.078]	 -0.035	  0.015
[09:56:29.086]	 -0.045	  0.005
[09:56:29.094]	 -0.035	  0.025
[09:56:29.102]	 -0.015	  0.025
[09:56:29.109]	 -0.035	  0.015
[09:56:29.117]	 -0.015	  0.035
[09:56:29.125]	  0.015	  0.045
[09:56:29.133]	  0.015	  0.045
[09:56:29.141]	  0.035	  0.035
[09:56:29.148]	  0.055	  0.015
[09:56:29.156]	  0.045	  0.015
[09:56:29.164]	  0.045	  0.015
[09:56:29.172]	  0.025	  0.015
[09:56:29.180]	 -0.025	 -0.005
[09:56:29.188]	 -0.055	 -0.025
[09:56:29.195]	 -0.075	 -0.025
[09:56:29.203]	 -0.075	 -0.035
[09:56:29.211]	 -0.075	 -0.035
[09:56:29.219]	 -0.095	 -0.035
[09:56:29.227]	 -0.135	 -0.015
[09:56:29.234]	 -0.135	  0.145
[09:56:29.242]	  0.125	  0.325
[09:56:29.250]	  0.525	  0.365
[09:56:29.258]	  0.775	 -0.095
[09:56:29.266]	  0.255	 -0.625
[09:56:29.273]	  0.005	 -0.315
[09:56:29.281]	 -0.055	 -0.105
[09:56:29.289]	 -0.075	 -0.085
[09:56:29.297]	 -0.105	 -0.055
[09:56:29.305]	 -0.135	 -0.045
[09:56:29.313]	 -0.125	 -0.035
[09:56:29.320]	 -0.135	 -0.025
[09:56:29.328]	 -0.135	 -0.025
[09:56:29.336]	 -0.135	 -0.015
[09:56:29.344]	 -0.135	 -0.015
[09:56:29.352]	 -0.135	 -0.005
[09:56:29.359]	 -0.135	 -0.005
[09:56:29.367]	 -0.135	  0.005
[09:56:29.375]	 -0.115	  0.015
[09:56:29.383]	 -0.105	  0.015
[09:56:29.391]	 -0.115	  0.015
[09:56:29.398]	 -0.125	  0.005
[09:56:29.406]	 -0.125	  0.015
[09:56:29.414]	 -0.115	  0.035
[09:56:29.422]	 -0.105	  0.045
[09:56:29.430]	 -0.095	  0.055
[09:56:29.438]	 -0.085	  0.065
[09:56:29.445]	 -0.055	  0.105
[09:56:29.453]	 -0.015	  0.075
[09:56:29.461]	 -0.025	  0.105
[09:56:29.469]	 -0.035	  0.115
[09:56:29.477]	 -0.015	  0.075
[09:56:29.484]	 -0.055	  0.095
[09:56:29.492]	 -0.035	  0.105
[09:56:29.500]	 -0.015	  0.095
[09:56:29.508]	 -0.025	  0.075
[09:56:29.516]	 -0.025	  0.055
[09:56:29.523]	 -0.035	  0.035
[09:56:29.531]	 -0.055	  0.015
[09:56:29.539]	 -0.055	  0.015
[09:56:29.547]	 -0.065	  0.005
[09:56:29.555]	 -0.065	 -0.005
[09:56:29.563]	 -0.075	 -0.015
[09:56:29.570]	 -0.065	 -0.005
[09:56:29.578]	 -0.065	  0.005
[09:56:29.586]	 -0.055	  0.005
[09:56:29.594]	 -0.055	 -0.025
[09:56:29.602]	 -0.085	  0.015
[09:56:29.609]	 -0.045	 -0.015
[09:56:29.617]	 -0.135	 -0.015
[09:56:29.625]	 -0.105	 -0.005
[09:56:29.633]	 -0.095	 -0.015
[09:56:29.641]	 -0.075	 -0.005
[09:56:29.648]	 -0.065	 -0.005
[09:56:29.656]	 -0.065	  0.005
[09:56:29.664]	 -0.065	  0.005
[09:56:29.672]	 -0.055	  0.005
[09:56:29.680]	 -0.045	  0.025
[09:56:29.688]	 -0.015	  0.035
[09:56:29.695]	  0.005	  0.045
[09:56:29.703]	  0.005	  0.025
[09:56:29.711]	  0.035	  0.025
[09:56:29.719]	  0.025	  0.015
[09:56:29.727]	  0.015	  0.005
[09:56:29.734]	 -0.025	  0.005
[09:56:29.742]	 -0.055	 -0.015
[09:56:29.750]	 -0.085	 -0.025
[09:56:29.758]	 -0.095	 -0.025
[09:56:29.766]	 -0.105	 -0.035
[09:56:29.773]	 -0.105	 -0.025
[09:56:29.781]	 -0.105	 -0.035
[09:56:29.789]	 -0.145	  0.005
[09:56:29.797]	 -0.145	  0.165
[09:56:29.805]	  0.125	  0.275
[09:56:29.813]	  0.625	  0.245
[09:56:29.820]	  0.605	 -0.225
[09:56:29.828]	  0.115	 -0.585
[09:56:29.836]	 -0.065	 -0.275
[09:56:29.844]	 -0.105	 -0.105
[09:56:29.852]	 -0.125	 -0.045
[09:56:29.859]	 -0.165	 -0.045
[09:56:29.867]	 -0.175	 -0.035
[09:56:29.875]	 -0.165	 -0.035
[09:56:29.883]	 -0.165	 -0.035
[09:56:29.891]	 -0.165	 -0.025
[09:56:29.898]	 -0.175	 -0.025
[09:56:29.906]	 -0.165	 -0.025
[09:56:29.914]	 -0.165	 -0.015
[09:56:29.922]	 -0.175	 -0.015
[09:56:29.930]	 -0.165	 -0.005
[09:56:29.938]	 -0.155	 -0.005
[09:56:29.945]	 -0.145	  0.005
[09:56:29.953]	 -0.145	  0.005
[09:56:29.961]	 -0.145	  0.015
[09:56:29.969]	 -0.145	  0.025
[09:56:29.977]	 -0.125	  0.015
[09:56:29.984]	 -0.145	  0.015
[09:56:29.992]	 -0.115	  0.025
[09:56:30.000]	 -0.115	  0.045
[09:56:30.008]	 -0.095	  0.065
[09:56:30.016]	 -0.025	  0.045
[09:56:30.023]	 -0.065	  0.085
[09:56:30.031]	 -0.105	  0.085
[09:56:30.039]	 -0.065	  0.065
[09:56:30.047]	 -0.065	  0.075
[09:56:30.055]	 -0.035	  0.055
[09:56:30.063]	 -0.035	  0.055
[09:56:30.070]	 -0.025	  0.055
[09:56:30.078]	 -0.045	  0.045
[09:56:30.086]	 -0.075	  0.035
[09:56:30.094]	 -0.075	  0.005
[09:56:30.102]	 -0.085	 -0.005
[09:56:30.109]	 -0.085	 -0.005
[09:56:30.117]	 -0.085	 -0.005
[09:56:30.125]	 -0.075	  0.005
[09:56:30.133]	 -0.055	 -0.025
[09:56:30.141]	 -0.105	 -0.025
[09:56:30.148]	 -0.095	 -0.005
[09:56:30.156]	 -0.105	  0.005
[09:56:30.164]	 -0.095	  0.005
[09:56:30.172]	 -0.095	 -0.005
[09:56:30.180]	 -0.085	 -0.015
[09:56:30.188]	 -0.085	 -0.005
[09:56:30.195]	 -0.085	 -0.005
[09:56:30.203]	 -0.075	 -0.005
[09:56:30.211]	 -0.075	 -0.005
[09:56:30.219]	 -0.065	  0.005
